13.8468196425851,13.7743232046658,13.1943517013115,15.5867341526482,14.2817982701009,12.6868766358764,13.7743232046658,15.5142377147289,13.1943517013115,18.1241094798234,16.529187845599,12.2518980083606,19.5740382382093,18.6315845452585,11.0194585637327,22.2564064412232,10.6569763741362,9.35204049158889,16.3116985318411,11.3819407533291,12.7593730737957,14.4267911459395,13.1218552633922,13.7018267667465,12.7593730737957,14.4267911459395,13.6293303288272,14.8617697734552,15.5142377147289,15.7317270284867,14.9342662113745,15.804223466406,14.7892733355359,14.6442804596973,16.529187845599,15.296748400971,15.1517555251324,13.9193160805044,13.9918125184237,15.0792590872131,14.3542947080202,13.3393445771501,15.6592305905675,11.6719265050063,13.7018267667465,12.3968908841992,9.20704761575031,10.2944941845397,9.71452268118536,11.0194585637327,11.2369478774905,12.0344086946028,12.831869511715,12.3968908841992,12.9043659496343,13.1218552633922,10.2944941845397,14.064308956343,11.7444229429256,11.9619122566835,13.4118410150693,13.7018267667465,12.3968908841992,12.9768623875536
68.4577079609174,68.6211890822688,64.4193087712134,76.8585554947645,71.7541110700475,61.4313796592732,68.186210454753,76.9495401781966,64.9267838366485,87.7384005309848,82.1279375849646,59.2949195568518,92.3708898371605,89.0589115707812,51.3446258077696,102.488794003162,49.9146418390283,42.4178149629747,74.2087941503807,52.0496453973179,58.2955445832308,65.8449231075592,59.1455570486177,62.5499765425609,57.9330623936344,65.3374480421241,61.8435004088807,67.6189010203841,70.8598393929759,72.4717927285813,69.1228379711765,71.1483686005212,66.5499426971075,67.9643515085996,75.5307617343089,69.6828646848862,68.4149052933645,63.0019868714576,64.5784202601693,68.2884006630387,65.4284327255562,60.9749996979811,72.2727916603362,52.7006567944598,62.1149979150451,58.1704964970369,43.5422380227897,48.7746436219643,46.3851742588912,53.7370082591063,53.1015720192136,58.7704127900358,61.3944031682477,59.8379145691806,63.5508080603137,64.147811265049,50.3695652561887,69.4896897931685,57.1044512620239,58.7889010355486,66.2487514205767,67.6247271969114,60.3453896346157,64.4747735077517
138.641408106029,141.839584437093,127.797117882257,155.089940418061,148.012586743382,120.137210326556,137.890713386689,156.131711857059,129.697600425407,171.298456249024,166.290161263073,116.269934794542,172.668901693874,169.161595704898,98.123890198295,184.25941240793,96.4188051088493,77.9896512794086,133.154031663705,96.0990500952267,105.880132680671,119.768472413645,104.398287589931,112.191941870592,103.725184332737,115.910586046673,110.609722931378,121.263310283967,126.366263298998,131.532323586906,126.049491104747,123.917690719292,115.423746297159,124.660122107125,135.421690978973,123.771641741027,119.410284364865,110.114184543098,117.129266693863,120.000045474966,116.227393106478,109.436386703382,130.690644184134,91.8181217778945,108.460560133946,110.004456395135,84.3276261167345,93.0448454031281,90.5020849671551,109.838172542653,101.585555923034,119.453626936338,119.031641088405,118.641281488253,130.393596426064,131.396209438074,102.280130245113,143.230409978846,113.916385820067,119.933915117494,137.982464087977,141.201275734962,121.484217724355,135.327683210946
146.298655960801,157.641762978483,129.046039261195,162.87730867561,160.29302324645,118.771813062995,144.014695837668,165.685821434487,131.618534093557,168.383692987498,174.326485884208,117.145217299853,156.543079639678,155.48319950659,104.828501732725,156.391533378125,107.14564162852,80.616031876828,121.313536469467,97.7281289699671,100.193076630645,114.044492397744,92.5641930448242,100.177412006545,95.4105342899575,102.546643264717,99.4206065277919,109.421585360433,109.11460504393,118.00792191052,113.595803112713,102.791788675876,93.1089523454542,112.94309619869,118.53172941869,106.080030935931,99.1168906416444,90.1145207647681,103.239823157855,100.305842394128,98.9428626280613,96.555304593335,113.957225969195,74.9483020045819,87.7273195738186,107.590276798008,87.832598119742,90.5492251003408,94.5983924954263,126.578988128034,102.022020444227,134.225738204507,119.402508851445,127.001007881833,147.040776373779,151.968991371996,113.40968523175,162.119018248544,120.191731315689,133.60264458516,161.230535611447,167.428816704355,132.233013039305,160.204546667581
86.1414364152918,106.466230561873,67.6376254462622,96.6787562370111,103.353292374928,62.734389502751,83.2779594232127,103.433514621802,70.9700668150148,85.5819184349993,105.192310462988,68.0526931820042,66.8879499308105,62.7911088737578,85.8848375842532,59.2771189671601,97.7713717879268,70.8954903170778,75.5681553470157,81.3229537272031,69.4370144453313,77.9770230545366,57.7813201384562,57.1910681723588,63.4696911202582,60.0023091950773,56.4420564033921,63.0107844675872,53.9220062747793,60.9251900467908,59.3741563320057,47.4869265616819,37.2212361570271,56.4801025310214,57.2512217260037,50.1297842755097,46.530885070263,37.8027126811195,48.3773420977254,45.2248720451954,45.3312511341442,48.6649598098422,50.8708071620427,30.8084745126507,34.7850076436842,61.0805667349981,56.592503253143,46.900242600846,62.5847579095924,97.1984743517913,62.4277671193003,97.6672648103089,68.0864466746825,87.055077826563,105.876819976001,118.923718169814,80.7362153301574,116.437033488632,74.9415426661,94.3947785036065,122.740887693993,132.396492841672,89.7114331187635,126.101295628664
37.6424587226108,59.9874409298246,25.2359504301531,48.6814943147163,66.3010034854434,33.3266411493533,41.9988326895814,60.973293549006,34.8443423190548,34.2966420337503,60.4014453822797,43.275342261686,22.7127879979975,7.18833364851885,80.8680483623038,17.6389960406041,101.978095529149,80.7759871401942,71.7242180721767,89.5376222024275,72.2946409386734,72.7845819163894,61.4148184020357,51.8785132560502,62.4424485666329,56.0547267109491,43.4742564166574,49.9186894013653,42.7531879056873,40.2597238851639,40.6731763836124,36.0436597457634,26.7676467330027,32.4661268072702,35.6105474156193,33.9725930509245,37.0361538948164,26.929200264868,28.2087849713734,33.5515846809687,32.1787569172429,30.9316162402901,25.8498641422098,19.1759929305762,24.5548157498917,26.3843881264821,21.7505729924102,11.5003013180223,31.7641339408893,49.4957299142707,31.0530381871459,50.9278752128022,29.3258777860134,51.6516088043144,58.3301358208735,68.2586191218849,49.8592821210192,63.6948243693601,36.6147296371524,53.0948539464141,70.3322962181665,78.5882865165317,49.047688204343,79.418331172654
32.3503513449695,49.357076078305,32.2910431652743,52.4209033531897,74.7359177124505,53.2214022134098,51.2853866498818,63.692485119893,50.8895551541071,42.7752172928917,63.5639445336298,58.7568876365908,34.7234132346018,5.32248399628422,76.8847249339159,22.1454436161346,102.272401449257,88.498796958375,82.1320527028885,96.4787778343283,86.4038301434875,76.5548262466523,74.9918727444573,64.0345385089423,64.2262197700817,64.1239311235745,43.7869234797814,50.0899161036416,53.6293913816756,43.2476670192035,42.8546216885905,42.9201082059645,38.7607399086085,35.0407178192343,40.5389382504397,39.1704432323071,40.7878867723931,33.1312549598975,33.7605466667133,43.2259505691041,42.1333235950867,29.5779982946808,29.8580973524715,22.2702676831345,33.1997419520943,14.4203229064406,-13.5368659972987,-1.72372700884621,2.79685038961471,-14.2414914774893,14.9352377207591,4.7612095521992,18.2768663148281,33.5071610495973,22.5437324913636,6.49222441757006,36.4306390753336,24.5814618489128,24.9382357319504,28.9066824799137,29.9913313436179,29.8318103222585,28.5771618490342,41.8821415531789
25.3031892625537,35.5093290256639,36.9295611357076,48.7137083563945,60.296457443448,63.4904729312175,50.767489232874,48.7502102084911,55.2714009760915,35.0299316909765,38.6064361110639,60.8703750464291,22.6030443578822,-21.8252125337757,51.6475506484783,5.14749919485612,85.5279029373778,73.4619172705783,59.9911153359092,76.3547282484457,71.0645331731631,56.9426446650286,56.6102176685675,49.0194823214454,38.0506340029712,41.0948476774152,25.2270583371574,25.8043342396575,31.1311173800909,23.9532745773394,20.4300391049803,21.5322075120305,18.4816471076256,21.1563294238365,25.0594611364402,19.634051238135,11.0800504894777,8.16639780975668,20.9022724336541,24.2543575026737,24.4392852688114,7.54862249085395,15.2548634465039,4.28501024421522,10.935613980996,12.6308380497962,-48.8432043777036,-5.56708406109553,-34.175656573416,-90.3301540350785,3.37978206804248,-46.4829848377763,10.1115059287407,15.598597989931,-16.8768811372629,-60.9497177621414,21.9745681108847,-19.9453495894851,15.6710513784011,5.67429790678404,-4.77939348628471,-14.1583256468289,8.49724740636363,1.77767552918026
-12.9314997818035,-11.040605341014,0.867859061158761,-2.36104732317656,-8.76780020550618,25.9809971600142,-0.438307506898004,-15.4324702911366,10.429983463936,-27.2104442132369,-46.6888993710504,23.7408330533057,-31.0803667627697,-94.5892885792539,21.2413816444554,-8.83458271267464,72.3535302051444,59.908624249804,37.9075886267714,57.7836717704582,48.7096738689381,37.5976149600887,31.4757710472,24.9154502057049,15.8797147205715,11.6413055812355,6.16210770472427,-0.87030082702285,-4.62917701250689,-3.631100337346,-7.47869697556072,-8.22302959345851,-18.4038753725477,-1.31204862150711,1.30052147289623,-7.45401793730317,-23.2483227547635,-24.5814208697501,0.238942330723457,-4.03367280481371,-6.4163308061615,-21.6725694461447,-11.0452866225493,-19.4046973332648,-22.420650607568,13.8078476801762,-68.5446594857725,-9.43734103270659,-65.6697748641278,-144.301258326827,-4.25425480414786,-90.1885433952087,-2.49320960850871,-8.6906861443082,-59.3099030893178,-104.848275721863,-3.07658200781175,-66.7327863398471,-3.53023366964761,-23.8261682864163,-38.505894871362,-53.993241062675,-18.4235060313688,-43.0772683578754
-58.168662085582,-69.3990615102252,-50.6986539001298,-66.8228179477269,-83.8633828015068,-29.6079565814576,-65.4937004510023,-90.350071309367,-44.0850066615888,-94.1842439300683,-137.40180643338,-21.6520714469907,-71.9022915828124,-148.505030921773,4.61067267206334,19.7185655898561,59.5284160287461,63.7941913039483,50.4754099068145,54.1159391319979,48.5094697586884,29.958819526163,23.6575606410569,18.4694632772309,14.1393456143123,2.55073979010411,0.505104162897082,-9.81434769754786,-17.3877226279471,-15.4848227582664,-14.4775096547698,-22.9335612275673,-36.6549863162337,-14.0736965341259,-11.2855225738338,-18.6121600036093,-33.8429707649007,-35.6358853030538,-9.0480676868793,-16.130289291718,-20.5335482331416,-35.9698142217584,-28.9934910187357,-29.3907329857832,-38.8336385292507,3.57826803980867,-65.0955323052799,-17.3058269126599,-74.0048998022227,-141.358694714737,-14.7357219682996,-103.340097701187,-15.4834914358727,-32.2723073505263,-81.8257195980883,-103.938057272239,-28.3168530428916,-87.2994191144694,-24.9270126718216,-47.1491827244795,-63.4731574542858,-80.220692931145,-43.1890885260638,-75.4513846788862
-84.5895099746673,-104.31469396925,-79.7281408778049,-99.2473045304754,-118.186687273759,-65.6032768979483,-95.406993134622,-127.456829803365,-68.3953591147027,-113.845653844684,-169.594507291213,-50.4033492741116,-75.3720378089696,-132.364757263479,-16.6994134271411,35.6705787803194,12.1530638256721,46.0218231004863,51.3476915559895,27.7585285064705,37.075949422939,4.43937793871574,5.73252943635231,9.22179370036722,-0.622982603782921,-8.71216586766083,-13.4306311265539,-24.3901953330617,-24.7079260267613,-27.7442036534441,-22.5046939173615,-35.2320067400991,-43.3160740023976,-31.092862370991,-28.6547155910712,-29.4403061632199,-39.3159966094615,-39.6703932620145,-24.8422187739019,-30.6869011729428,-30.2382221098705,-42.8526936297441,-44.0880991378898,-35.0698875169783,-47.0922913942476,-21.4874602804954,-40.8566639391827,-25.2692046308342,-54.5142356130417,-86.1586778709091,-32.5385657261255,-76.0552556344394,-34.7449495120511,-45.8904857688143,-71.8629879254144,-67.2160499290646,-45.1786947926009,-72.4648592730593,-46.3636526823817,-56.4538116771723,-72.373667952539,-81.6858669637363,-61.8907184150118,-84.8264087832729
-99.9185016192626,-110.372078094607,-89.2954312306225,-103.714937509143,-112.822279385779,-88.5923633013187,-97.536305609242,-116.335949996107,-79.5644984060701,-100.222024774387,-129.813213798242,-81.0293164414259,-78.7890298944,-73.0006495598909,-78.5620079564052,-39.3030854389723,-81.9502371345743,-41.6525997316214,-33.1714615624553,-50.3444516848403,-37.1272790338994,-54.1682171583028,-49.4241968351086,-36.527952173592,-48.3918235836191,-49.5792221503648,-51.1015117670467,-61.6471479103008,-55.2692652556563,-59.821483639208,-54.6836608109767,-55.9163284222279,-56.5572616334561,-63.1691136910364,-61.1619887682182,-54.06413126302,-55.4302019557509,-48.6285299108307,-58.5335815826759,-59.5394499044814,-50.87291740139,-54.2512400640675,-63.0600355887308,-43.4547099406824,-54.3632898432408,-50.1543419851608,-10.6732828992422,-38.0874024127047,-29.7888009894671,-26.3196963722026,-59.6487510392017,-40.2006765445979,-71.2568590356116,-63.4859025993566,-59.4165172250579,-37.0922555896817,-70.2840372379165,-58.0751876979545,-80.6176661033069,-75.0553749815025,-79.9905191990131,-75.019015056262,-84.465255175347,-89.9164227352838
-117.22278208557,-106.131393778525,-105.367987129048,-107.79156095074,-87.7329930757222,-119.482593379643,-107.873797890276,-85.4001597328451,-108.312536844631,-96.9314536936741,-59.3085992595604,-131.999524070309,-111.870531816765,-36.4955048199758,-171.949726176731,-172.348213230096,-189.772464559021,-174.421735710344,-187.465263321273,-155.217988411658,-155.23608680467,-127.055456383989,-126.056073594699,-113.226330827659,-107.835573713841,-109.03611538311,-99.2371129784736,-104.556836273502,-97.2060931786865,-101.285353340147,-93.7663828029362,-77.0021683639532,-68.8215916870787,-97.0750940017435,-93.6057875524934,-81.9878256485812,-72.2118821882663,-53.687909781011,-90.9928545576261,-84.4283539975899,-70.4414638789324,-63.8963619976356,-79.6690010416899,-46.5910563241181,-54.4148257824727,-80.8332430634217,3.20944605314333,-69.3174219241294,-32.0377613030444,1.54595229016815,-101.985082560984,-37.9960927800078,-120.116907720455,-104.34906404249,-77.9734381267489,-45.4864806651832,-117.103508605155,-78.4859459093155,-128.349744436882,-120.328112492618,-105.050152494144,-85.4635041159085,-116.263820646275,-109.737328449252
-131.871639252002,-104.641604136529,-132.005087302647,-118.717412062231,-65.8691801826557,-153.646449273549,-133.86033527476,-75.1568795336935,-147.547792150049,-119.50976268455,-27.6840366143262,-178.773332081731,-154.213981040674,-57.8028935190378,-231.059717918258,-241.56913098479,-258.443868241334,-257.907625576239,-289.154017897885,-227.290337476326,-231.81222554244,-183.312330082916,-181.515324452747,-171.680954159844,-147.21084004155,-149.623425202119,-133.321843420096,-131.454014735633,-120.035466418376,-128.606608103586,-113.002100824654,-89.5138801762911,-71.1308446918921,-117.399088273723,-111.662985274051,-98.5171247911117,-78.9716976150363,-54.5337294552402,-107.145026370814,-93.9176797441149,-80.3119964853717,-64.5033365435151,-86.05061147927,-44.3746012023574,-48.2517707531605,-112.97715864089,1.28751673149095,-105.828278699549,-54.7672393281306,10.0555780062664,-142.756529559543,-55.526471483716,-155.184248660383,-144.707154489267,-105.730641242838,-64.9019135782044,-153.461202774866,-108.504083916365,-160.413957508899,-156.450585060383,-128.640485174375,-100.386659622445,-140.633309154291,-127.797041097867
-138.542360425664,-112.227293405345,-150.386831898886,-132.118998289475,-75.2405475425258,-170.996635866459,-157.614855835754,-103.476753236382,-170.936820386826,-155.571446823025,-74.026438861702,-186.456493252021,-176.495952968051,-118.365557946884,-209.60701944979,-189.213208400404,-252.188177721458,-228.236386207284,-243.000012545926,-220.211830233149,-208.220487345511,-191.074970813863,-177.713989984396,-164.241063257429,-146.953885504898,-142.033079709046,-133.352667794834,-130.593149187175,-111.99164687331,-126.044251095414,-107.767175331741,-89.3072937202431,-69.46925238299,-115.386652603563,-109.919014080676,-95.930786761088,-75.5423069742784,-56.431387805871,-106.958887502885,-91.1123834930724,-84.2573659629565,-60.8540179961085,-83.6232224176855,-44.4233209906693,-43.4709421591939,-132.813800411181,-4.84339643132813,-117.852205349569,-65.8472623081425,16.1326881350987,-150.654827942475,-57.4779368337238,-159.580944150081,-148.678028947393,-108.433907164618,-60.1270169681383,-146.712702519164,-109.236263166475,-157.45765673108,-152.108131550028,-127.414399942431,-99.8600441970415,-145.063427047201,-126.834154040649
-141.064262942637,-132.593942614994,-145.615313722875,-145.458071165974,-119.6263648778,-157.653121071227,-163.796681559279,-148.799738932087,-166.267367489824,-181.388263753853,-158.318791614516,-157.307677171052,-170.598446448522,-161.763103085103,-137.319910539379,-79.7380654519525,-184.557597668435,-123.037841251406,-102.058014753645,-144.966073794683,-115.465463067756,-141.767334692321,-116.141424152031,-98.3583211536119,-110.264781681161,-93.9411035160928,-97.3252794451393,-100.361816474653,-82.3497735548944,-94.6665803817968,-84.1959728914724,-74.4988287538667,-62.2981798410152,-89.9639077439537,-87.8350380298441,-75.2518242078803,-63.6171944137992,-53.237393346419,-89.4216242502517,-75.3749772565863,-78.2567745950055,-55.8118202459569,-78.7861423754571,-43.5325460326736,-42.3028614013486,-133.778376778701,-23.7022501224131,-108.401377825617,-62.8010064848394,7.11949001985297,-132.853363978628,-56.287060474317,-147.659522993187,-131.372590981759,-100.388602845304,-49.6646069262221,-123.779822012398,-97.0713987622257,-141.066180398671,-139.44961521581,-122.682633392174,-99.4458372611089,-144.415259397976,-124.615664416713
-138.429869509263,-153.318672617854,-120.764432243953,-150.473633176367,-161.068581113476,-118.933386004105,-148.191708053289,-172.549797415374,-135.391074499951,-172.12650157091,-201.061102587539,-116.763747779055,-139.127853826711,-142.78928608708,-79.0726084569384,-13.3464485555572,-113.32498216096,-37.9011741698106,-6.60122490621887,-69.1518561528579,-38.7431022777763,-75.3721263496654,-49.5280870496832,-35.7109862917087,-67.0804953203491,-47.7445021422986,-52.5741006220771,-61.0439433162234,-50.6555530576668,-56.508368363624,-54.2445621000334,-52.4401612038562,-46.87113357889,-56.2976210664306,-60.3315488083969,-50.897336239356,-47.3590113639703,-43.1566513491713,-61.3075976950034,-51.5763781856195,-61.413133327124,-48.0913734724251,-73.4320023520397,-39.3829306373395,-43.0236838387363,-131.500033907594,-66.0874280386937,-110.187271736702,-73.7595624261591,-28.4141726674561,-127.804471294123,-79.1035460051692,-141.301310430808,-130.883084592939,-110.994297110966,-62.4207093983291,-126.046280326547,-106.712901235963,-136.906118880154,-150.05577374714,-136.661224148442,-115.179820067811,-152.736897459007,-138.723713443494
-122.66113866797,-151.635525968567,-91.9994932883066,-138.824489537013,-161.507155220524,-81.1158370668056,-119.627666420484,-156.897502547255,-92.9037107854515,-129.862187398007,-167.745532289466,-83.116658894746,-99.3779425491867,-77.1254857134593,-65.6273863177481,-40.4886524144517,-85.6829078288686,-31.876989854059,-33.0152863070238,-50.667734273575,-35.6332838167167,-47.4668953790771,-32.0152324523888,-26.5759461813596,-50.4250301739335,-39.1972713398064,-33.8377256845255,-42.978593664285,-37.7511238549524,-38.5588447163014,-39.6041236236906,-40.9802042250623,-39.1849419576922,-36.8631148665083,-49.1963382509797,-41.2448179375605,-40.0368687971289,-40.8297718445643,-43.2424033246179,-40.0730067798921,-51.005828156304,-44.6387556000694,-70.4452941473156,-44.0507210585869,-47.4308031897178,-140.949896128729,-125.152524621714,-134.436578938776,-113.329197574765,-88.9883587945652,-143.780727066218,-122.054364471438,-140.179205594886,-147.646517157103,-138.883136464334,-99.1598158479122,-144.79060078721,-138.407446443101,-137.28298911902,-161.705625934109,-154.077175780258,-138.143592226076,-157.507797050808,-158.556746695998
-96.1723669403079,-125.454457492555,-72.7693324559658,-115.349127933102,-127.23671054527,-65.1622018758855,-93.2390113088026,-116.65346174438,-64.6982515444881,-86.8854489004513,-91.2515400395856,-66.2895247807862,-74.8184035226983,-15.8635350333409,-76.5219251116985,-124.818692319732,-98.9985865497639,-84.633941032135,-133.663175148881,-82.2523307257275,-91.6326240930855,-70.0135577882618,-63.7112492495021,-62.3964219287527,-64.9071654914222,-65.5105399608896,-45.1938535537899,-53.8026249917628,-51.7006478441208,-47.2903890536395,-50.3700312782009,-50.0315075242232,-51.8141559324678,-40.6632586812936,-57.6858932819807,-50.3236907387817,-53.4000265975613,-56.3179454234867,-47.1063148459259,-52.773363726112,-58.8845802117827,-54.9489734719023,-76.8055868537121,-62.6713636220454,-59.9111312327804,-151.422161624436,-181.678424859263,-152.092991994843,-157.734473169242,-161.489261970327,-149.054993719167,-164.504398265757,-128.338519430124,-153.426061314854,-160.976927415055,-147.761690381374,-144.11077660687,-169.310836817618,-122.180633817478,-149.473221039143,-157.841139190602,-154.765236921707,-141.277899429748,-165.579975441357
-73.9093281739528,-98.9796236572166,-64.9541398609803,-94.0521538948873,-94.1667032837654,-66.5097417347976,-76.3227510463588,-82.038702079131,-60.5517756594282,-62.7309721247831,-30.5886264170626,-64.2083454677446,-63.6303794223967,14.7619616830144,-73.4377151671018,-164.160173069656,-117.699903976046,-127.27798878408,-192.847593226245,-115.230028008082,-139.221338401052,-104.865930057609,-99.3328791645518,-98.5286516121951,-85.9248117342967,-95.0061797881655,-62.3095379705945,-73.9932638391411,-76.8577033908493,-65.8636849450775,-70.562908852039,-68.2811275843679,-72.1757174369706,-56.0962553037207,-71.8036758709358,-65.4382355276986,-78.6877082268589,-78.7054942241991,-62.4063863016147,-73.4554015853415,-73.4927045263637,-74.8405870623989,-89.6385629195713,-81.0941502138112,-78.9076770352784,-139.638716007443,-198.943657580874,-134.036964789535,-161.866643912078,-193.979355520991,-121.026915346035,-170.233707593052,-99.8239935553017,-130.466759523466,-149.559888848653,-166.44123900843,-114.633498431634,-161.219617174852,-92.8450487497202,-118.742195297285,-138.855401091298,-139.168475413158,-110.723441271241,-142.988039693599
-61.1456715657405,-87.3264112070496,-59.032088338744,-81.3980001629877,-83.445581442826,-66.4633936462369,-64.8069202858512,-71.8371306152374,-59.6669809057724,-49.0121420192418,-20.6063531967541,-58.0042909199245,-47.6976236491815,19.2398734941927,-41.5140859596669,-109.552602676564,-110.920040863483,-113.098582657336,-151.902484454083,-115.476904034488,-128.201317722625,-111.812349651955,-100.55552913373,-103.878048377159,-90.2185968566106,-100.267847660053,-66.8828837184594,-81.7717552266535,-88.347884863176,-74.0982908406208,-79.3649898157335,-79.5157917866286,-81.4921988024082,-63.9734524278722,-80.2201655832813,-72.372244765281,-93.5284258817247,-91.0307525570741,-71.3682589957905,-81.1091699282389,-81.5302632247796,-88.5997035018912,-95.4910238948306,-87.1871571252517,-92.7344155295892,-99.6617634353123,-144.144272467621,-87.1902553086885,-105.004309127445,-132.542611152709,-74.6799650429955,-103.646870716714,-66.7636654823055,-85.0663114417233,-89.1973918670548,-103.64434951574,-77.6639410032637,-84.9248408727979,-66.0490127530709,-79.4792876277668,-83.5315280295804,-65.4383751851997,-82.7070223244135,-79.7724964223408
-47.2275137774032,-78.7029554603888,-42.1821533455367,-70.331959576706,-86.2571869669094,-50.1834537785675,-51.0999073500417,-76.7464483273472,-42.4514606897474,-37.5146689120296,-45.6865768753194,-33.8894540549087,-26.0877878674806,9.7638912546182,-0.91974966291659,-36.3141279804503,-78.2380683532341,-66.0479881187689,-79.7399606024748,-90.0737109665804,-83.2876813010654,-91.7379423634859,-75.5185765205841,-87.0799225112092,-80.3696142292047,-85.6702669672623,-62.0868855621399,-74.1785898460975,-82.4675093209954,-68.6847290185058,-75.8927829474864,-81.1992039170119,-78.6218947951755,-60.0432246140644,-82.0818786754417,-69.9313194898189,-90.85766300751,-90.5856467292636,-68.6599597251961,-77.8496132098944,-84.210888416464,-87.3243641372406,-89.8812488320629,-84.4275433301763,-90.8488950850304,-49.5906710741221,-51.1408689886051,-39.5330921509153,-25.6589906757381,-20.5364313470865,-39.3503191172804,-0.466586836464161,-42.5390425737923,-41.8492739643138,-9.83995716588531,3.75730741127509,-51.8066988958078,15.9190741607006,-47.3109666245103,-39.993514239509,-9.68693377030428,25.0248549425872,-54.8091437615843,-0.631101513069014
-25.7351102332512,-57.6939404962376,-17.7758377838741,-52.1960051470997,-77.8646896131399,-23.2173498285299,-31.6069320483018,-69.4493675800119,-16.2692782295507,-25.1891783581924,-58.4963447600802,-4.57713204153054,-6.77424542848721,6.07342602421722,19.9075035391311,-20.1927937031484,-44.7601135123063,-39.1713236476408,-58.1252014435113,-68.0663445705451,-59.5334311112369,-72.175612977839,-57.9637913223303,-73.7242494777641,-70.0258291225907,-73.2780468119713,-55.6094223283873,-63.0296939247369,-72.8972961697062,-60.8242519638902,-70.3346743024568,-75.6535232411901,-70.7807032405248,-53.942447516753,-76.6384753374952,-64.5232909131703,-80.2563345156039,-83.1982926102656,-58.5374875153391,-72.6761340501716,-80.7807844434828,-74.3254174618051,-77.8000073538643,-76.3206050726924,-75.6196502596599,-10.8733546471883,-6.37783458512535,-10.1082628331687,8.88079721857376,26.2248877983255,-22.8016428932283,44.476351546679,-23.0118488650694,-19.6499665677696,27.0066735986553,45.8154766409206,-30.8211429793773,55.5581050224665,-23.55288510544,-7.54752994850183,34.1084796702639,47.9484720188366,-16.2389948543993,42.9349691133588
-3.01913660000784,-23.1327713617623,-2.59877255518715,-26.8876566957599,-42.6442416674688,-8.24419203157559,-9.57191194254002,-37.6946603855933,1.47585170104203,-5.32049664892684,-35.3494998072377,6.70928675559552,14.6880649945029,24.7454397320137,18.5994968443744,-24.9678634410403,-25.1367506820874,-36.2424055872197,-58.454377159392,-57.1723628544748,-57.9006541246097,-60.7857213114407,-52.7814665901659,-63.7101354969317,-59.2739774714317,-63.2924217789421,-43.2493595457717,-51.7393580435284,-60.0914433273846,-54.4425482425683,-61.1309474203692,-58.8622895257574,-54.902252045828,-46.6110654202874,-57.5974420920444,-54.4337303378792,-62.1239129614895,-67.2089992062286,-42.1977069147204,-58.2501441629789,-61.1961172775617,-53.8571293791652,-57.7069770928789,-56.0878944018891,-55.3834169991602,13.0246029464973,-34.9784242063588,2.01146663574778,-17.377518444294,-28.625197502418,-8.74336524173455,0.105681764783608,4.29716973674954,-9.8506346684279,3.88419627661574,-13.0297522001515,-0.316698904168005,18.8820945723684,12.6573352995978,23.4413297146309,36.1186223230821,-4.3397618202395,25.9941083667752,37.5475252222512
16.0249983930755,14.4077238345423,4.12908639868423,1.49885375476904,4.43582242072469,-8.67099563512663,11.3708564659715,0.266202702726453,8.82898587313623,19.7849793098682,-0.337414339841072,2.17489897967053,38.5375230299013,53.9798045617638,16.4240484668579,3.44473401874947,-9.63719826399024,-25.4706102713917,-27.2795292767433,-43.2011873188882,-44.2320580997687,-46.3118232251813,-39.2850415286472,-41.2123379001615,-43.6795331968346,-40.5969773675364,-22.1996472406685,-32.9471255272268,-36.5576568815119,-42.2674952237761,-40.9810105019423,-32.2159790976233,-28.618740243071,-30.7147702025507,-29.0767702270965,-33.822773201168,-32.5670514634752,-38.7414429384079,-21.9267585977188,-29.456010368212,-28.0310107561877,-28.5012947853598,-28.407856273988,-23.7285964193309,-33.4818180890586,32.7692775244171,-68.8516976804725,13.1431075110997,-48.8347306926829,-101.48259202023,13.6648103041018,-63.5882337388397,36.8540614117619,5.91853889673455,-30.1350135989704,-96.2434143064831,32.7781420210476,-32.1768609064074,46.5351371102894,55.6780904359441,27.5026913649134,-57.118595906688,55.8830778233619,20.0201221550989
37.3316246290886,43.6530606163565,21.3278265258608,31.5444659127477,37.0715735013761,2.75810903254322,35.9725024598996,27.3242716985802,22.229295847374,43.5219696417986,23.0342446460538,10.9444949476891,55.9825926920793,74.5431911597646,21.8734529477367,40.0855848371721,5.20108720404897,-6.04859669510436,11.281895767709,-27.2140164008598,-19.554527764153,-32.7165165826661,-17.7852986838683,-13.9190120754616,-28.906150546077,-11.5711791919114,-3.18128853768009,-9.80111977012078,-11.227549249884,-23.1760523203462,-14.6365334168831,-6.68923548638227,-1.31394227781982,-8.01752576039659,-6.49888102640354,-7.06021283828886,-1.61741425712704,-3.34351295742331,-5.03939299468249,-0.842173687592775,1.16704755696508,-2.48385490788045,1.68736984778266,8.45352604528389,-7.72772531131416,56.8791092234704,-51.3131827188747,38.3207343193382,-33.3564177385215,-111.452197724866,39.5149135954312,-74.3019977684971,63.5983961958507,30.3005719429872,-25.4174686779952,-121.952956834369,54.2130193483624,-44.6982919686634,68.4938788492013,78.869121752763,31.0641616976796,-62.3498662798122,72.8619599660876,20.1604586551294
61.1394401439891,59.1535998949315,48.6029184665407,55.9670525596849,47.985176473097,37.567956269787,60.9126790369322,44.1623452680945,50.2573694454944,64.4699834146911,37.5951950322025,44.092537767538,70.1804128322365,83.5401551718986,19.9974540861554,48.5701096428451,7.57290598917391,2.75175231634388,23.5237979012621,-19.5064318889598,-5.07635491415501,-29.9007796266567,-6.59698576518767,0.977715609669325,-17.7219301053701,5.85260299657895,6.12927037014626,6.08752058413627,3.39634953198246,-5.14490451716264,6.89333750400909,13.3550618727946,20.7212928419784,11.1771730467035,7.79750905715039,14.4970358615336,22.8846603128946,26.8107272393492,6.19977289051758,16.2183606921728,20.7011603182118,22.3967072579377,26.8057219337519,34.5100592872315,22.4288585408447,89.0612667072253,9.81589979908829,79.3652023339991,25.1104088124727,-56.1412248589936,70.5255304820679,-27.4601340370386,87.3441331151867,61.0099429697186,19.7154393347702,-75.8048357060866,75.6327863333485,-11.9757534198004,91.7164975700663,95.4760453036778,50.0054421257058,-34.9734883638014,90.4072339418114,35.9333266557471
71.3083181052422,55.9993128420394,61.8924433112818,57.5010766893676,35.8779632951403,66.6479093728379,65.6863734180638,41.5932182209248,72.7203609078968,70.5686449588535,33.5422171699477,75.2534765069468,81.577643099705,72.918354446756,3.7784562241944,43.8081293584128,2.87688716570032,6.30945008082784,27.4814281848649,-12.1228904919344,4.50794268888421,-27.8654443789631,-5.23396715217245,6.60677428524867,-4.43471521182789,11.6271124613596,8.6844983937761,11.5335916449612,9.5851518286665,4.27096266547694,17.1538114521015,26.7752696406294,33.075270406958,18.350745520866,18.4514505384121,22.7808106724652,38.0333366702526,38.2818773184896,13.5691014173989,24.2570031989459,33.7181127337069,40.2942931278131,44.2619828073621,51.2807532155107,44.6057078739829,128.801976155805,93.6816003401252,129.223381807279,98.2471843427185,32.7286695260822,114.999602556022,43.9778290024318,118.16175884438,102.768860318406,77.9377592733136,5.66363696212443,116.609908866929,42.9973004925988,123.178389849854,121.368721505262,77.5281044938049,-0.508759373437632,114.803611746777,57.7192998404089
69.2531495718965,44.2175004741449,61.6327937576228,43.9114715265854,10.649360513825,74.5570337347989,58.0399826321543,23.729570772763,77.7714211987865,62.4304154287005,10.344035249675,88.1284807711259,83.9292876575054,46.7656250411204,-8.04896150048055,48.0136451378094,16.1732437671798,19.9585024481416,42.6360173070382,8.10930541353603,22.8058459557328,-11.7301511560621,3.57182284415585,13.8677848521712,11.205997952788,16.8779792667662,10.7970311736462,13.1519867506228,14.6959306206078,7.56952258154227,17.3438835391455,27.4845158686676,27.5631370600646,16.0819979158066,20.2600102250414,20.4176526278994,35.6984309921898,31.0725907417399,17.934860730421,25.8359142609046,37.4488691076358,41.4195754957549,51.5469562375002,52.6864382651635,46.0295206576303,168.180346848377,187.422680945182,178.767499389581,171.625907397715,133.159666455748,164.655761901299,119.190866058921,153.108114469753,152.674341714944,132.060044044972,86.1430021861831,166.334196440577,98.2346856492008,151.533555420297,156.280641930248,106.037683041648,40.7414296889593,139.097763879664,85.3855711503567
80.0109488010681,51.3260503428702,77.2681870690678,54.3699071304423,11.3946037367739,87.2810527004088,77.9148092795457,36.2164582059043,88.5550915552902,74.7581517034362,16.8609309742143,96.8722063729765,89.0534337815265,42.7624677656564,-1.87374519387114,51.685303157927,46.7938785786003,37.2246933461869,55.2589176410662,34.5476368833344,39.1450457653665,13.045147661871,21.189829516544,23.2653090574511,23.0031108428153,24.4008416588551,17.6970373826297,17.7676389210995,20.5222582924071,14.9750662368826,15.7286494832608,18.3035898960241,13.8042452046993,16.5551761068949,15.5392007410692,19.2662990847022,24.9967773954767,25.2251443479566,23.5659072194103,24.4160734215463,36.2808780899584,33.0103467084168,55.6311288795382,47.169881482993,39.5621525725919,193.904729686168,264.232085302902,213.584295971006,234.26356486801,222.076713319305,195.21166468805,184.309909889092,173.074764668246,188.500361885041,173.584945390345,147.333582457987,190.926222614003,142.455810879929,161.467481887107,174.931097773557,130.219355296138,90.7112584714793,148.767165251902,112.601249805736
100.719401656319,78.0755328698514,107.774609616556,94.6958106743445,52.9830883273426,112.078688568211,122.686284324932,92.6774748498469,112.208436288902,116.831301151367,76.1534837838078,101.147403889248,101.249878946386,69.9470396577624,4.72604806083887,38.4862459474067,62.0037624349798,39.2679643894682,49.2588924622196,46.4308976271226,36.2817233574343,28.586994586473,29.8483645259095,26.6460385189383,27.8681526150148,28.0368426598196,25.5214341818783,22.6400966265434,23.1781559355993,24.3428352359365,15.9168275414968,11.0276972066699,13.5040508005929,22.9163115860766,16.0938673933233,22.7329611750655,26.745960248598,31.4240882642609,31.5863990934111,24.3874278667802,38.3782368280271,30.8407515591238,63.7755555015571,47.7091237107153,42.8602911009188,194.342065079615,294.2306223327,216.068871070406,259.486707219262,262.288059756507,189.88020451856,207.004471233152,161.791513023524,184.101441738678,178.797150901083,165.376057227479,172.546050403876,152.577868895498,143.927916735778,151.980798723503,128.867547477054,117.90848097831,130.869340291012,113.430765751799
113.53055288886,104.254020621106,126.061063997092,132.169481023125,102.125891488816,124.201987202932,152.769831749569,149.6312704259,124.098568009341,155.189801549356,145.458644479862,89.5233981965803,103.998352600315,93.4271820036805,6.69452038652772,27.565426678541,62.0176737963598,34.8672362749383,43.8597882994245,48.1397929506023,32.3222252384691,41.3163702567324,33.9088939797777,28.6108033946377,38.7319753313513,34.1254547632007,37.4631521944148,30.8139610064177,29.5655370865944,34.4702745510373,23.085805221548,19.1778235099958,33.3857898122249,36.1396355352493,29.7294724466087,32.3571520032269,45.0585242266123,45.7261432711093,43.0878926271027,33.0200002472833,46.3000307554118,40.958530266295,77.1101773202496,57.0857874046396,55.0604714978381,177.493616616064,279.250063491392,195.087161831595,238.870201073274,244.532003866134,166.317396205772,180.316812237498,138.32070583006,151.099964849444,147.878448150977,140.382408494933,137.534628875072,123.514663580265,119.362456828543,107.367538411439,93.6281326576645,100.45071140293,102.380586336547,83.7831385464124
116.388717039158,118.861426462494,118.776177556822,143.938388291517,128.250019117674,104.727446111715,147.572796944928,172.210045563832,101.528417098721,159.359812296731,180.781794946662,59.8670170362374,82.6736897475242,86.7798670227099,22.656490479693,37.0616499027451,79.5737860976339,47.8640743657938,59.6147271502744,64.6118241082701,51.4668111901179,70.0479921310336,53.8890467126903,41.2406529166705,65.4100859872552,52.3553377584877,61.4669070899616,48.6851182493124,47.9336804945606,52.7530711248053,41.1866078207724,41.488517533281,57.1609935787097,56.0663706092341,50.1291999975026,49.6815925865781,63.6953580878047,61.9470284971168,56.3900800869813,49.76212551806,53.5273945052917,55.4130521229775,86.0881490388846,67.2696179630422,65.1769129042853,154.75136704043,234.666606255676,171.940949446368,194.787343990175,200.529022118737,147.960416323802,144.657303641805,129.340678642417,124.557151819326,119.532765655716,115.796507352428,119.351717876616,92.8495049174194,113.245596367319,83.1737936646443,56.8379970891721,69.2516230619425,91.3276133387029,54.5711666641685
87.5730964174502,98.0282181080488,72.9457999600174,109.827700349677,115.96532223088,44.1131512511479,92.0361669952761,139.978929857034,30.2566586637382,104.182776796568,156.647182469382,-2.01923003985653,16.5804174479032,29.1984774398848,33.6718333851008,21.946371120553,100.085742449969,59.0828223675506,61.2604389412997,83.0447507538257,62.1153707124298,91.5306451068287,69.692900504788,45.6283734372228,78.5415714374312,60.2318634743203,70.6668504285827,52.6235933897423,51.125982537504,57.0608862429955,43.5607958890876,43.2473961687491,52.2784701499111,53.4058199784916,46.5660468292014,47.0666220825219,52.5609651166986,57.9660591923213,47.8930509147027,44.0857951654588,36.7272692520884,47.2684777732358,63.6933076075564,54.218717562092,51.0203703666345,104.776889350435,149.477387201317,127.567584083844,127.694414434625,137.534250568494,112.659412003972,108.085373917097,109.124177654819,94.169723008226,93.5399832945757,99.5841764491715,99.2282256324251,69.0919322319431,99.7341670232326,67.1132719411094,31.9662041584852,44.3969653024538,79.0299254814327,29.39743396431
20.3722949062145,35.9932038897226,0.295809121956888,31.0771656883891,65.7355512693875,-28.1307957164589,-0.224350290917553,54.3306342436205,-59.9511786875618,-5.68866787664522,70.707593975686,-77.7887706397589,-85.2942271328181,-77.6365648431443,19.0843589432519,-41.6811125196784,88.3393938662654,45.471259705715,22.8039591054483,78.3261342360593,37.9073645130099,78.1592795319444,56.9734034617009,24.2219338133957,57.3462714897293,39.2785944184389,42.6787799406587,25.4724818851363,19.3363992702447,26.3439699673975,12.4585217981251,8.65319674789733,15.1177416081151,12.5473307559144,7.34572657013213,7.9038183597222,11.5996302393683,23.9493017670779,9.77552315804381,4.70329895295165,-4.54211269224281,11.9996070952216,10.7292419480966,15.9536544820841,9.82988316723145,21.1883766077081,33.4817933318218,48.8373949307467,38.3741127092864,51.3893736108917,46.0423412120112,46.860885864653,51.3917427340468,37.6958444751242,44.658873628615,61.5186950240984,51.4354101280595,26.8959564687174,52.5991201677833,28.5898912393962,2.52211998767708,10.0471916574302,41.0342741716377,-9.17781591358717
-29.7956646769471,-19.5554610297895,-41.3295892448317,-39.7761434392987,4.78225937235391,-49.34203969682,-63.1793259141024,-33.7614860946188,-95.159772973535,-105.352640294683,-35.7118323569766,-96.5664579432984,-150.051920798074,-174.076716398697,15.6850756704759,-82.5116602749793,63.2447073429418,38.6781638115356,-5.18425770216692,68.3029169115025,21.1419775023483,55.2528565431458,44.0640237985759,6.94466414114775,34.3371167738304,18.3584020223053,10.8376162465497,0.202845549997506,-9.99615644634803,-6.97026348970077,-16.3472882084863,-19.1206851076201,-10.4612349254138,-25.3361716420896,-27.4107458504399,-25.5421508829685,-13.7876287831657,-5.17956579635224,-21.0143253259498,-24.1756034911152,-28.6453625105701,-9.77205390569727,-25.7470752400951,-7.5632167441591,-16.9697256302133,-51.7578607988799,-51.4970735889915,-22.1012214709309,-28.1615164308617,-18.8710504708199,-11.2039421984184,-16.9951069812173,-8.83718794068431,-14.3036789176534,-3.83479365119912,11.4082010986527,2.42182216217594,-20.7450467061203,4.71881798752269,-9.37287949068989,-24.8562023344794,-32.0140515106219,4.460969791372,-44.6225880166815
-22.3267380799606,-30.420527384818,-21.0404009365224,-56.2891442143622,-34.6783093120328,-10.3787146827007,-58.9165236907289,-73.9712994670382,-54.803651055732,-131.930449301728,-107.756050044525,-36.8500556924507,-124.948636322163,-198.900270293058,49.2821902426875,-43.8625897727379,61.5580349482989,66.3309932267014,23.0864995409405,77.7077587809277,47.1956957127978,56.1210402614614,59.85457793233,25.2211593772676,41.1467057765853,30.8371419867709,11.3475556202172,12.048204589787,3.15311590237633,-1.54833061700623,-5.73567241787181,-1.23746440993219,8.83977737444416,-21.4981434989503,-19.8057142933313,-11.5885974283222,4.03022140011591,7.28916969759692,-13.1503713492278,-9.04655391200449,-9.16689340474805,8.47574083118324,-13.5157210198742,10.0807000326663,4.18909377564603,-82.6266693914606,-67.2712351047537,-50.4735638197273,-42.3881979871672,-39.6254289093243,-28.9992987021817,-40.1711821526025,-33.6490516576266,-26.6922374049953,-19.1741739905192,-15.7979147431939,-15.1778678547748,-38.6286203902926,-7.71073350949794,-11.7779545972147,-29.2954133363534,-57.4042732214536,-0.601397654480037,-47.249084545561
17.148589679837,-5.29873482106051,25.6903417644938,-27.9593886226217,-36.5630814908086,38.3821802168675,-20.2484273406145,-65.1927061710065,3.91554253141791,-91.2010323485509,-120.089564495406,40.617240464071,-48.9560012888009,-152.173241101782,97.2061422601764,39.3745142758087,88.8512943808127,108.171404067939,80.9363207356436,104.428458993598,94.5953586636893,80.6236700323181,92.9551645592398,69.4622455794726,72.5719135825596,71.1237087952672,38.44002286822,53.6794016609627,48.856012172146,41.2525661008372,36.5644895068279,45.245220786686,56.6742541374037,16.9829486224018,22.1228470122732,35.9445970374225,46.8493845062938,52.3769154266728,26.6147131089987,33.1516125466694,36.7148688194391,48.8585761800231,32.8411637104552,52.0962186546107,56.6190088176974,-76.8046064990256,-34.4602877376643,-41.2174970941183,-22.972552959569,-22.1384569385668,-19.1992224461929,-18.1133538066758,-27.6041975628665,-9.03391322676712,-4.72965734492424,-7.44827423898772,-5.54829446545141,-17.8214494157485,6.53710577965027,13.5179957250553,-6.82341942760257,-43.0792013227115,17.7944375236968,-11.9294091175997
51.6965667997121,32.706091160764,57.4527844821787,10.2391028673943,-9.13103623332983,62.7131292237501,12.2469163741739,-32.2366205841223,38.4392811451828,-31.4043384552257,-86.4397613901175,83.8009978726235,13.7012133183174,-68.165550601973,144.045374979094,112.770466981666,131.094169157924,142.93717911179,127.429138167306,133.720807049714,131.699060617048,110.428392452062,119.056533554665,110.027845372469,105.242312340379,107.09114379642,67.7012160936967,91.2238150202701,88.8106242589112,87.4961058395125,76.988884333804,78.6313683408488,91.7610004286771,60.0041606355078,64.0940182715104,76.2577412740136,82.1305980723154,89.0960331734383,70.0614188546417,69.5455901434775,74.0859366937553,81.589198581532,75.6813441736864,84.1943667884325,97.2109122010649,-44.751079945398,13.784868523043,-9.51960936087662,7.80209599212641,14.4072857523304,3.637608466129,21.7680228118166,-6.4164430823261,11.2868579127289,23.3435041044998,29.4905495387435,10.9355093143886,23.7677817493791,22.8814343500465,37.1572305915858,29.8243287120508,14.4935773525977,40.2021849624142,44.6952787675643
81.3627383181519,70.6902735819157,81.1994047467511,46.6734696149402,25.1591607862818,75.8188959614982,45.4956203320925,13.7572395350267,69.7100451402303,30.7776057065576,-29.2847787555362,107.291615663304,68.9863122881207,43.3545966556523,191.023830589382,164.190147621017,165.469118113125,171.739876336141,163.397682956268,149.674067741588,149.82645498181,126.749236284552,125.243686486572,129.417697405369,120.122301287114,118.247011428024,84.9092129112329,104.670117728126,103.528761300357,110.775280402033,96.8552349900656,87.0492940690212,99.0222621288376,85.691170261486,86.1164773506181,90.654850916436,96.8612526013538,99.1898831749263,96.506365207516,87.9791314911555,86.065786597001,97.3879753189448,93.9800683888196,90.3270169430302,106.171402703766,-0.426449527123445,58.6284543356687,26.5018333256297,43.0455746533825,64.3556804472871,35.8725029506445,56.7855169471932,27.7749803982564,25.6364669500821,50.007803644217,79.3974461381827,26.7958972735804,62.5898388170908,40.0924110547023,55.6349212307863,66.9512745588337,87.7868920519973,64.539996325417,102.47297093121
119.683890537904,105.336051084442,119.488307554903,93.3500480102202,61.7623278338275,105.310705553161,104.176760531525,79.981741561464,122.17566115359,117.285810116514,57.2576490349278,143.565398981026,156.100703599199,191.778737895258,214.21982308993,181.562718938788,161.898615044935,175.420901210492,182.984283683166,134.642032922058,143.055343141261,116.073670864285,111.300140894048,125.630017973257,111.70504574769,108.603048792388,88.5737302779647,102.363930249611,103.035268305168,112.047446947351,103.566978715288,88.9146695388424,98.3620180414879,92.9504044574402,94.3598766496755,89.8151734755202,101.804496411685,101.822986748108,106.675051391236,96.7028083911941,86.8034703213464,104.577452221505,98.9376127707629,83.4733894006762,100.104069824193,36.3966897776493,89.5768989903243,49.6437844031857,77.6855670580585,120.666052782568,67.3896615287543,85.129750335974,69.5277265205635,40.1988026630646,64.1549233847485,124.592903038507,45.8634767217215,91.5064178812651,68.8070833176033,83.6630915937711,98.4313540541256,144.281136000924,96.9318374628336,146.549165097852
156.882687466522,140.104224112698,160.166683671718,152.72994703571,119.42488150704,146.389249128601,176.939239733578,169.714998091791,175.01768226167,226.168191755997,190.306558249577,178.916159971548,252.647474638936,352.952134864233,177.174457604656,123.286409376353,103.544917409396,111.207461692473,133.719080584581,73.2221897737277,89.8837181419667,72.4428273018248,73.9394249322303,94.0814062295868,77.9697649934693,80.975158657233,75.281151775755,90.1013826903897,95.0595317118616,96.5772199265637,100.475928697925,90.3571094080677,100.853166322436,87.2349403029609,93.8322070033254,83.1026329777991,104.114048695073,108.788236202497,104.705445985401,98.4999409019277,89.9128636680454,105.976862935147,103.465102377637,78.5927389920524,97.4263093308884,56.6237743310382,102.532058801241,57.1864513748552,104.271497538701,166.751767383506,82.2185618211915,110.948437425707,95.473500601726,50.6384375966566,69.8687352054714,155.462816058902,60.740157986963,113.76076307634,96.2085701122507,107.484732918865,115.319735390717,174.204749737987,125.774497583911,166.663535415499
177.383785129047,179.150457928981,180.539312338425,206.043480998231,196.530017425043,169.240576909548,229.393499980491,260.748329026268,202.521179852936,313.192099631607,335.142941161536,183.76221969408,298.898411118702,459.630331124167,96.9581123916737,6.0393903151199,19.1946206984238,-5.86831457770161,9.3904126265027,-15.5611531937589,-3.97241682884678,11.1621861533922,15.8253498864735,38.3533281082727,27.9396598682502,38.8070511303566,45.8906713352468,63.1167882289979,76.6539136907701,67.8250395672515,82.7575058996759,84.8548200055731,100.2250689239,72.9271580983864,80.1300927006986,70.962755101517,100.238254250949,111.537432312822,91.6228847474507,89.9549208249785,87.9102069267023,102.793321168152,103.507894187545,77.1411863202817,99.6608329936455,66.2153362300248,98.9931576980499,56.6196243321448,114.20538424587,180.41638608368,83.3127580757529,122.832997892501,95.5658010521641,50.4269670163057,74.0553939838097,163.812393169227,61.9727834314105,119.237967336495,103.23622147454,104.224893697667,109.477233096049,179.340494974878,132.934529306987,164.20839474051
177.112472257786,200.657091204822,174.732720608861,220.005525961334,236.403250407824,160.851230044277,235.078780241785,294.429912023094,197.038931708543,324.379019055714,389.998872957309,162.343475321331,269.095374083404,440.603030338433,43.6887822528426,-66.716355275127,-26.2958135857472,-80.4560611978887,-85.4073704692355,-66.8665946895161,-68.9048560435318,-26.7272050875195,-26.6697560191051,-6.60645154852684,-4.61769411521847,10.3730958061466,21.2060138798173,37.612164713566,54.682141357025,44.105585186732,61.6114200552045,75.6966171555451,94.1683816818378,61.4429833599891,60.8097811891345,59.2027224554909,89.55961036687,103.677458476293,76.7570466795453,77.2673581708837,74.4567988279825,98.9484445448702,93.4562165395299,75.2436372166796,97.4414908769131,70.5207009130964,75.143447341913,54.1280893076921,98.0608340896953,142.290261242586,93.0411323506079,101.182685847246,96.1752690112239,57.0509069211387,71.5241463580719,134.804573540682,67.8946122316572,99.1462423590451,103.785055403898,95.699465814651,95.8248773803967,161.291676964227,125.023738950709,152.632707828571
147.993688769934,166.881316978754,139.102401183058,171.405158116691,183.39703360509,128.196785164699,180.92045549598,222.525195220926,147.553885178142,236.076348530531,291.388632078745,128.572382040538,172.334045878968,281.110343811912,53.6849502866007,-44.2982236505531,2.58265234671399,-47.9720786963405,-64.4569996850418,-36.1679483263053,-45.0387187351976,-11.1897899059853,-16.7334938852344,-5.54150795755164,5.69161293684886,20.4095584636093,20.8308644920971,38.9799652863239,44.056582632682,40.693306218698,53.1366034234158,64.898068591685,79.9945517478729,61.8205061292496,53.0240319043606,51.8881540809442,73.3625673066034,80.7651646587204,68.2976021192913,68.6037648685611,56.4261032274535,84.6029859473037,76.2327515946461,63.9282437681287,78.0427173281615,70.0455875467807,31.1683753571964,57.7793233309089,63.3411088727572,68.732230715731,120.354679228218,60.1968382312247,119.320560828376,93.5518711986211,71.0707733242629,83.4247134379139,103.370926529603,80.9768301829486,120.418302073248,116.355496371896,102.539731657544,136.898448520813,122.146018984085,142.917731268224
92.8817808476182,91.5467713372762,84.4466016222955,87.4788860376912,75.1802168269374,85.7205865468503,89.8142605003606,89.6862075338382,67.4155263101419,96.6014658195637,115.964862308465,86.1724325803993,48.9161656318854,67.8982123649851,92.6861711516811,12.5141715971366,77.409678540934,47.1594014559574,24.4263847939275,46.1244052720341,35.3434419561495,44.4135098145953,32.981784352913,32.9054118655302,44.0102450057497,52.7621109469837,41.3129427246275,61.4399630526518,49.3637074817393,51.9770696429162,56.3138441294111,51.8717331036203,56.8482646004307,70.1265021443964,61.816055019903,47.5301683872967,54.9392253238059,44.8668069252023,66.7681866054239,65.4219966878253,43.6606372634243,54.0107154382907,60.2711843677396,39.5414980619187,44.1997545403577,72.1411638923633,-7.40984437581369,72.2937216723675,43.4516419805973,16.7401069149712,146.022799276304,47.2544962541497,143.787506992173,144.030412357771,95.8319444443844,63.663051166991,148.518212268353,100.144647931068,136.533156012043,147.404534315584,128.362183455388,131.574477567825,123.074473844204,136.238601382922
44.5303166942019,40.9742402243551,44.7676340270313,31.9450106234392,9.30398553575776,54.5413658328655,21.1648063856653,3.3977684764135,11.564184180402,0.48639830336231,-0.248519573883897,48.1172582407109,-33.377335549048,-71.8689927103583,111.144575397327,42.6514249086384,140.682526593966,118.592783215199,88.2485557505039,115.191525503934,98.048527416152,100.442657785425,82.1244550424201,70.3062061966943,79.0256012157633,75.7060555252584,66.0173252197402,80.2015026418286,59.5070750626448,66.9022573571794,61.3576100705892,45.5759854096008,35.5049080856236,77.1495459992024,75.559100198495,47.3993672190429,41.2872829136286,16.464876793559,70.9191367290679,64.3747418006829,42.632809417059,27.6060524515247,50.74842710134,17.4385970048107,15.8929768615072,77.1059433428254,-23.2238078852251,79.1717305996038,48.614426526175,2.91557415192982,143.639508526221,64.0589028585682,133.709055856055,160.051262844426,126.564825303487,82.7654534599863,152.831659368176,134.251986661574,117.714988926637,143.08085387255,137.351102316161,135.845767478422,108.825492696501,127.038183995983
26.9517086013207,42.9751121817723,33.8869716238486,28.9967820748189,16.907150381316,40.7068752195509,6.55316784624032,3.60438444166518,5.93041534061201,-13.8249318361674,-15.1522069964515,26.2600967138188,-45.1628404690287,-100.402912201514,89.6843784382815,33.9753978421018,150.611396858694,125.039240329632,92.4213839396949,132.520556300789,108.912670371019,122.009101318772,99.7738115877716,76.659951870952,91.1661168610794,75.5805973894576,73.4554521987251,81.5585496341766,58.2303263286252,73.4265075449636,59.8289325506798,44.7890407161489,23.6363143938609,72.293266373735,76.0945310386495,46.5590157395503,31.6149423505151,9.33962697884264,69.5540264652631,56.031894445832,47.2293430792562,17.2016171966007,42.9208476459004,10.2889670120433,0.841528791076874,64.4869297300102,-41.9373731038339,53.1046974532273,34.2258618582203,-26.7229535984038,104.59683951791,52.0438652066991,85.7173115809622,118.550293860053,109.390651406206,74.3518884756677,102.373053830831,123.728504615036,67.0035507915405,99.219298504264,107.610687089393,113.636073936054,75.1012194088902,105.568961039016
26.1186181091943,59.7114544584552,28.5616567918431,41.2595457849582,47.5110178250315,25.9809660180773,16.7750105672568,35.5608052598742,13.315096597202,4.80149752161443,16.2670553181408,10.9587568032438,-26.3656028663629,-84.3006479164817,41.0473044295197,-12.8265390186658,106.744279374768,77.1906764276072,45.3673600453667,98.6597532330349,73.9335044158585,97.4516353494568,74.9219423246336,48.4753022480622,74.8149598645099,52.739317108689,50.0230491275301,62.2164799352829,40.2165237111899,57.038513619987,43.2048742970262,31.4898180592666,14.5635940474705,48.0208007677441,54.4671658836431,32.8828342617808,16.1854895815917,6.91262435863156,48.0110240925448,34.2347927354604,39.1449970621137,5.52757111410888,28.8621948459498,7.89338761737563,-11.8679836450776,27.6631393343772,-77.8698625645918,4.48674341834853,-22.6811288922579,-89.5162161978353,46.6647612000889,-3.01929837011184,31.5838989058469,53.1528575449242,45.2322031168963,15.3604611070604,37.9608656157588,66.0237929625364,22.722058917333,52.4526017209909,61.1807914815753,67.9132697848966,41.7939181958844,70.752361679653
23.9569779330383,64.0522002828326,12.6971524210519,39.1548132826472,64.7618967928106,4.14216652977501,17.5715277487894,49.5757224865475,3.46087739162144,6.19625882174463,38.8321627941255,-5.79822517419147,-14.1985329302305,-85.3142256240985,-1.35141697588606,-63.9556754149789,49.8822807236224,18.8966285499893,-12.0856416850808,45.7031474456332,24.7643693757422,48.7873050621727,29.6696012418083,10.0101049114395,42.1361192181228,19.2065086116549,10.5675114659261,28.9641687908,16.1196284118722,20.8721098763084,12.6013488743791,4.96902945492163,-1.12403128756353,12.9680452436123,22.5019562050564,7.63681366983125,-6.7298055583621,-10.2268407048886,12.2565206507633,6.88298697329287,13.688817240863,-14.6852667500899,8.49151602283404,-3.04271920195184,-27.282746633551,-6.97292646109051,-98.3482308128487,-29.2763996201455,-71.5740144520285,-125.862477526375,2.29747221023096,-42.6256975654876,2.93091755123785,14.575396738001,-2.55417841875266,-29.6980942063273,6.32631606439589,22.4128452386771,10.7538221092582,31.5620300739826,34.8785820507933,40.0371348621387,30.7988073503717,44.5668765548933
14.9030339694045,59.2188679300244,-9.06460027940544,26.5739957646871,64.2399174591548,-14.6499775176368,3.9573807609929,36.5764457177231,-15.4251644553055,-15.792636271086,19.544972331794,-18.7577647945839,-7.76550079648929,-113.960357739713,-15.4177214633946,-56.434228854784,17.8052413994768,-3.32855413991521,-16.4621849876971,12.3813755955754,4.14835407176285,11.9531933724699,0.762695999205875,-10.1093191111917,14.8069407383132,-5.31765073178486,-19.2997270666918,-3.03960737185109,-3.79112746843935,-13.39294696627,-17.4692303070216,-16.9635254584693,-26.898648577461,-17.9327874338583,-4.2188931269744,-17.5596326380612,-31.7957290551674,-38.1455473192193,-20.3816874028564,-18.5601934315349,-15.1791429801053,-32.4400691311097,-15.2346848918512,-22.6434082014224,-44.3548565491486,-23.5701812951068,-87.868871868551,-38.0443701122826,-76.0558738603001,-112.18303792936,-17.8556108061013,-42.0485720337853,-7.95058277240064,3.29948132193495,-10.7133998289906,-31.1965492442501,3.2683835686508,13.3188129881009,11.0231887459683,24.5281379630357,28.8944000193759,32.4713927850458,30.2569347404996,35.5822578138403
-26.2929958718337,14.7815504064872,-49.9741765982289,-17.3659683810573,9.94107406519365,-44.2381173564107,-38.7296312534552,-29.115444345607,-50.5575667708206,-73.7414641117752,-81.5641740831155,-40.9174747007883,-22.5042172120516,-178.648589547102,-21.4593965436361,8.1017290018027,0.342305070623463,5.44264900828138,36.5062043924095,0.177144901370592,13.5763760639905,-7.31892508022566,-10.5470383431804,-14.7600572726776,-3.94274439450387,-22.8011012478907,-42.1096222723515,-30.5406158888384,-27.6015793538008,-39.5942137664259,-43.3977169056644,-37.8215537210907,-64.8728354040477,-48.2600505493797,-32.3272131712639,-46.6866165619484,-63.9058788337736,-71.071624009913,-50.4814370836561,-49.8486111556091,-44.4369765004246,-58.0586802673311,-47.9498613846804,-50.5296637604066,-73.683548992022,-44.4944138095772,-79.759382137576,-53.1176479743195,-75.6248647679556,-102.251535415948,-44.208007081354,-49.5592047528438,-44.8582593802549,-30.4833476372137,-32.6529158159537,-48.6320551064006,-25.798698068341,-17.5496013788035,-26.7084618423504,-15.5887582553141,-5.54253808863202,-10.1975299699678,-8.84267826065204,-4.30209626422567
-116.757254417107,-97.4107211096876,-123.824403321813,-116.781517659415,-125.143275178653,-101.086170787659,-123.459122451059,-161.046056455796,-116.940075652764,-177.630328778248,-260.117254038124,-89.2092158656095,-81.7780804590787,-274.21040543373,-54.8225784569006,51.8061760954133,-30.6248335574055,0.528758836020227,74.6875737999071,-17.3636519745789,13.0518432179634,-28.6523006914083,-28.6038316645724,-28.1949969449498,-26.0300882383393,-50.7290766944979,-72.566669239591,-59.4783178965151,-64.8382488526098,-68.1886235652744,-73.7749168585056,-72.637898523278,-110.406767993607,-84.3662273416413,-69.9564103890279,-88.3495892594102,-103.038939313392,-109.04789647145,-85.7146729658229,-88.5980424455361,-80.1938579451931,-104.932764347372,-89.4941674993089,-85.0438717824273,-116.449133995986,-84.776521043014,-94.1662115955345,-92.6241554456487,-104.807525586361,-122.54958502636,-96.4926961824778,-92.2302307499074,-118.485214952443,-101.592319015821,-100.496268913495,-112.635522186898,-102.024511722168,-100.336073791536,-109.509969194247,-105.579297050481,-96.9956785729056,-110.708945310705,-99.7293842056705,-108.581897991392
-200.477641351824,-205.429088869658,-188.670686275454,-211.287047990408,-255.438525243082,-153.348811748102,-199.825313186076,-275.285447898735,-174.391848975694,-263.093309857194,-399.188098582374,-137.677911264264,-143.986072358985,-324.817225835037,-117.235025889867,31.9753173746864,-70.7616103824031,-34.2692197949699,51.7890001952408,-45.0605648598142,-13.163266359602,-54.134427404488,-54.9511609706988,-52.8088683622771,-50.8508786119217,-82.4159872736715,-97.9590266796744,-83.9942083986786,-99.3533874022832,-92.9706674072108,-100.218579217704,-105.049853934855,-141.691203984208,-110.431529790662,-97.820091089901,-125.321240253284,-127.070186451267,-136.56437750592,-112.653892121201,-114.840088883706,-109.091068782429,-143.671109101661,-118.658077046005,-109.908707287382,-144.080793580731,-120.404810234924,-107.692078430897,-128.512835643736,-132.828663367563,-130.923652438067,-141.537784141539,-128.541637573218,-175.333745301722,-155.897041692645,-164.148066884712,-161.552681871285,-168.98672168167,-178.979125477348,-175.787645611502,-186.702135511775,-190.303316419015,-201.345857195617,-178.598296996059,-211.170154073369
-207.770399848954,-211.461414598951,-189.454907540028,-209.989599383519,-255.897624955101,-160.172696407446,-195.770330077565,-259.694932818041,-166.777908041122,-239.896558032865,-360.533098363203,-146.923141862117,-136.017563021405,-244.266197448914,-186.949380888851,-12.0579095355653,-107.51106624628,-88.8623560274161,-7.1709420991626,-76.149110047153,-50.2234983287848,-75.6962627066306,-78.7971265615769,-71.2612239803425,-71.0614067645819,-98.6873689683747,-101.576910321321,-95.7329086773787,-108.400141095677,-100.2622781144,-104.899659574631,-108.5988693839,-138.147363977542,-113.410921774522,-97.8640688790626,-133.358630658122,-121.939848959504,-135.311497895298,-115.479385320991,-115.972569826401,-111.647823811018,-139.911841659611,-119.052870699844,-110.607949173581,-137.130947052863,-133.656490187225,-107.51656346199,-137.756541527645,-131.55068561235,-109.595367658937,-151.550361085609,-130.987746311426,-181.55950418945,-158.610026956187,-177.619610353573,-153.299653571746,-183.536324042594,-201.094279922512,-190.088062750726,-207.133456659358,-220.832817065858,-215.590494013542,-197.11507000596,-236.36623198832
-155.433155228177,-132.231978979786,-138.588116260587,-120.860841838856,-132.177223735256,-127.296926623692,-114.167208800797,-121.746393153186,-104.401281913274,-112.868377317796,-153.021071327862,-117.930560349998,-54.481144918697,-54.7382466284429,-247.015406092593,-29.3820239750974,-150.182113207301,-157.815872263816,-62.5340231373865,-118.607052952504,-91.6756977901994,-97.9933399455616,-102.808897667006,-78.445746259025,-87.2692046926824,-98.5319807403389,-95.725744267202,-96.2825923437389,-94.1026916525866,-93.5895512051566,-87.7277978744044,-87.4703360657873,-103.528501634168,-102.013452491472,-80.6857354553444,-111.880341003365,-96.5242749296491,-104.424239076354,-101.844038850072,-99.8419691931854,-89.9925135567041,-102.000508629234,-98.6687565303347,-91.5635149490978,-106.534081528526,-135.893500287808,-107.869684539585,-134.709486455478,-120.283769952577,-93.5844986092232,-146.908629807103,-123.380935951544,-168.780132343882,-141.269997989609,-161.991021306603,-125.370548712309,-174.815803815596,-182.94190007895,-188.657793596597,-196.350356427088,-204.153602543212,-172.765333576132,-188.248308060217,-206.725952773216
-107.045621988582,-57.8947339725881,-90.16069679903,-34.1424250252979,-5.59709789096989,-85.6585349085173,-29.4881041629776,19.1787097382595,-45.1631369375586,17.363930077833,62.665260754556,-83.6444209895811,28.0088105425224,115.555826913814,-281.619168073753,-26.9217122094134,-199.714237742137,-221.31608234471,-100.793623246974,-169.083819297568,-134.643840198153,-121.292435589452,-127.234144429769,-84.2631030778371,-99.6660829521208,-94.1792961491883,-96.27812586191,-89.6167262894014,-75.1014464415022,-80.9931664562176,-63.2386755095091,-59.9419684186549,-58.4520859289115,-86.0261788720836,-64.7671857116854,-76.3740761104832,-61.1015636886336,-56.8000111627709,-85.5396381209999,-76.1371985421856,-59.7891735029403,-57.4353575999502,-70.580704902068,-65.488569552237,-64.0398039203543,-131.034087001407,-97.0967625903854,-126.510679692548,-107.241220921021,-79.7834994234142,-141.932465812386,-104.532389957333,-160.726515995527,-127.45986698307,-136.645891900286,-93.3986869767328,-169.107360724526,-143.813824855219,-193.242948811729,-191.79126394055,-177.006429651925,-111.790907261922,-188.973699815727,-169.62212583023
-86.3796768676949,-31.7763280145736,-68.4842925346034,-6.69891413474619,39.5457103821273,-57.689902666423,-3.39587931773625,68.1620085574073,-25.3312221338492,62.5834583390694,142.795891324963,-69.4022547110666,47.7685099145319,155.429425695985,-275.622210280944,-41.3375126266107,-223.710652583413,-238.584495997329,-117.704976199227,-193.015150075138,-154.380112483606,-126.263279922522,-134.844740891898,-88.7145393995023,-99.2315346893426,-90.3560542478489,-93.6855726272419,-74.8631588880598,-58.798047125549,-61.4016023672291,-39.6694864557125,-33.1910768778469,-22.6973592440406,-65.9161762166062,-51.2667461674341,-42.1022287797309,-23.9700361977668,-14.2840515855031,-66.9402601924564,-50.7959086013908,-31.5149714960608,-20.984728996454,-40.0972254127811,-40.7820706834597,-17.3584503961567,-110.226873108234,-49.2029270914056,-99.3593469121514,-71.8266068952121,-25.9556962775608,-121.376808168686,-46.0158945211609,-140.827135957451,-100.26411392357,-87.8749498264476,-25.5319861555815,-148.70732058426,-75.7989150433961,-178.329979018287,-178.951661998112,-135.581660199043,-37.7880174213319,-182.937840957674,-123.844144655905
-84.4002898993028,-42.3038021012027,-68.2475988875456,-27.1287950251625,11.6276562813751,-55.6526151937207,-32.7453083918102,29.4440185117102,-40.8597476241056,21.6730579352708,87.060149670712,-77.8179900943014,7.54424927527758,72.8595310736171,-231.429079989561,-69.1380106826831,-192.008812512691,-193.14747881328,-106.805401924918,-159.632826117012,-125.978072077668,-94.8972119616363,-108.266984769062,-75.8969079228856,-74.8479769419182,-75.3322646492065,-71.615772253266,-49.809089577415,-38.7333285866375,-35.5931511143087,-17.8302431431381,-13.8998250404685,-8.09084180119311,-42.9383054101117,-31.9401765455645,-18.7918563029306,-1.01605960505056,3.21825171635317,-43.7194089918597,-28.8891290600874,-12.4930724544739,0.272835596380781,-17.9250648436263,-23.1385499998866,11.1189241618281,-85.1642010729153,1.21606127108697,-67.2403070893791,-32.4514697573746,38.8157785826295,-93.3962541687881,17.226020190031,-113.385922320744,-66.6826709359199,-39.6851344032489,46.4858663725967,-117.718722970617,-12.9341859098715,-146.304402415081,-153.276148428725,-93.6727666077509,17.8108894216912,-161.589846517166,-83.2311001489954
-100.158359988789,-71.6076970257699,-88.9190684055044,-65.4166584079001,-40.1131163830606,-83.3967243381194,-78.7052638480051,-36.8946236243869,-76.9803962129968,-48.2124428057593,-7.5276936167864,-107.415306354649,-55.777846851227,-34.720000538603,-177.325061035494,-89.6705068460299,-127.766581334729,-127.29831139449,-84.7135813448402,-91.3751775499406,-74.8137401173847,-42.9084605094858,-61.6675933735533,-49.5979819614039,-37.9156511854927,-48.8929983627908,-40.9351822259567,-25.8759591183046,-21.592580485726,-17.5462127318627,-9.82161165370409,-15.6728681414513,-17.0897355205258,-26.1821251674047,-16.5221640374344,-11.7594670019494,-8.67884829385949,-10.4030283807365,-26.7429164085333,-18.525637930722,-14.9996318988796,-6.64445939960498,-22.4332481189646,-24.1918143362243,-2.33809618100111,-87.2181974136969,-19.0026476546027,-74.6517026882638,-48.4063403477735,24.4333518210513,-98.0618407118028,6.40468127689759,-117.876459444626,-72.1183402154337,-53.0850249473765,32.127770419185,-122.345983768562,-23.7776997702147,-143.130227806633,-152.19662446666,-100.213647872905,-0.517681314203049,-161.006253197319,-93.1179385453341
-125.371237290026,-95.6090008536536,-121.466878652591,-95.8412288944487,-67.6962003000738,-123.435014954755,-111.561567077995,-79.2914828878037,-120.17461354854,-98.4905048618299,-62.3084360881605,-153.163031939568,-115.294655806232,-92.9340497532713,-142.524454275805,-113.889467604137,-78.3046202834583,-94.7557368612812,-80.9293857365779,-41.4837711416775,-51.0546138694289,-3.02269469352815,-28.6352530493161,-36.3667547393777,-16.9113325530349,-34.6409338413455,-23.6241935310014,-17.5872897156136,-21.5238558979829,-15.633232851831,-21.3609230618893,-35.0721972283402,-35.8895972064693,-20.1180803879515,-18.4426552697164,-16.806933285008,-38.2895020249523,-39.5425418202572,-24.3399247862769,-24.2289582484341,-36.5041970641187,-38.4970330082344,-47.9910863098398,-46.8426365311201,-43.504548100139,-119.08928922466,-104.690369069724,-124.836027958822,-120.456556891167,-71.70226310377,-139.720762824088,-73.9229171560754,-155.774668636941,-120.762946353653,-119.662739641191,-65.4949036550025,-168.894096874781,-96.2369285093447,-175.841993160539,-185.433138497302,-147.614951308509,-69.5481039983194,-190.067938173887,-140.432795575637
-131.114860119853,-89.2212388686405,-137.006596705412,-98.4043122948402,-53.5950263387712,-144.4780934083,-121.941736547851,-84.0402055785588,-148.07255172118,-117.384632462947,-66.910936545598,-190.322729711252,-151.929923118505,-102.861004220809,-128.959507411132,-146.629223562772,-53.2016389632004,-94.7338638418156,-94.6707901869269,-26.0429424431269,-58.5567902572541,15.0328281535639,-19.1803183120039,-40.3997405921116,-16.6401340211493,-39.9085033169342,-17.5055036651828,-17.9070272135825,-28.9977225037794,-16.7597490421525,-30.1284606121987,-48.2736334116836,-43.2780300953868,-15.9577771836796,-23.7885924367346,-19.9712374117172,-56.9397235155381,-55.597270545525,-25.7743651488209,-34.3684662876413,-50.9415371274188,-61.8204553674788,-62.1864992493417,-68.3662646102994,-68.0653577275798,-142.655669264595,-166.527798771077,-162.293910885452,-173.175693474302,-144.143221784731,-170.472527247098,-127.77984062616,-175.573679772485,-153.646489629843,-153.998848936479,-130.73211703295,-200.376214817022,-135.100635278983,-193.568930856396,-204.242836603622,-162.581912070256,-95.8365812529706,-200.920889642622,-152.370487233749
-112.495383772913,-68.4963680760603,-128.488676754007,-85.7942085178206,-32.3188879188165,-140.549328856326,-123.040424603735,-79.8500793332044,-149.542214122791,-124.392870865552,-61.2196123140513,-193.529395600336,-162.106363791809,-102.941106171507,-125.883930073118,-163.183004440461,-42.2571322586286,-95.8131117803155,-105.46045920192,-26.4297931494287,-67.4260335910971,15.5900792563263,-24.003228089288,-45.2801558325022,-22.3399771085779,-47.1145136411624,-15.4523818047455,-17.0225272092688,-33.4553041905699,-14.2050442037798,-25.5898601940933,-48.354278587728,-40.0086410386715,-12.5821828357174,-19.6340904001861,-18.1372079829299,-53.3296192205924,-52.385254467659,-24.6838162653411,-38.2185546006327,-48.1129488300302,-60.382615710759,-57.1024519347978,-71.3879826028827,-62.8893828126909,-137.032845901271,-166.045781090649,-156.28370226397,-170.190560825629,-140.607133944796,-162.873615638634,-107.803540169614,-155.600065083439,-138.883590120918,-123.154951338419,-106.772378871648,-183.280593065989,-103.909725916783,-168.620320528143,-172.04446198599,-120.330342521618,-53.3303018970605,-169.850268396931,-106.049701573142
-98.0941502984623,-73.1584582697878,-121.053938287741,-93.5046903749479,-49.1890853059663,-130.163242237123,-134.268719340813,-103.483296139827,-140.853221911075,-142.985574544579,-88.1197937539545,-163.237319357231,-167.71121568498,-121.158440119734,-125.042377155714,-149.534451690873,-42.3925963536383,-86.2568404365169,-105.780457164381,-28.1180882535868,-64.0497619610979,4.36959828030815,-34.4597732857018,-45.6381886215006,-28.5087967096027,-46.9789703693758,-20.9854893155016,-20.5806849299458,-44.7672494930106,-18.2164212384856,-24.3665913759648,-50.0465035950721,-42.408035706068,-17.8206494747659,-18.2210091548848,-21.3111571071677,-48.7644709119896,-50.6042439477508,-28.9643371045767,-40.4620482847453,-45.5862732716971,-56.1019043197877,-56.078391752728,-67.792243108126,-55.3894679920581,-121.708510332991,-155.524992364477,-135.577057521578,-154.414471985072,-120.224257475834,-137.56912899804,-68.4138100889073,-123.029846058673,-107.420269080917,-82.8577099733758,-62.6849883334766,-139.668571204569,-61.2962925307218,-123.557093644257,-109.576419071794,-68.5879290350671,-10.9884916932024,-122.532414690925,-51.0091500804732
-96.8556598417584,-100.361813804818,-121.657512947126,-123.064250259901,-100.389152586768,-115.298953109109,-149.904947685414,-150.505592925284,-133.044053545936,-172.22485749648,-147.9308955867,-119.310125261275,-180.980724611146,-156.591020530489,-109.510868456214,-112.71699714333,-37.5897259139047,-66.7757432032476,-96.378352466621,-21.173257070061,-49.6702172344693,-2.17111378997151,-36.7333111279349,-41.4216753169836,-32.9101041801111,-42.2391421747157,-25.5341054125048,-28.3129281478613,-59.2094562271808,-26.5574430014618,-28.6718424967943,-55.1562454528778,-52.1252010340353,-24.7903841997751,-25.3749119164381,-29.5900293199531,-55.3273599631115,-60.0331441158286,-37.9277789888827,-42.5434638110462,-51.3288675886444,-61.8342950899615,-65.2844865646399,-70.123919742765,-61.3644118503533,-111.300986633203,-169.558492631661,-124.137445181509,-156.047599915427,-128.100066309162,-114.887893920367,-63.2016503097627,-93.2127173734368,-85.657939020341,-72.7534117168586,-61.446007234538,-94.0281246627143,-51.8387861152632,-81.1466409773452,-54.1246445373968,-38.5078413978657,-15.0372538310165,-75.4263904024881,-23.0726458376355
-84.291053368308,-108.03388863085,-102.869212654685,-134.375328077119,-139.939744592368,-80.2269781381208,-141.019313939747,-176.563793150826,-108.63595658071,-187.345904382806,-196.130468895766,-73.8125492641947,-180.178272508493,-180.728072592057,-65.2937587806035,-59.6512696836795,-11.1665684227217,-35.8680687056876,-76.1102271944785,-1.67423297043279,-27.5274338961747,6.51182345285478,-21.4286024464214,-28.6863342274711,-30.3927671676998,-32.3191450956991,-17.0181694796627,-27.396780308317,-57.2788641507913,-23.9200983479248,-25.1548712007433,-50.2808866464815,-57.4936476754636,-21.6591369585815,-28.0818665195083,-30.2587770073815,-59.6067152616965,-67.6185070171848,-39.489288355423,-37.257711328288,-51.6428312812701,-63.3913412433104,-64.8455723213671,-71.2553898230967,-66.5130118527193,-96.4273704708495,-175.244468564108,-109.49643043804,-150.937681027331,-134.939175937601,-92.5333182575881,-76.10199093002,-63.1401858528119,-67.613774441087,-71.2653851876027,-80.3636448736094,-53.8074069843288,-57.0237389154566,-45.6751413504505,-18.1785892540606,-19.3990904141975,-37.010470557197,-29.0840320980545,-12.057098966387
-50.2599255520686,-80.4046297821903,-55.4115360191514,-107.674393905509,-136.724198790309,-31.1183962594059,-99.8334356761023,-155.32124831132,-61.7776044554054,-170.320755776244,-195.709040004911,-28.2185411606106,-154.624412015586,-172.066192664428,-7.15920730579826,-5.42909744333852,22.3120603161809,-0.157801488260242,-50.9778346454258,17.9171360824114,-6.50742174685174,17.471111846458,-1.72881376312914,-12.5847944129173,-24.2860243703309,-19.7595061876969,-4.21002119815579,-16.911162240792,-42.4358686764955,-11.6784411608438,-16.1908158684449,-36.2455538238386,-50.9460374819112,-13.3029458663464,-21.6121237442141,-20.8204654004038,-51.4999320664694,-63.7212731184579,-29.6476564755296,-27.5871822174571,-38.0467598586166,-54.4768143575597,-47.1765796414774,-63.1679281571373,-58.0326702642352,-71.5484471077482,-141.498831895541,-81.2058520928672,-120.134846192347,-115.493140225937,-66.9223723412667,-71.7860353207055,-41.4457754174923,-49.5549563499476,-56.9204319814699,-84.0969849002209,-25.6264739572561,-51.4395301811446,-21.4579671137418,1.62522118812016,-6.66636073382344,-43.5690377876328,1.46686188669641,-5.95315004817748
-25.5549783286829,-49.6218706140771,-20.3698164129771,-74.6519887270593,-106.931255400777,-6.09980412400824,-64.0699031578719,-114.371017371184,-31.381258491137,-136.451563477317,-158.189345214165,2.25775614761774,-132.02952352377,-146.791280209823,41.9188313716318,30.0955618024927,34.1784840495705,31.5665237612653,-33.9844274872078,21.4117083529358,5.40243139218589,11.3271831527673,0.531064072376415,-6.74213505403323,-25.6328465262418,-16.8508679275736,-3.54659574008743,-14.5769591381596,-36.9175385535039,-10.2135522040765,-16.8858483231156,-30.6084776775013,-39.6035738033237,-13.6181599558477,-19.6939060297789,-18.9924797877052,-43.1781542954794,-55.7316739973569,-20.6329739939054,-26.5942657868081,-25.2173285452433,-48.07693120584,-33.9866650917564,-53.6023803948331,-46.5538925655531,-50.7106077865071,-88.8734305689064,-54.5715689121449,-85.5127053346729,-90.8374666078874,-49.0923312668596,-55.0680714172947,-40.3126462656774,-42.0595713181802,-44.1396984671558,-81.2342069575985,-15.7247413459945,-44.783066274393,-17.3148186859321,1.64694255747892,-14.8115247292066,-42.7518740508997,-0.798961776223261,-8.55725444378803
-34.4201661213934,-42.9809134159181,-30.3004422122414,-61.0174656898115,-76.983602818701,-23.4603680763409,-59.2919313022529,-83.939646434146,-38.2839794105479,-102.604258163678,-107.930844519165,8.08086602522631,-111.264778121717,-114.849785747972,88.7125916866186,67.5935155764306,12.2484838533308,65.9011142951335,-22.2449359860377,5.69277601132866,12.3932593870685,-17.2244764093667,-17.4929233376855,-11.8558655927688,-38.8006861887958,-27.2210356823694,-17.6252553165956,-29.6077204835175,-44.0523080140699,-28.1554347796547,-31.3746652683439,-39.2290501768355,-37.2828612371678,-26.7105378219297,-31.9277265044714,-33.6964402100921,-45.205743816692,-50.474399990918,-24.5829167689827,-37.0851901019368,-29.0009504215927,-50.1168169185715,-41.6354617635562,-52.7358253930878,-44.1982254637609,-45.5301477899863,-54.0728476908265,-44.1465470108638,-69.0310598234066,-81.837430510325,-48.6969808251627,-51.5099768715968,-52.9291305880989,-50.185117136033,-49.4121289095327,-88.9241057118391,-21.9349727486583,-54.8182562264476,-31.6075697845601,-20.8259166674746,-43.3019836539258,-49.1346298518129,-26.7420344049725,-20.0414739254008
-47.1083511863884,-41.9939355206584,-48.1023395509281,-42.3148278159768,-39.2269001216081,-42.3821638489054,-47.3826714236179,-44.623435900589,-33.1126295731862,-46.1816262338262,-40.475509057758,17.7735148160688,-43.543094530091,-47.647715063806,143.816688114033,141.336794294949,-36.865019126722,102.869087005497,1.81252288432607,-22.5990172998481,19.2347023357774,-59.2454282903794,-39.398678689954,-15.0091664159965,-57.3532498480676,-37.0985850008359,-37.203590292826,-48.8098360486125,-46.2256641277979,-48.7596996151334,-45.267684256114,-46.7361144564549,-41.7320460949003,-40.6890421095674,-46.5501427881723,-44.3594829100938,-48.0356011843689,-43.9729382305465,-35.6906652386283,-46.4873278947191,-38.433999985666,-50.3949858213848,-53.0049409264799,-55.2174908761303,-44.2775164434011,-39.64209661992,-41.8936569264546,-35.089581176036,-58.3672993282786,-80.6509749726501,-48.7293257658767,-58.2389146421953,-53.0343969693009,-59.8592046369136,-60.5131982791984,-99.2390910368812,-28.7483877024382,-70.1848820895332,-41.152690959707,-43.7673414049724,-63.6276983112125,-56.3689438085353,-43.6003357794583,-32.9676920914554
-23.1401620380326,-18.1397220003549,-19.8181471317921,5.49825977028628,18.1542132092931,-16.2312482749562,8.00670356982692,23.3982597729581,23.0939482156304,46.131244405206,44.1097940478688,57.0188602391097,66.9588102075553,54.7415104873611,185.022499793572,213.168454893592,-88.3346155260302,117.393424975019,32.7711687393956,-54.3475343153592,17.4398259402234,-97.9283105849144,-51.6243601569176,-12.3134209738133,-72.0820261118691,-37.3128696145835,-50.4114928494142,-56.9798003168844,-36.2234642354799,-54.8431259933249,-43.116324120133,-39.0986060248974,-38.1167691046818,-40.7444047123068,-45.8427880825862,-35.0364803804694,-42.6882931439952,-34.3452771268516,-38.4898247425284,-42.3325040481909,-33.4235014890432,-40.7612928162693,-45.4542517340617,-48.6967033861881,-39.0245808860724,-9.65582473166982,-28.6973082650377,-5.08772908807942,-33.2282529874243,-69.8104549948908,-23.4511167008349,-50.3129655657794,-20.2310559798087,-48.0677946099557,-51.1386299432473,-92.9236395285838,-13.9368848789991,-63.2745548870926,-18.4399406343629,-33.7599277939638,-51.4163614327519,-53.3954149256585,-24.4013299670942,-39.2136288475792
23.7207433483123,18.081815615854,38.2819066447988,56.3446561453806,68.5500861342188,35.9248828890924,71.0132906807271,85.2200749348417,88.0787811572534,124.82356744207,109.951713932324,102.95420985641,143.218941779759,129.805458740115,192.725662853079,218.300648452972,-110.914645260312,100.833206840923,43.5108924613232,-76.4244182604041,3.93945978929546,-116.81096745723,-52.6682767201217,-11.6431746234645,-76.9574268486526,-34.3460195079097,-49.8795270954237,-52.1216585450996,-23.5451007632011,-49.2673584699884,-28.5830508735648,-20.0183168439518,-23.7314011855061,-27.6132507694941,-29.8394847519591,-19.2817043472307,-32.9675234510703,-25.5614777742559,-28.7129792867489,-25.3963574085589,-17.7172657764629,-24.8944716729009,-22.9493773897748,-31.7871561112413,-30.050057255151,33.9987758463893,2.75310510233786,37.4546624321858,4.12546289255996,-37.2914088235932,19.9259982723768,-19.9525956868393,31.1496564517725,-9.73645168897439,-13.0443348157546,-61.617797093435,25.1838718636951,-27.5205272512975,31.7802880626605,9.75416163293522,-13.4212094125374,-38.3286992743056,22.0403310768206,-32.6480527386488
44.4844347566392,32.1498302661218,61.8966004010906,68.4729217077488,76.3379005523721,55.4193938206016,83.2405147934533,93.9913041220097,102.103206966868,131.087616796071,120.398233050808,113.76427551498,139.045303163148,123.323234940358,177.91868201771,174.028471504828,-97.0777374203714,82.5107901609119,31.5445599297747,-74.2882715250919,-3.01840637102176,-111.264738110224,-42.1550213557498,-11.6150560610809,-69.7183124600328,-28.6626345912546,-37.603382994638,-38.2348603029936,-10.9330730469995,-41.5637340521036,-14.8114804813201,0.579072895324837,-6.84747249378532,-14.3727271556039,-13.5987444209965,-7.60375569554019,-20.8874106967132,-15.9852196529677,-16.2637408541297,-6.56555032148849,-7.09263759362589,-8.86940028482044,-4.06820539181767,-10.3319230503683,-16.8018920858785,56.876682366365,43.1957143176522,63.2655237733044,36.4253422943595,14.6979305864505,45.9318536612968,18.6214121652374,61.867657075569,28.9350685483962,32.9849119551924,-15.3494588242155,58.8549887957092,13.2745079080622,65.9692469313337,47.0033933094863,21.5837512281788,-19.886157018163,54.6189169509866,-17.4169670833623
16.5950003487476,10.0862706719297,24.3363718360343,31.6735461522659,41.2298361374142,21.7460292608043,35.2538592739077,44.3359221849296,57.1134087299739,61.8054909376078,68.122070878033,75.994318487087,72.9318097575893,37.9198003843225,153.529200734039,138.586470609086,-60.1181049125239,85.2281697912298,24.9518378003701,-40.0192117137838,14.0544778758071,-82.5131823396402,-15.0918321623303,2.17796771790742,-47.7899113119791,-6.42946618164139,-16.7945669607139,-16.7171388098286,9.50040579041539,-28.9916531010974,-1.70323671502831,19.9407317487763,10.4095972628069,-5.66131530390388,-5.05143745937671,8.10911283647783,-2.46337374368317,0.324853222186989,-7.74237491237331,5.61154265757049,0.616529617394765,6.49267229582256,3.42887343384598,11.9806517264047,2.55203922208812,42.4967920350753,66.5246061952643,56.7701730133014,48.0763929709621,58.3175637639457,34.5096647117884,44.412990077547,51.5892778205748,36.1118222569034,57.3351570348028,19.8892878847079,57.8825274785261,32.2864770317473,50.3018122413701,45.4413200207344,30.1448706707109,-13.4746099752921,43.9482093077415,-9.55310286029522
-35.5058754257047,-32.8684316917391,-39.2748399686448,-31.8763727329388,-13.7481266467349,-31.2779315302753,-37.4008900910562,-36.1856446205851,-13.5059799464368,-38.2734249945325,-26.3109181098635,15.2398411218891,-14.3055127164269,-77.3553688249463,126.347656052642,119.895656896914,-9.52320424051119,100.990560262791,45.2309669257187,19.0667456813328,52.2226507045243,-27.8139147125859,28.030625245526,35.1364020793173,-7.75321127485582,34.5431171708998,14.7636237913585,12.6796817662193,36.4337824487387,-2.49837464675369,17.6047903989922,38.0319019003776,30.279033026209,6.87231501530471,3.80117035546985,28.5467202789723,19.6681802634015,20.022758304009,2.32032574882535,14.7097478208228,15.288096336985,21.5300875431975,7.01479032598463,29.2479324612571,23.9880251632441,7.19082958123925,59.0517878642164,29.0532890429936,36.5336779244445,63.9729541099076,1.72697659393296,44.1241741936326,17.4493213116712,14.4099799739888,51.8840928512139,21.8001706165542,30.5055421223822,28.7921661188545,4.89112777108116,16.6391403973459,15.8716669996862,-24.6822444568592,4.1109322942709,-18.7605773219989
-63.9824978325733,-65.6412853231328,-70.6756101304668,-77.0139566472578,-60.3994308462912,-54.8402820928773,-83.7140078484563,-99.0428309798895,-57.6671758048418,-103.584115334203,-105.36498100307,-20.8719330200389,-70.0983785520774,-144.494687520876,109.777069911991,98.2971009756088,45.1205487059704,116.325946442745,85.3563701843297,79.0138333395021,94.8589056001332,42.5977924205722,75.6869103335462,75.7477326081941,44.2401938735924,75.8694307768839,53.6898033103822,46.4203915885775,59.8900691838858,34.9941235733417,40.3839096942754,54.1032588129297,51.7260636491122,29.2184227532468,23.0307293390842,47.5613691255242,38.1134743000449,35.0132040639596,20.6443388749402,32.1713753091689,35.3101991382242,37.1610496733218,18.7007026390404,38.7866430127074,44.013085685402,-13.3194955417331,43.6523724198192,10.2407529917852,23.8748718734977,49.4176424368649,-19.4584321104824,35.153654533906,-6.42367779455063,-0.47174327459741,40.8686655159736,5.82904768940243,10.7116855387223,26.4584382845264,-21.9581379137058,-2.24611878818154,7.47310577137953,-34.7642471085224,-24.781814805716,-29.4330368333043
-35.5606347264755,-51.1227542987783,-36.4274323117967,-55.5457861306534,-55.9017680634253,-21.846437422448,-62.3701118830813,-86.9595680741752,-32.851093091979,-81.3386788381753,-95.7540210402361,-0.152862267602346,-49.7214304044665,-106.326832290707,107.136733591468,74.3016575133549,88.1069493784752,123.954996529107,112.452578179356,115.392226713093,119.869706411937,98.2137049244936,110.244674280709,105.300919049131,87.5168852708827,100.058564601144,85.2054769745418,75.6829396932773,78.5864758222238,67.6882938583179,63.8503110525953,70.0732846456133,72.2501241507735,56.694487986215,51.3466707363055,68.5022150416785,55.7189899941751,51.3134248941341,47.2452373479957,59.9790198398474,58.8625227063933,57.5254835878274,43.2264267884602,51.3439700230016,66.6076211126248,5.38278036223229,56.0496837123947,23.5321393191917,39.0882911935846,59.6732158814627,-10.4804991332094,51.2263813718544,4.06420928959604,13.5529458467778,53.4343102484476,15.2710223084013,20.1937919973152,46.1319700454527,-7.2856777980026,11.6066223472498,29.0904721638827,-15.5405714554108,-12.1306050803113,-9.94576316366187
45.0435740201392,28.0584673296453,48.0306063786445,38.8517518319047,29.6380349535625,55.5256614782714,26.8779010261244,13.8010797517335,54.2705772790342,24.0468229777356,17.0138981035966,65.9125686571051,42.3321212524927,16.369568308289,105.951508929719,63.8630755221622,111.696321212625,118.360236040856,105.024297311733,122.479217258146,117.357246130682,118.278909504052,119.030660233548,110.738796403643,105.470344280784,105.658905950224,100.126355938756,93.109517489271,97.328727486187,86.5484341287704,91.115918622835,89.5541921361755,90.934352024951,81.5148028035918,79.6573044313076,94.0157234613693,81.0092566526229,82.191985275386,77.9000142800612,87.4660139353694,88.4740544383006,85.3886629347789,74.5837512981363,77.547697496055,97.2835842789583,50.2164126891808,88.452702247881,58.900521866383,74.9568008661421,89.5373451148713,20.2887680103623,85.1998210295726,44.8638124407722,40.8213087407348,84.0809480319003,56.1005319706942,52.652003118994,78.2133981392264,38.7152906441232,51.5166106463319,72.5850785068632,31.8247322847354,41.7608991466105,47.7013437943634
146.691655043047,143.294096673584,143.83586399315,161.429436644527,162.218141670843,144.761476100377,144.944096398687,152.107155554731,161.853201049997,160.993440957734,166.453882097704,145.153115137109,165.871902447775,157.091680656227,109.996873724679,95.4450445024101,124.237415613205,113.492208284593,105.831917328352,119.852451841861,115.457274058668,118.116856253657,116.931595947631,110.865788585446,109.026871694923,111.81149514865,112.72362024811,105.311143953349,121.887696648484,104.116234134478,121.067103734239,116.648032874365,114.815226033158,106.347486274686,105.727740647041,122.386396950929,117.01766374062,125.630969120469,110.928371244266,111.273118618547,122.870714703135,121.568763005225,108.560780627618,114.758333088414,136.115079975332,94.2847450494595,103.397554822257,92.7281965930475,99.6529474731707,96.280459601497,58.8075587400346,97.2559414408264,95.7668857424365,65.3052908569676,104.651006440847,86.7493068934199,93.8273907716079,96.4319749806354,99.8116962726011,100.884196634553,112.861406501356,73.3485866804163,112.501149320899,114.563839330881
236.222593915742,237.547704774838,227.417137445988,259.238279111332,266.12329142664,224.829894686731,250.609271642864,263.444659940558,257.908896004651,282.935514340788,278.268219413306,221.316702090487,282.829924451354,276.733080207606,140.10509225392,184.150803728807,142.469465358843,138.90547350482,175.479161902799,136.557898523111,151.470971608858,132.996575313539,139.57538331043,144.153057640506,126.363283231617,144.062774289883,144.493792864136,131.6202597695,160.43901899586,138.227890019159,154.839103551632,154.390906052732,154.962790369759,142.794278460575,138.352808514211,158.11273485511,163.824751849809,169.581862598465,148.818155959514,143.735850693107,159.884808813616,165.88745000536,148.996232671845,154.632487541528,178.218680478278,138.826102779687,108.998295733308,129.531538809174,117.789354729738,88.498028228689,110.221391999715,92.1889221058137,153.228597188867,104.129201744503,116.395746470128,93.9230653191963,144.770882026367,106.572325390401,167.757627233632,155.280914243702,146.74897439657,97.819659690073,179.350884006209,168.26083068291
286.307892525876,273.78247596526,283.620503988639,303.388622600446,298.059725343503,279.258266607888,314.364607661692,313.630484425729,318.656304070013,357.996226296423,328.607978289355,279.754919338092,354.912355588842,359.161428023073,183.464335350452,270.647759799489,171.032387200349,184.434022873341,270.166329784109,173.047292272274,204.781749288001,171.332767681312,186.668588450588,199.324924177831,162.318653232829,193.201621342971,186.716414835672,173.671347963326,203.051184417837,179.032124787992,192.434495773753,193.571126221626,199.18106460871,186.511903306949,175.780696361501,197.062667250998,208.952750587409,204.025572311459,185.176351912695,186.261358182589,192.720309026789,206.425208464402,188.35238534681,186.282805624065,212.774031660146,195.93473697957,146.111288424349,186.129200224545,160.510294610897,113.530005716278,177.409512295587,115.578635143266,218.735777186474,169.577494111679,148.086348791457,111.940204167053,203.978654407045,137.590778408995,231.168657648326,210.708893991443,188.404915535271,132.862221269971,231.024049023685,212.519649164626
281.436110113665,256.518153434761,288.255152858,291.522403054956,271.180196324289,283.839196250741,314.066565002121,301.596501644971,319.306048618147,360.541398226802,327.122409192083,286.698608828542,347.022917269607,376.688857757916,189.504812506187,262.963611994101,188.134103401212,191.278837558739,272.698960430947,189.9979513336,209.691293155178,197.548696400291,207.035464416832,212.702717672849,183.839990814044,210.443416192652,202.940811787821,198.068972262336,214.832238150908,193.416478802823,208.984683346543,207.605952382306,210.827802763882,207.960632904423,193.557035386421,211.499559076204,220.585109860868,213.854456437668,199.099270466687,209.118584395879,203.147477339731,218.902869457478,202.515644541339,194.538421645677,222.987761079846,246.763548584461,206.516649120529,242.640237757236,216.610458644191,166.321686649159,230.517497803792,166.556394603143,263.11575649838,227.10715886273,197.378558725415,147.979741721386,241.790765726359,180.54041850917,263.134338793284,244.643345663748,228.010392045425,176.157117503047,250.99463220659,238.776447927239
230.627813207937,208.004795375218,233.906937968043,239.600433036324,218.693759219186,231.235548366768,252.518401013103,248.596241047551,260.357856526931,293.847330635241,285.548685316813,227.685131326429,263.130804077798,315.945659550792,141.276037173494,165.734344688474,168.878351732067,134.122671238058,168.098709038875,159.002138978134,148.163212946521,178.642408643841,170.83566306781,161.387524889796,163.093950471815,172.459819294351,176.7455987122,176.159487637601,178.400333360731,168.836881628228,179.815961166907,180.360183719307,178.536431617454,186.825945673346,175.210659143396,183.634510981026,186.632212958664,188.852268841678,178.283520117827,187.315820480165,179.636447788105,192.685977993288,182.801068256058,174.449669711016,201.157345450039,261.404506448183,248.404219680075,260.10477754259,246.531603721607,204.336706430189,240.627355052423,199.393198584564,255.555526664178,237.844107991102,226.945835189097,170.459778194281,233.367793141185,199.395236761368,240.741964148396,234.339983841503,234.23683518734,185.429412330596,226.849104984036,225.860076452103
161.280434713177,146.639007281917,153.16758872394,169.877039446529,160.60164496935,148.049971911789,165.921554762509,180.333339985424,172.223894116496,196.278746761175,214.588507248613,138.858652531796,149.514115247035,208.911795755247,81.67747544942,72.4321746015208,127.039949965747,65.5558549696163,68.3450193631016,109.95838857184,80.780156536233,133.576765045301,118.578598864169,98.5760743827419,121.594375024263,120.642409770049,135.072734029086,129.542789651338,123.083452081766,130.654891863443,129.200919964019,135.380624607674,136.278354696794,143.566200887086,140.119117177256,139.747987267369,143.252902545928,148.903399931144,140.526163282429,143.770249233164,138.570292349592,150.368539670704,153.017990637613,144.195910321818,164.788025366177,244.682236412775,269.621405422886,241.131515698108,251.04107443352,228.221546956059,221.127176521662,207.619325613203,213.253610448928,213.821203276941,225.316656511883,178.914841678985,197.324268812557,196.588047460676,181.201954529536,189.231364745409,204.08601689893,162.86681363317,172.505061932707,188.711781289581
94.4613428015314,89.2906539173835,84.5745055081741,100.399241755956,103.27188001052,68.5885823287958,89.7589063065914,113.634171595651,83.0821248561542,104.211257019292,133.284278866361,62.8160605524855,48.6890982915424,99.6664881936284,50.7210955954037,32.4237738358657,110.580934569501,47.9901587667692,51.0215039379853,97.1974680157932,68.5678801567267,113.082034676221,105.416935414423,78.1136703227224,105.28240275445,105.409853873318,115.371545254793,104.956348066695,94.5742099865203,111.493244246125,103.930774993738,111.004434678203,117.035005506698,116.672216819487,120.992768026091,119.027460505247,128.63856751951,127.604634727527,115.312989443468,121.662903436311,109.111442523423,125.376422339058,138.975641258206,128.077621229586,140.244590669404,220.908372412159,285.238505248643,216.521755377786,250.968829823392,256.653584292703,194.611062328886,215.918554675176,171.468031819442,186.196794530213,213.534769203348,196.899720377729,161.155648171907,200.183954009722,125.601999604866,140.940500084061,168.129350376699,152.250300987392,118.453786354214,164.753697384859
41.5307248675205,50.4702742418221,37.8009770836167,46.7354010557644,56.1605902156868,11.986886800369,34.5847474646295,59.6077921160088,10.5914361402965,32.1873544585249,69.1793963549444,8.56413561034145,-21.3590922108162,12.3488629850444,46.497820980375,25.0642932071402,142.257493301437,81.760402185218,86.6490589097524,131.800931181525,105.006975531804,137.801327293102,132.802420968871,98.3284314470471,126.113178161384,126.196025419333,125.82129241316,115.14437893218,109.459528577124,118.444882021713,112.73633257537,116.785738648198,122.152296233428,119.893897517176,126.126828906276,126.71812153412,138.568695432284,133.092739142585,112.413922986962,128.962034910685,105.207671259978,127.651531576766,140.717574503912,131.360152735368,134.324751965688,195.102644804422,273.876770657264,187.273154181776,231.100788536518,260.381559107166,158.262525049654,208.169734175566,133.040558670839,153.558107541148,193.039645587259,205.719635159962,122.46659591888,200.029092789668,87.8082713634251,102.685226564947,140.611891484147,150.285603369694,80.1637050762429,151.748701072575
21.2256910640432,40.1964621288216,16.2766246193256,26.9643712101874,39.7767648834935,-6.26599875658697,8.97021116759671,35.8644017099746,-19.0851658025843,-1.6422838615546,49.6008415663184,-17.4152780399051,-42.9896514095652,-28.0963656765099,54.7467193517034,30.0618529616354,185.759128108469,119.871310554667,118.001466256934,172.980509844978,139.583989409324,173.536046632278,161.238646558499,126.634900602868,152.736023263308,149.812293916503,143.531365636088,133.405708539548,142.455402784664,131.913242167978,129.44317076457,134.670580426537,137.442515956374,134.332588663175,137.55370357113,140.449485418121,149.23213353984,147.842063211633,121.365141760008,141.048036704229,119.016796068579,143.444959404945,145.018292679393,140.518519469233,137.279364989146,161.366365982377,212.829352591124,138.679000058868,171.267747591636,199.506906399465,111.919864670101,148.698077449565,91.0505756577642,102.067691377681,145.234131809754,162.74794837305,78.8027839379458,159.194728785456,59.3810128951031,65.736618845103,106.90303052922,115.580919451849,55.0230632504943,118.042283966627
44.2117995260878,60.8362436281694,31.2633962285332,45.9627934056907,65.6101550252589,20.4159566204508,26.5025461511456,58.3840105856337,10.8741173555748,21.044911234857,84.3576576838085,2.9909879414797,-10.6345253125791,-6.58902745354646,68.7757969015633,27.4106421539421,187.893683477836,121.29501731049,108.932736603604,173.509270451437,132.112567560367,168.531602068979,155.01347399713,128.739312760154,148.614225374214,146.975592597438,137.408902913299,129.770545618958,151.071777607435,126.254746876531,128.689677228021,139.442858805624,142.673286714584,129.882385239527,132.624419394776,136.914977048305,144.203577104305,148.146755249658,122.100999574476,136.714654639175,126.220503820013,148.004348204091,139.310631554814,137.890880506078,135.757868357239,121.214284590078,124.562707020546,83.4877235966782,92.4016982238203,93.9734160499857,72.724048467336,52.9511728662985,59.4488978432742,43.6698855361584,74.32702625083,71.8674752370223,48.8072231504457,75.9128578278845,45.3492053161624,30.2172819028134,58.0847060160188,44.3264358477724,43.2123911190323,61.2784370925708
83.5305273829205,92.5420545524881,68.7231726301905,79.8727832848618,108.608007366308,63.6685470615678,68.8899212518627,105.543838251138,65.0130739169967,71.5485078441111,137.563850966136,48.427444727193,30.7441066480856,38.0217980106496,77.610325357944,-15.4866800742483,140.154248140082,81.3093153045832,45.2850238501805,124.91930289557,79.9085283482426,112.222286957798,106.052932829398,85.2019089324702,106.054547705664,106.141115403939,95.2811585011548,94.6010826554239,115.371559246163,91.2002109807022,97.5226041039453,111.198131412252,115.497930526971,94.3105221649714,100.902947905708,104.00744914462,114.825403398995,117.606103319473,95.5368034564822,108.762674237824,105.352079526617,119.298637191723,111.437709293965,113.453671323525,114.474654379701,82.8111651741774,56.2747648252518,47.4249663038168,36.1600849312874,12.7526146968478,52.2330928735575,-17.8443284664658,50.3618972212151,6.82476461551563,13.2200793801474,-7.52411220699487,41.0023658792331,-2.80477555667598,54.8434158109741,12.0290470055336,9.55695854211952,-20.987946855558,47.8538760601401,10.5004436483976
95.5834103254977,100.204196292816,85.2787539386075,91.6575408536461,120.653965609658,77.4208681622491,84.8909870985594,119.968462118436,80.1002042800915,87.370815509056,142.280605280618,59.1615459813679,24.607169928698,46.933863554272,65.2867116561341,-85.2780664177461,79.9079818636807,27.9813326387266,-36.3977723839061,61.2612533152096,17.7988551300618,44.6830760279815,40.0358238125613,17.4825957771142,50.3170413250906,46.1519495267704,39.3386144504309,41.9130977766157,53.8385874931283,41.5072878159642,42.7323589673024,54.5559740356715,56.4074557333089,45.3886697871198,52.480772632768,49.2401447695958,65.5474383838642,63.2289722118972,46.9422381822225,61.4956549875431,59.2675733270157,63.023555698045,60.4692201559879,71.8513352697523,67.3271893767213,53.4974803917131,32.1983051718239,29.8197014522108,22.5373183162119,-0.447839164204051,43.0798495245997,-26.996502803241,49.8728758919664,0.383986422076519,-10.60210105939,-24.0679780011461,39.2560624243915,-29.1715266241638,68.9825177538787,15.450196777839,-15.2276394697036,-39.8211815930893,55.6668180958724,-13.4279826514082
62.0523137657286,65.3981484489626,53.8827056555388,58.1777652420415,76.0457413445891,42.1182334848113,47.1619684414899,69.5466105379735,36.359304724658,41.8296600501616,72.1085275221997,16.8426456116256,-26.8758407979762,8.11975930974296,24.6270580908925,-121.022635786826,35.7858695120051,-11.0200012441304,-71.9082350876886,16.1159537755664,-17.6284935225493,1.3759743686414,-9.86766004325037,-31.9812200093514,9.10963385625477,-2.54361375108835,-1.7183272320936,-7.98684278331043,-2.71725048835356,-1.6794987736968,-11.9524838319909,-3.25437461865046,-6.95438983090113,2.67213517270928,3.57696481068089,-9.44908114794171,9.67659703919942,5.79333202732152,-0.916286249270352,7.1453536219965,3.97509725491144,4.45681662072465,-0.157189764405705,24.1682722682574,5.54733438295685,17.7476358970418,21.2238936170868,-3.9750061641346,20.1575550127347,17.0551235241686,15.567678124165,-12.6657180405298,22.7883284314053,-8.40001811194048,-15.7846032612509,-1.5107837616688,17.2605972162381,-18.8909439093747,48.0173436915122,10.6051814370682,-21.6009460887024,-25.4866839521182,38.0799773756222,-19.93167049319
-3.41935135830721,-3.82924979952388,-10.9361588392502,-15.5113011744191,-12.3058131950811,-23.2759461217667,-23.0319311862803,-23.3666964042469,-34.4733045462764,-42.1016317480026,-40.5224969729855,-39.9746440694799,-83.0197205795676,-51.1690129139269,-31.6638515716928,-103.035269022544,1.07462046146869,-34.9190869471351,-54.5093462917003,-10.1872015677696,-31.8944692924468,-25.8816302636294,-40.825516600605,-56.2939618184031,-19.8614210409721,-38.6022163578705,-34.2759587064534,-51.4939671482187,-46.8961812495568,-41.3889155663796,-57.7897393182711,-49.3176432820166,-58.6292814720531,-41.3480810200577,-45.3625363195714,-66.0625882226206,-49.3588254653186,-49.6732171410411,-46.1857054672772,-49.3094258138465,-54.4849933653804,-50.7528743701086,-60.316135753549,-28.5564819810193,-57.9230649923843,-51.5563382413537,-29.5525697856529,-77.2755906486666,-26.5869366020891,-10.6023764783278,-52.2730662003264,-44.5240915668488,-47.5913302042407,-58.2875124635328,-52.6215944269683,-14.3134695150835,-36.1537328844313,-39.081136749,-15.8866422166342,-32.9211142035948,-44.0125501192701,-40.2450602214664,-11.7664706128475,-39.9513976282666
-72.2822471721537,-84.9849311925231,-74.5540824486823,-99.3082927419823,-113.467979645163,-80.8742151686912,-91.8684877968721,-116.940253993966,-93.3140159188419,-126.333984172728,-154.73645617096,-78.1452214379806,-121.146368700972,-97.720285638573,-74.454520367755,-77.1370526017295,-33.4578198600308,-55.9517083074999,-36.6168586309254,-36.2429433148804,-55.2188944374921,-59.3844270389273,-69.9732079895064,-77.7757508060852,-54.2515370659037,-77.7804014318774,-78.5923399497847,-93.9775742526483,-88.9689992757689,-89.3965604186601,-104.609943122395,-92.9623353488684,-105.908908307712,-97.2755359223824,-97.1848612477834,-119.818945045736,-109.814641119672,-105.418189001791,-99.3019135951403,-107.96080492781,-112.174578372267,-108.305790053701,-114.876275492802,-86.6560636743054,-116.558203690843,-135.411727998603,-113.573857814072,-157.080349450539,-113.612531070583,-93.8976270577936,-125.803759247504,-125.443945928589,-117.876089063823,-127.621342134632,-122.741896766251,-85.3002843470482,-89.6549894714606,-106.111443689852,-74.9696371825264,-88.9354870881256,-88.021792272563,-109.368271000722,-60.047738082799,-84.520224089624
-119.565073677875,-151.312127772667,-111.761149552677,-158.123854856599,-191.612055663961,-104.442550841916,-138.111788202235,-177.056077639259,-118.304406074516,-173.559468612004,-230.075959099361,-92.7580913706287,-133.665007964189,-104.50801438475,-88.2279909580585,-93.9579540407385,-61.3348663234368,-81.805810076527,-57.3704270051469,-72.0535627425473,-92.0929476340501,-96.7756570013421,-100.717168434561,-102.068111093815,-92.3308474153219,-113.825227532234,-121.885970198838,-128.059410066317,-123.706870936463,-129.264663028618,-144.561345596301,-130.26476539057,-143.370287956179,-145.952214183684,-138.525950810506,-155.067563213689,-151.279018693537,-145.969474258432,-144.943710697354,-152.149467778756,-150.856356349139,-150.232649401219,-151.459205236748,-132.213639823907,-156.717850525933,-179.778552341723,-175.627382185223,-194.753440445593,-174.85135046773,-171.730732291056,-151.223715814452,-190.851632851124,-133.352804460617,-155.005630267765,-168.607810973938,-158.248613063524,-103.413381858887,-159.636951385118,-86.7462908143319,-105.308635369821,-115.910398996304,-176.925078082979,-75.6527033193612,-122.278991511639
-138.37347829016,-186.428500847568,-119.267476295042,-175.759611124872,-218.535825285447,-100.624996903352,-149.038073008808,-184.383835627073,-112.504485800876,-163.725061859684,-223.493936387667,-88.9645818168549,-115.78332338781,-68.5662985340284,-91.9621088997922,-162.610450346657,-86.8507332120237,-122.255216109878,-119.48474166936,-113.941582211321,-129.521824281662,-124.803197766713,-127.31746921199,-123.835748533415,-121.167880406937,-131.677684422695,-138.745038377591,-144.276059498494,-137.905002957238,-140.056710321141,-158.023659746275,-142.981703964867,-154.812371942348,-161.761071688258,-154.120326321243,-159.830152880305,-157.39882828901,-156.649981289205,-160.069347436544,-162.972894263143,-159.103651888601,-158.32007041395,-161.940216285361,-147.530706297197,-166.519697781811,-175.904029371317,-204.826240091767,-192.845863374893,-183.034127871092,-208.565880257904,-137.042430809458,-208.856335912216,-109.751538844161,-133.995129669308,-165.561264230492,-182.208539258402,-90.512358234658,-161.431569093479,-70.9508925136959,-85.7980118601528,-109.829469389564,-186.469262468386,-70.4928028373409,-128.25022169018
-138.661563467372,-190.463796392362,-111.769092570679,-161.574541280514,-200.404786518131,-95.2260045523196,-128.758529774902,-152.514914998093,-99.5890861656701,-118.011847147793,-147.009468575973,-79.1655711200068,-80.0834744577741,-16.6323532366204,-103.442391869991,-230.681077697432,-123.974609909336,-174.189875507736,-187.990807290047,-154.283168628076,-164.353471819102,-145.286934030005,-148.73076676951,-142.822264266885,-139.312243297438,-137.318453707558,-134.344552543135,-147.859696586489,-137.111605214287,-134.507220804724,-149.737500106954,-132.725860431675,-147.625674505752,-148.699866678268,-145.472894265556,-147.905490920765,-142.575169649876,-147.415608149973,-151.437243655193,-149.779709009093,-151.029394855283,-145.924346818827,-156.159573373881,-140.257491284215,-157.106760953522,-160.83023572706,-228.541467860248,-182.981283743198,-175.238436216798,-219.956350023572,-127.434214890024,-204.920827781107,-98.8128988341714,-115.45988278843,-146.106541913177,-163.216964835531,-86.9891793536248,-137.554425001261,-67.4151699508991,-72.669696724438,-93.2993490741438,-154.275767577121,-70.7817057467052,-121.537835360989
-129.228430724262,-167.871841210831,-103.294188848024,-135.521889227999,-167.037171942502,-101.025161394988,-104.955232064244,-120.103178035031,-97.8469305127902,-82.072031556338,-79.7254333357222,-80.301880358408,-50.1516913401464,13.4178461523176,-108.829462218771,-217.437127079457,-160.67905530939,-199.573932012192,-193.837359236557,-181.740910313251,-180.725887543087,-161.749982895351,-158.84702435901,-146.881775140834,-147.098212003033,-138.949938978889,-127.681973171786,-143.730720037983,-130.002804618797,-131.838176427998,-136.403047167904,-114.508376404688,-135.067974846327,-129.120765423172,-126.401959868629,-134.460852371298,-124.421518557036,-131.977297113346,-138.140516033002,-132.720923731965,-139.201578026382,-129.194451086946,-146.109261566823,-124.528868743754,-142.400720811314,-150.304030871969,-237.061953846191,-172.528969414597,-172.25307035836,-212.939035954777,-127.668095013149,-191.284081514813,-108.116244085844,-118.665587967938,-130.372493995015,-124.730062562426,-92.5752145160606,-111.306791153843,-76.7193231916557,-72.9776392011441,-79.7028667766017,-119.038280367186,-76.8562091084259,-117.281939990973
-108.723514206392,-126.923997048296,-92.9841011500052,-110.003338963372,-131.610766037732,-107.661196710934,-98.8677178686443,-107.21016189922,-101.128567256612,-75.8470148803864,-70.0740920933333,-91.1139233789661,-33.2279049415647,6.64333084975227,-96.2535873083255,-117.774560642124,-168.671371039938,-169.543258499351,-115.030846304011,-180.596264803897,-153.300996888572,-163.575691113047,-146.580663820287,-120.418522731379,-139.046489790328,-124.883190489131,-119.568316891047,-126.676747120943,-109.89369485523,-124.551537866022,-117.823149730042,-89.7452925201022,-108.559750047725,-112.589937806169,-107.446034401332,-115.618378517531,-99.9241547484478,-107.246808396306,-121.151010426848,-113.208861337278,-117.09165577506,-104.327184470842,-129.616785903883,-100.27702198843,-115.206650988918,-134.281720226521,-206.647654263211,-155.892499185576,-154.25138438522,-178.412616757417,-119.981350890656,-156.095682075981,-113.615861262232,-117.811325297291,-109.686709874174,-77.3281663546196,-92.1182797796095,-75.5472062128736,-79.1969163977905,-69.0520968374642,-57.7761771993654,-78.7891721147056,-75.4174009597961,-95.3543880285255
-78.3453271120942,-85.4906015717756,-73.090227158502,-84.9823690601493,-93.8394572179136,-94.4674388403748,-94.2741537142135,-99.7967636885248,-86.8782573875525,-71.8718465645472,-78.6710542790383,-83.9647079098066,-10.5126904964958,0.976971521258124,-82.9717393719304,-25.494738324523,-152.231964305247,-118.765882099355,-31.9861606528689,-154.790844997548,-102.295559562682,-149.000151745355,-118.170655628036,-78.8166401827614,-119.334997834392,-92.8003819142081,-106.045016991176,-100.721420499571,-77.3687726522827,-103.665526252337,-91.9062283425229,-60.7912623439404,-68.116177163663,-95.7481753523264,-90.3785670893305,-89.1867269978899,-69.0347402022148,-71.7525126683745,-96.0566262600442,-87.3190126611244,-82.557733547714,-71.5198655854188,-101.886191751332,-69.1785541247216,-73.5216695284988,-112.110331099013,-156.146184426393,-137.189746275049,-117.389558863664,-129.992230530195,-105.549152796895,-113.597942445583,-105.468586480001,-102.901887498108,-87.68536677428,-40.819683898534,-87.437751658565,-39.9219744450755,-72.8317610201289,-63.1432095378166,-31.770664807714,-29.6232286258684,-65.8847711962262,-54.3509461109874
-50.08245689736,-58.8167949280132,-45.4650022036765,-59.2620660139546,-65.7137084389737,-54.9349644196112,-65.0972365488428,-79.7105972200733,-44.0897823251546,-37.5090878115305,-58.0541717600346,-43.5307453697767,35.7835833803766,39.2694530152083,-97.1337811766506,-15.6232610767233,-151.569099175386,-110.401552426888,-30.321156801697,-142.404574830791,-86.2986714800825,-143.690079850027,-105.39004337834,-63.2528161419421,-107.616231192387,-74.7619194733991,-98.2443787457292,-87.1478678881886,-58.2235027338875,-87.2000674208674,-75.6448028962263,-49.0550608896131,-44.4886836132706,-83.1822354465092,-78.7715482408793,-70.0962115658059,-50.1505112288972,-44.8673661403552,-74.3541847413663,-67.8552882332247,-55.0949320015036,-48.9449745942179,-74.6317811148853,-47.2443716225822,-43.5300242726283,-85.8477267554441,-111.520706972667,-113.502282284874,-81.7094640255058,-95.2105990378245,-88.1324929879264,-91.6513273130996,-85.70010991017,-85.1076359379558,-79.5577767009707,-40.2884998843367,-78.6595490905863,-34.6378483321836,-66.139264212822,-61.5694087423821,-20.9160483392492,-5.13711539327613,-57.8658844781852,-31.0938645305019
-39.0516040961925,-53.8258992759008,-27.8120250993956,-46.4256120410166,-66.8958998414455,-18.0771136981666,-29.29509140954,-57.1813255048113,-0.562501028722891,6.15568904107197,-32.270713616048,-2.76700287676823,80.707217672574,89.3298261149563,-149.577374339964,-72.9265855678553,-184.838992851861,-159.064051099159,-95.7507602145114,-169.999920376515,-124.125247313635,-163.910499324949,-127.950482605552,-91.420544216517,-117.50290222825,-95.863282342528,-105.521290431116,-97.1815347600028,-71.8766441357892,-93.2028372732368,-83.3143175745594,-65.6210461519687,-58.6117367030621,-81.849598248358,-79.2582604968918,-69.9438878179575,-56.570640432639,-46.6454796857081,-68.8276056781462,-67.6527288753972,-53.5279259421745,-50.307634495029,-64.9408443385199,-45.0228482075399,-44.9422602165751,-45.8588905551513,-60.5031576109636,-71.6126823489852,-46.640279667693,-75.7479403219699,-58.6325887555013,-83.8699673985323,-55.988633736007,-61.8609762622191,-81.0480735857818,-66.0951260057949,-57.140957750077,-57.4192190382801,-61.0025722283546,-57.1845842944622,-23.028295220197,-25.043572559033,-56.3912381478893,-41.9647448742903
-58.0181565020911,-76.5990150070797,-42.3002088616348,-67.194861192491,-103.298090768769,-27.331989182081,-33.358213576368,-63.4477136793083,-5.92265959731878,3.32112396600164,-47.4126806107505,-11.1234038824132,68.9740340083953,82.4648031491819,-216.887831619837,-150.484530483576,-213.07711395506,-218.9397133654,-156.534701963268,-207.684953256051,-173.679318446709,-183.420397020066,-159.726323440637,-134.286967725302,-135.149976239102,-133.534875060945,-116.628160943545,-114.690793304866,-101.225608501681,-109.151191070234,-102.244545468929,-91.1072148138854,-91.8807253243199,-86.0169884627958,-90.3495414182253,-79.3527706880505,-78.3322605026822,-71.4382546416109,-73.5796108673183,-78.700938670157,-70.9955065337603,-69.4302213932806,-71.3805160865395,-54.4439790839785,-64.4150476851161,5.68858692150977,5.93718022392627,-17.8818778011789,-3.07533002285483,-54.342757843638,-22.4928452266479,-68.5439650080197,-26.9806910700764,-31.4798324806545,-77.5574598029147,-83.4769652373717,-32.5229456149476,-75.6838256191747,-58.5195518010783,-54.6076859949928,-27.6080980514086,-59.2153162770793,-62.4332423743555,-67.7027549262977
-104.325166631148,-121.138767990626,-87.89704028902,-115.845893870701,-152.010898346866,-84.912504160778,-82.3815163517898,-104.018946862123,-69.2858819256073,-54.4222632911279,-91.2553575691344,-74.8235210095608,-13.6324056090339,15.9199111053843,-259.159902866234,-221.01066541117,-191.124466746401,-242.460884531836,-179.573159382,-206.620430110923,-193.466401985514,-170.573799704875,-164.889810683999,-154.454015480083,-134.387299182484,-151.460455372203,-114.118157126462,-121.705318397443,-118.014593281611,-113.798844330432,-112.506021346506,-105.960318736079,-115.355851424661,-87.2839337305425,-101.545790546116,-85.4765730151044,-97.7218838035398,-98.2135227463555,-77.0068957481571,-87.3555862152373,-89.2324215399605,-93.3518161577634,-81.8410186942843,-66.0109266511713,-84.8816191451955,40.8527565947706,50.6855964171898,16.0591230492023,25.4145444985643,-32.0041276840913,-7.02600818836202,-53.6065064564791,-17.6622892543602,-17.3992144844286,-73.9217926854317,-82.1530279048427,-30.5885622170844,-82.3621419481361,-64.5438698793288,-71.4593306283995,-46.8897894961165,-77.6864342764353,-80.6368369356312,-94.9674644536748
-147.074217530251,-159.886884459369,-131.398300016322,-157.004047511429,-179.230814934755,-140.2763894001,-135.948423849899,-147.844633122283,-143.551912053566,-118.028558859243,-122.922209108561,-152.952778829741,-118.773744687546,-57.4949184430274,-261.203753047499,-264.584661266807,-132.357299743387,-227.984862109715,-181.849796162768,-162.71260496732,-181.231188610018,-129.906269181637,-143.339354258162,-146.750086146561,-111.374293229719,-143.031900429585,-96.4960111415274,-117.357911933565,-115.650362843839,-104.929889541114,-111.017081578015,-108.624069406885,-120.319508622131,-83.6123321429498,-101.538996743946,-87.4340999380005,-106.204689083087,-110.822016206621,-77.2606302683314,-90.8153980467888,-98.2840336248936,-110.748153336391,-89.3296599630392,-78.4872957258618,-100.788511680551,38.2802788588338,42.576298407061,12.2419029024134,13.4703583592727,-23.7641895585418,-22.2022943470803,-57.0774879231559,-31.3735014848085,-33.9018642325894,-84.0710992302576,-80.1479274370322,-54.9154340733395,-95.8011556544992,-78.9561125719721,-106.011024493813,-87.6688213428858,-88.6205207224842,-110.996313353702,-123.594095996216
-157.817504810053,-171.759290971241,-145.909828143551,-170.809734884372,-182.918441103049,-151.858185854742,-166.785825557501,-173.776783819515,-188.219293038898,-157.386580312224,-142.829030301231,-205.612020199434,-196.419096921087,-113.939450561849,-239.320061400022,-271.11216140856,-88.1658604335308,-206.829078196797,-184.632097429634,-115.891383165152,-157.482872051538,-89.0495247159459,-117.142147841133,-132.17654334882,-89.3774253474602,-123.360807741058,-77.6027349387008,-106.086092911717,-106.704615682235,-93.2431771897238,-104.904572616393,-105.11014244761,-114.928802046169,-78.7579625300669,-91.0805677181826,-88.2475453278071,-104.466576590361,-105.851626753146,-76.743923582936,-92.5647616052291,-96.0113988745461,-112.563010780348,-91.2772864294786,-88.9156240386318,-104.4377306352,11.6033282773258,13.3313424494038,-8.75972189439635,-14.9713668515124,-23.8324430375236,-46.6650982808916,-64.9845066964266,-49.9790155846819,-56.1621132314175,-98.7940164673018,-83.0233601772869,-82.8986058394055,-111.7791716455,-92.9919627760008,-133.548204143046,-119.914674791303,-103.058215524679,-137.822793640355,-145.083784233047
-142.118813880768,-158.068501103877,-137.871008443202,-165.960290282622,-180.036850795942,-133.304706567177,-171.718388636262,-178.690409516894,-199.960095968618,-176.344021469828,-166.382775926081,-221.201904948552,-228.099424073689,-158.146042075916,-212.522243826042,-254.479707910086,-84.9935220654237,-201.451188603654,-194.530822934816,-102.320291003061,-148.027689163322,-73.1174798682501,-104.249571398766,-130.792140087862,-88.7129172570105,-111.79122964366,-70.7733043760632,-96.6303434869621,-107.15243235989,-88.1401353501446,-101.133544866008,-105.856428881896,-111.136139932312,-81.6814214784736,-86.1121221769361,-90.4888231822683,-99.1862750946992,-94.5836528819673,-80.0781630396886,-96.6506144860876,-89.8543841139526,-102.013474561471,-90.7943217933507,-91.7977370955532,-94.9645753146688,-10.7771759315168,12.8507334184638,-17.9217166885118,-16.8140976115579,-4.37686125094372,-58.9164270339908,-47.220462279741,-59.6325013782643,-55.1447331216334,-88.9398528601729,-66.9845439123477,-95.1751415149605,-102.682927191468,-98.0141135881598,-132.507032808956,-110.863350325138,-101.36156663297,-139.304898420382,-141.687512061999
-113.568299912141,-119.413290394262,-117.471868344521,-141.261947202967,-155.439088207432,-113.858235908578,-145.94369503948,-147.381695515511,-179.519618137456,-161.826412318748,-163.974895842266,-201.777058996528,-207.98460575129,-172.401968539392,-187.007147862666,-226.824855807393,-110.13378276933,-205.037985917757,-204.573140008844,-121.361145188503,-161.999887643993,-87.186786140221,-109.108591470914,-144.206014611392,-101.881011233688,-118.922063290347,-76.9106519140176,-100.344377366665,-119.643992086735,-91.3892135642801,-102.339832070292,-114.403277744,-113.888599922978,-92.9979368102761,-94.8533144379278,-93.3984571340906,-95.4652206581836,-88.6607619499388,-91.5322338955455,-102.968410602517,-89.4736613393838,-90.9927514534553,-90.7748067295571,-85.3041209674227,-81.5780311091529,-20.2541696552464,42.4881200567675,-12.8226307385129,9.90502332486115,43.154766560708,-55.1530713179691,-0.143693886775486,-60.7938221712259,-32.0487167029281,-44.428629608567,-17.0183185347424,-86.1381685573217,-62.0729609053089,-87.9499174481417,-102.477207274386,-66.4466644779507,-68.4753322529074,-110.789589862274,-107.215512639694
