-138.250707112093,-159.12968123285,-94.2453692950819,-141.078068190946,-169.35167897947,-61.6219722313997,-104.467367041702,-152.387512506355,-62.3469366105926,-125.056355410782,-169.569168293228,-43.425366313657,-79.456095959546,-131.871020575195,-10.9469621258134,-68.1466516441361,-22.1114135653846,-4.78476490267339,-37.6256512801135,-6.88716160233291,-13.7018267667465,-23.6338387616898,-14.1368053942623,-24.7212853304792,-10.0770048707818,-23.7788316375283,-22.4738957549811,-27.0411713438966,-42.3379197448676,-32.6233970636822,-41.467962489836,-57.9246538975157,-73.8738702397603,-33.6383471945523,-39.5830551039344,-54.0823426877932,-75.6862811877427,-91.6354975299873,-37.9881334697099,-53.8648533740353,-64.4493333102522,-89.3881079544892,-65.4642834411223,-80.4710460904161,-96.7102481843379,-102.509963217881,-238.730770068234,-154.779894957692,-245.255449480971,-260.914680071538,-93.0854262883732,-257.869829678928,-70.5390340954728,-167.394275155649,-241.920613336683,-273.819046021172,-109.324628382295,-221.114135653846,-78.4411458286758,-85.1833145551702,-146.442804596973,-254.317504220883,-60.3170363488524,-185.083406007957
-630.912683847516,-744.192241575799,-421.745877599121,-648.38824819026,-793.710337822469,-266.658617009785,-474.091334924643,-707.053557683747,-266.546230992576,-567.870807396769,-788.725115307419,-188.653227405498,-352.296077385242,-598.031345003057,-67.312330395527,-327.559100837985,-124.057212556218,-46.1199497574552,-191.074740739471,-57.6906957701066,-81.0365682119808,-125.553866786351,-84.5504606348688,-125.711521731175,-57.819666660495,-130.22915876008,-118.020063419272,-141.794078596204,-209.229553705592,-165.889229839311,-207.059030200409,-277.751018839638,-347.339985752828,-169.690194925613,-195.940294516654,-260.606786371992,-358.839691871692,-429.806091105349,-189.169888563925,-259.574804539741,-306.680573545429,-419.432264590432,-311.278999448843,-378.135959599009,-451.493284739871,-456.393911635746,-1066.22032785767,-687.159393095292,-1084.85538837892,-1171.84495693687,-394.92802174551,-1139.49059111929,-290.628273338497,-729.832683578981,-1060.69457659035,-1209.44204022208,-466.835418127986,-961.53333601082,-335.15576772179,-341.193479746466,-615.194181775744,-1147.066187438,-254.377025231058,-831.383840349789
-1081.48296211505,-1354.99647471494,-689.685991221134,-1129.66515765258,-1457.25378770817,-394.702838992717,-795.499552476603,-1265.95753163922,-380.094449816535,-968.413826655262,-1428.86900950897,-278.461942668621,-563.619833991158,-1030.54623876845,-167.468180913449,-617.822676068839,-288.18365098021,-151.606055916327,-390.953498836744,-180.915385492585,-197.01054009516,-277.036933289238,-209.153615074827,-260.00715841763,-136.343498195862,-298.798445481961,-259.387117607548,-310.417199182723,-421.93010702293,-348.775625224061,-425.403819781958,-532.168503903259,-642.537009028453,-355.225550771338,-397.931540525848,-505.698617305697,-675.689375206265,-792.66626170697,-388.941767630863,-505.966876773471,-581.910576700607,-775.693623069825,-592.289428508642,-702.700040014641,-827.276674751986,-765.477723278561,-1794.5092602783,-1148.60112410194,-1803.01631899728,-1983.238731213,-593.800634552414,-1876.00163836016,-405.635879153464,-1168.5972574628,-1703.09682847732,-1978.44808696251,-716.427148186596,-1517.06082091334,-521.061186952218,-426.423501932232,-868.874138364912,-1957.71689837098,-394.240586526476,-1390.97312463331
-716.582004651736,-1124.20732321877,-368.338375037082,-792.240580677206,-1243.73971627726,-91.4461249483578,-461.596539570427,-987.542612299089,-42.5654930244912,-638.50679312672,-1169.53871672549,-52.5377033693162,-265.372675360984,-737.603685907085,-210.191520104784,-524.765183695351,-367.767526138563,-246.114744650042,-398.047852185689,-300.336046716648,-260.370931995278,-341.689223368759,-288.732581008057,-290.169294246058,-179.749414135401,-387.246546910193,-324.371669762095,-380.857581760243,-460.151174257823,-404.627978582525,-477.382691671286,-521.905278010104,-579.31165107857,-414.294909045106,-440.446240331655,-512.092160767639,-637.392672118225,-709.34494788518,-440.665163028264,-520.189349988531,-560.85805013745,-702.518326371796,-577.092346562707,-647.140225197102,-732.462758895161,-534.481734934064,-1249.96104222018,-798.562508917645,-1240.19891880356,-1368.19763539479,-257.555406819065,-1217.73496832292,-97.543217070176,-685.134087604585,-992.471731638459,-1218.55189161355,-355.177724696315,-808.180965372441,-289.995516477079,44.9910108240158,-146.391965401553,-1340.01514774264,-258.071607523035,-848.767575432208
176.060496218045,-266.52519509888,304.779838756075,118.42818568143,-335.239100329543,415.146342459529,314.940573213214,-69.5954665902016,500.45101224849,180.38165621218,-188.642236142713,337.06990336512,341.943380813101,27.6024431910495,-133.589474740688,-60.3483970185094,-336.602462470911,-245.521567474051,-196.180086451494,-344.634659173122,-242.212814256827,-323.463408424796,-298.156953315908,-248.002300945707,-193.361355438005,-373.452646995891,-312.514813998454,-342.048565121456,-365.593764817296,-339.624036120987,-381.697294599724,-333.863392172802,-290.426799541848,-349.852648409874,-347.983086126158,-347.987882837066,-361.073725302944,-340.095765739285,-356.237774154569,-361.381013471695,-340.078984143854,-353.062536128836,-353.535463562239,-345.356955039494,-342.899706397018,-24.543499461417,-38.1689534305893,-36.8910509998716,-61.8040099929455,48.1070011452777,289.235439079659,109.67527043295,351.056904355315,213.898928662885,287.419758932995,320.497750936376,243.793734418659,449.753800722685,115.045682126878,602.227801879394,955.889042447932,237.565037764299,-64.3209705932628,413.240310512165
580.831558405259,222.439978290383,596.40659033515,612.994252111576,285.526877046765,551.713872200889,723.636464943648,525.194492331669,663.637798448071,638.816166935891,524.462123085429,476.957157627175,648.7876360713,436.34388145341,-50.4029486972735,302.918710619941,-378.044568539782,-242.954025109172,-68.2809178044342,-413.268778396974,-279.88171677145,-396.455294731418,-369.19992969482,-319.386434706623,-284.200610195682,-413.763035673295,-357.846635408987,-353.464199672464,-385.465622762224,-338.009281904766,-369.186998254381,-316.06197601538,-227.441640518282,-328.168587333133,-331.010162862755,-322.116172510009,-293.335025374796,-236.251384784727,-326.175658906787,-319.591097258618,-292.04168961093,-253.27550352972,-283.728668210732,-260.665915330773,-231.693144938149,189.472511050755,427.555113958632,277.687293555145,353.982347078854,627.009646555521,515.85904517373,560.655518969115,547.418506452062,557.7582517442,612.793188945904,953.218885229649,470.966092698963,829.787734573619,355.697188172805,663.658458044291,1253.7536105892,1138.8609429477,52.4174668946458,1081.76316046749
371.213056502447,210.193023799443,407.012837804228,514.552968497594,439.311353771652,264.138373514045,581.988105019503,582.553454974803,403.293773302486,591.454276524545,712.714107242924,313.714898085952,543.319376276111,372.546397443194,-60.3035744988984,315.954864517919,-547.259802270968,-343.879490912398,-153.920885628652,-580.473343608101,-435.071921855676,-579.41353136866,-538.10473244936,-500.503014220297,-457.275904615099,-536.948891418355,-469.830133170578,-443.598838100459,-507.642669637538,-415.348699191859,-454.027554843892,-444.354950133219,-358.761500424763,-364.692459902511,-392.900595245903,-418.61637575603,-408.469805532547,-363.675187976923,-363.185930521185,-385.673207800104,-388.850592056642,-368.139863346453,-354.008194441861,-360.616618312257,-354.148229319013,173.428665854329,294.329266520102,265.906778111895,236.172651039649,424.428924948979,554.444896206768,358.251880316996,628.957277938521,560.878958983581,330.003168384075,835.268802217115,534.739122603768,518.63231064141,612.263482687104,605.348796051784,824.204943466519,1041.84836823104,417.388229107077,927.917210506472
111.786302740676,165.639972527737,132.363577028525,290.157503543932,474.877562422238,-83.8763636730998,273.212037964866,455.523185413531,84.6038123807033,383.019188802574,651.88175439728,105.416853523677,304.030106186055,180.23151392563,-76.755831815019,149.494864389452,-664.551975519762,-435.068744589997,-277.06768887208,-706.582192228342,-552.963076969762,-703.546445894397,-645.755802607428,-594.335111362557,-581.033004661763,-589.130023038859,-534.892591882056,-487.04501750533,-527.632811509232,-443.023733136208,-469.186551458597,-455.08410949253,-361.24990265777,-368.044623480172,-395.375901006655,-415.778312141794,-391.196418903471,-342.311243483749,-356.456308223116,-369.382344053997,-370.432141048313,-340.946178840905,-332.774360494073,-336.741096540387,-321.974328564877,165.053759937422,337.827222630892,326.379487993018,337.292986999679,397.784375286126,606.073347086948,389.318110463967,714.052439704838,749.864039772611,428.555550861474,841.785498703977,747.568846237405,365.022240181454,928.052269267169,855.67457994493,485.576608325847,657.256465692821,980.748362695294,666.071170953658
-0.491505632127062,143.8353465046,-38.7344493979184,115.260278077358,400.867498013691,-284.043545095021,35.6845532169921,258.473031386216,-91.7787345984261,142.64782325762,428.144586214991,7.87824959547068,109.831566642991,10.3539499966813,8.77360605241603,97.0546385080936,-582.198806055719,-335.366548382396,-200.242680847102,-623.548024550357,-454.163727385252,-666.676968959596,-553.792670209097,-479.750892828863,-558.021587043557,-470.438437460729,-494.093449250583,-409.059948388798,-381.839917448064,-375.208984743454,-354.285934886868,-292.384142759071,-177.00465090047,-316.59055015932,-306.616260825074,-273.308458362475,-197.513997558325,-125.491946381466,-281.998915510966,-241.715192830213,-209.984109074976,-132.424155445488,-194.060237507673,-157.221147645825,-103.581751070325,57.8524863394844,516.399060911729,308.975393850619,543.244612709649,655.302569296417,443.17617364301,559.450652062563,572.954075067817,906.541024464766,759.692813897336,854.530959908583,844.257774251225,405.043234389224,930.830286613491,1005.80866081288,441.559652233161,406.066258714193,1146.28206980762,695.8989923219
-48.1644876350451,44.1271670047403,-96.6077296231211,-34.8359046871429,195.894226104389,-302.293885423165,-78.3896516480047,24.3607389347024,-107.576170841267,-88.0585601450829,153.225395721381,19.1582937926439,13.7360241105214,-59.6006572212075,162.318079472535,263.537574288551,-289.826492606863,-40.5062640328718,110.639447062532,-312.464570557903,-130.932789430588,-456.682743081999,-259.945854683227,-179.714948518438,-358.199615666533,-191.755805192175,-323.467005494457,-195.522521953468,-114.053995045946,-204.550825309728,-125.813127637994,-29.7101931269903,93.17822691245,-185.422449227597,-129.338145799209,-44.504106340456,64.0135320369649,146.340624965174,-130.869415219968,-37.7255710391384,16.9924696250608,132.062480611855,6.62895830766976,86.087042881145,157.944741563857,-169.434484550317,638.269611781892,72.7615100153479,604.774193260139,858.675082107216,-40.6070528088206,549.999911845867,159.001042816643,732.675295225058,856.154202797361,602.931068668656,638.987170824255,364.672914072462,587.163131952159,687.717562361767,358.169415842385,294.121501270445,803.417290526631,798.495879743311
7.95075647415827,28.1849312013696,-15.4244671154842,-76.6982477910098,91.4175281515165,-135.777455374004,-59.7483920299642,-92.7260063900739,-7.48092921134201,-196.064518326963,63.7819341614065,85.4022164110788,-3.14629484484318,55.3830572856998,299.697613466403,467.750566276164,130.163408691197,285.79301943606,448.304552836377,113.675367487872,254.208736737548,-93.8694466194277,140.17091442048,195.649273359945,-10.5695380347271,180.917869974632,-15.9991218999475,136.502112669359,234.759873209917,82.5497078643672,200.349817161191,300.116180701887,413.954756375718,61.2026940332025,153.591457953774,264.381078134676,378.058348732795,453.084531171285,120.208258366172,251.193192170656,318.674695576149,443.32260464697,287.508125522882,401.40942990926,466.422000144954,-254.406847581579,934.24393050189,-130.852256738433,723.73544519124,1040.25093939803,-504.380442105328,632.285060930913,-228.213754188469,435.398523274131,858.735306185659,480.649710428934,447.096483657486,355.621196846552,346.338895818015,271.119888196015,125.504667132148,267.384108697701,500.444323670838,584.060278139831
164.132526891146,201.390902736381,130.907650727243,32.0918468055896,207.085607065474,100.201440633364,20.7193916378703,-21.7659769053778,77.50762435385,-137.584718091146,194.707558149792,130.116557885482,-11.2451681313146,312.167249543104,404.708281560791,522.239782338679,509.948877901018,499.086028515657,607.926755572841,481.613999196043,523.172707443694,295.942984604927,489.430992537899,495.563392806455,345.542215947342,516.892396108556,322.524807953301,470.532150596102,564.809033114275,393.5716155499,524.840950873464,617.848998060657,723.108859807436,334.108460891141,454.054295356479,581.991046063472,704.007201950874,776.039312736525,384.779209315894,551.493924197168,639.545472477874,774.903620267067,595.870718226016,743.684410402067,812.69758650674,-71.0697222803147,1387.03463590265,-88.9548244866034,970.399452320309,1303.86015460261,-658.284379876066,1009.62105862145,-426.890014503489,252.486903353573,946.582107018796,767.453038147017,467.828993188668,549.589509854159,410.272281037014,94.385992508907,-143.345957559862,354.038809767567,460.01569172616,-34.8620985774787
310.213302546584,435.514757721775,206.12656387095,220.18326480578,407.372523731633,231.470938877941,98.3609297357276,179.490220361863,62.1135395220147,46.184459405184,363.312407020955,130.229509038086,-20.1525251926808,583.957852574693,478.834996109553,477.082749457196,694.164930949944,572.194687553549,593.61985349633,655.971681841782,606.783265693938,528.789136990466,642.15993556209,607.978785860434,536.578054360252,667.361773831208,521.061050453552,635.154680459221,723.179628325148,555.937308620469,682.102653226062,768.89793133149,868.115209751847,467.507004973921,599.652871062082,743.900247932873,877.096108118351,957.687294150455,506.713805592578,697.655355631907,803.170978997701,957.764112014598,761.944945025076,928.618024837075,1014.8834595436,208.674113198302,1469.71187356354,103.3695346807,993.018587542624,1352.41342442568,-622.442075802702,1214.96871830625,-544.260452352609,55.2546524614011,796.837157555707,987.67149606259,414.89779125073,637.606976353926,508.325249294137,-83.1064274357438,-565.920994987413,428.591798039562,351.69099450775,-820.397732407608
469.180518000312,649.621698443719,247.666648386728,430.606158830216,568.435823145209,254.566990926481,214.934598134572,433.707218016992,44.5750906936427,306.084687154728,472.224201175544,160.866716225143,49.2335472709566,793.061632479854,477.157911587456,436.416205211208,662.877685145886,520.742692471059,495.15025073548,612.044952842047,520.42479810852,544.828339609481,565.022570743679,523.749161127554,512.176572389159,588.994423138296,517.384956293332,571.975865757819,649.362646127551,504.149683455305,608.17904754597,676.830108725137,755.20856946091,416.186682575668,529.943972774243,667.567864231995,782.106623139059,858.484114529195,444.894369360607,619.945451870627,714.978799866333,859.47939155882,697.676808319146,842.124136828702,919.503185304206,477.5058647997,1108.93842912848,387.789864842428,786.410491033546,1023.85873009791,-465.011305930045,926.146246155878,-519.29477772058,-175.642578092791,240.627863451445,719.770536931244,153.770726316124,237.806478585079,380.799269215735,-419.242356184914,-1141.96382007955,275.788378635436,17.8184898279783,-1320.92974352653
745.346186523986,909.597576947825,401.057443852947,646.091804002218,744.631083383599,307.869124583693,407.887584630494,698.31480852976,151.193687724613,608.975906738178,663.764045774995,278.253573882649,257.76208675057,985.366816747256,392.507419764587,381.737344755842,518.920079257058,375.635921168625,348.249248495926,441.883848800551,339.208358713068,454.77079993322,374.572901123469,352.155936790583,382.355873658712,404.097653425033,409.915518485179,404.607134050537,463.961822438903,355.137242087169,424.845819817333,461.454555948607,500.450247437908,300.532199188198,373.431286772968,473.019223952807,539.713872148499,588.846390999875,320.685034686161,445.528512646211,507.262176951784,603.008893839659,528.709304296795,621.917612264165,656.110874204674,806.149698352421,1048.72103941781,873.079591933994,952.990204753905,867.583584377802,30.630400407078,708.361450013157,-130.854324491733,-71.2703624825978,-174.652191242815,400.698868375492,58.720583782606,-291.229926632205,64.7390326529225,-599.066237661329,-1303.89749395539,178.680762768074,-332.058896072504,-950.185594002072
1081.47238103561,1248.22835020356,647.85862109142,859.461145902003,1069.29463150503,444.832659285571,610.447036491985,997.495835457183,338.690192002766,928.9737651713,1120.98888756492,417.506087737819,556.180608869269,1259.39010982942,307.065145167594,311.154991281041,387.511351005656,230.312424586953,200.760493414009,284.636235238011,186.597750918249,387.827827103054,236.907166229641,243.644502623425,287.639933922083,283.95886242788,330.588047756495,293.574677425386,344.294030024838,261.919306595894,304.98658961581,320.408463372717,324.773140992339,247.533864040113,287.205503112391,348.124005168666,380.815151155169,409.29019730503,265.966555575151,346.377110444668,384.529942463114,437.960758662955,436.187295963884,492.772527961476,492.699811037342,1123.75041627113,1620.13454769945,1419.1109947186,1619.24692438111,1326.04047302253,751.281795162711,1089.80101886414,449.747312869318,422.812566125664,109.404983152536,619.002938744869,290.212033142358,-152.255680379504,-162.936000092285,-398.709221673617,-605.563512921782,668.860667762786,-424.3300277679,328.044506322593
1296.80667912532,1551.27021520532,804.300166110291,1039.50440730392,1487.93031823575,565.273122479232,708.931005505317,1294.95317998919,437.002924113228,1160.16631996557,1665.23646462888,436.557018846958,765.609462779197,1510.68136968113,256.82194015736,284.035755349807,313.375637940974,158.597576855419,117.361421104929,197.234528189749,119.00050512027,348.242954791735,195.903464760014,231.602734644634,247.537421259388,260.568060927669,299.386220343934,252.181335987106,317.360208596971,239.936166223089,274.373352484245,290.604586795436,286.341417155124,251.717479680337,275.920486696329,317.362176404681,351.000787875763,380.859775668887,274.009827081299,331.640075921401,364.662757593235,406.64306409142,425.388210086142,469.258437831246,463.149805687709,1215.63446997332,2071.17500120694,1628.70599737626,2026.71659530378,1838.57580266441,1153.05331770317,1604.0660537497,742.452141965266,748.414514053106,823.696929507768,1124.34095481035,414.850449678727,721.163280605516,-49.1716893303013,-6.55015445550512,520.848130890143,1472.72070358731,-87.5430293257206,1518.31281273527
1285.34059472845,1626.22936340886,746.346050258297,1076.40274277296,1672.3378489819,541.88268252979,623.369831009766,1375.17759556936,328.821534336401,1117.00978058962,1788.17009390471,249.780218769784,702.711506704332,1434.94933602194,183.222011160754,292.528037490982,272.332360388501,144.07571351518,118.027395845041,159.183395112089,111.356409497255,297.759568639534,194.700887336919,252.701787038509,212.110385109259,264.935831050771,261.889216629339,207.933059058961,299.258823368179,221.488062478571,252.280746990821,270.888872856243,272.093480001671,247.257279327228,256.634840634714,282.772614186793,325.821747268573,350.173105483313,265.44083963143,305.019798855893,325.020076102944,360.522612582751,384.996867777467,409.534718095272,396.812705184863,1052.38191603944,1720.05817538741,1393.817756918,1683.99203547113,1650.62760948136,1033.67793700974,1540.29309057918,632.725615518321,558.820273936212,1171.01176660473,1214.81360367759,144.513348988666,1431.94845999229,214.712546219415,269.803977620388,1214.13574362053,1698.8865280276,436.313840300235,1702.64026622741
1078.78240601615,1400.51937397593,520.391573552915,886.322996940791,1399.48783047736,358.600513229077,356.685303681944,1096.33244185855,44.57120639837,755.198861426363,1295.03226943921,-61.9910134114011,363.594294812242,951.70650370927,75.6880083052306,274.404708895392,267.426283378553,163.229974122716,189.056357387128,185.26989210264,166.514481146979,283.592271665707,229.261382293058,300.13115517172,199.077633574987,291.306893298905,227.246207254546,170.924300342273,280.637196356673,209.070656583204,231.09535940202,239.086359084426,229.743223550918,240.140246596395,228.223417511944,235.204051874416,266.344708956107,260.418178417534,240.535018719744,258.786318702548,248.746592741005,261.141367983087,301.925634939684,293.635955909631,258.772769884737,790.497986593079,902.548781501281,993.679782843367,1003.80747198737,950.352334386496,721.316396068268,992.091753151686,404.465190942138,173.027740904127,833.403353605864,781.132726133166,-226.746870795472,1320.29073863273,139.280776229151,237.176452056782,1116.26973921802,1167.57233596161,546.215059056436,1181.98093476717
763.248034037058,1000.20380942904,256.842391993163,556.651905959483,845.702211445663,118.606612141996,20.7188426993538,612.648294700041,-287.156195977635,255.616869816515,553.379682687478,-315.850365685507,-104.244908026462,323.361789415945,-16.7966586217172,173.927982504997,302.687411214707,192.253718294444,254.075609320996,272.816064460156,256.469606134923,336.345141781979,298.181102312777,362.652725189625,233.559624540363,335.714155738722,237.477722814846,179.901965579972,279.824425683386,231.983415238981,240.198614538293,230.439498415052,194.812502462512,261.314418990451,230.972080694498,220.383053832456,222.927764443386,186.908385138912,242.15140655814,238.651781839472,205.460978728274,188.238078784658,237.432549347265,206.649511903587,151.733947348497,514.086309085857,254.479016782055,633.318234301374,482.213628060529,378.573965740325,465.434321179528,475.227232148434,194.695231216861,-46.8141472675445,258.366230950126,293.570630375912,-434.824439934666,702.928468286657,-353.01403434287,-132.801858842082,539.283523918187,507.51314215861,86.6470139715969,682.985605632263
399.764663745036,579.076583588802,49.2664484005706,236.534506146744,306.156061308668,-55.9751283572964,-217.501910864594,154.394186642761,-502.191055306366,-167.210097896484,-50.6652148391089,-403.510939598298,-515.833840764492,-220.336157584743,-87.9455067013479,-25.6728673771809,329.705020127916,169.85344742019,205.582066800354,334.216883595498,272.613492902013,383.713609184783,318.353017066539,346.411252910678,259.835581798991,315.901176601499,261.310915791282,189.852405373963,237.352673605715,249.86100762191,233.322562583762,204.434006925686,159.28330243536,278.992023574615,231.636364378027,201.021953382088,182.224789459231,140.228038517437,247.015065252471,216.856215900564,176.7112907818,140.600206118886,182.729880289587,146.134772613799,88.3461180172031,205.130880204368,-184.326761693884,263.043062333055,52.1487947405466,6.62575792616841,208.032743294162,61.7626698989944,-76.2693550411757,-183.150380242727,-147.825130101375,-66.1512687599332,-618.682778067973,95.9611697432831,-825.212695430941,-641.941418377516,-59.908508007948,44.044815704455,-430.214999243224,285.458583181396
58.1543581366532,200.897174469837,-73.156802989011,-13.0095752954491,-110.511639923389,-116.278062157295,-277.493427256886,-186.661027680714,-488.385641407202,-400.222225045225,-454.705685861139,-353.323281294527,-693.650319622424,-634.473883868301,-153.767511451934,-240.709667576045,318.771258460931,84.8333411286765,54.0926096945401,316.592281327513,183.052496814742,377.595676179413,252.205792670089,226.327263342931,231.603313862839,212.695000413863,247.061402488282,151.775511101932,128.633004232161,224.739746356462,170.732075320119,124.952093614173,96.1131872940582,256.50931309291,186.861189443629,133.08425623848,108.161271327368,77.0637569794535,215.327642606161,155.369988582124,108.553720639625,68.9554395427838,101.928104967709,61.2237168233575,16.5208327542835,-89.0398829996967,-639.672287489982,-124.835568790215,-454.264777458567,-422.905077533229,-51.0873353581284,-413.551672368949,-339.472736745657,-363.381064910488,-422.464353124499,-474.320353646456,-800.83152949777,-378.449526206316,-903.088935720125,-916.796012264048,-401.551884430637,-359.214884454021,-553.934777061162,-134.801095822675
-162.417187211864,-94.2251582968956,-122.82754121984,-175.021791554411,-390.837680655693,-100.877351657951,-230.283937828115,-381.774873624247,-315.549158133809,-436.840353223041,-689.009912484487,-250.129079124076,-608.187794054158,-884.551490649698,-208.695521332398,-353.758297942169,298.403732863033,9.18544436314559,-78.5910006947629,273.236454757434,88.3092896372857,359.465948023892,180.717230812147,109.171523502157,188.659189970588,129.627420792833,217.69362066578,110.324600744754,44.1793708894243,194.582970432715,110.478397578415,56.0453528281896,39.1698737474161,221.319641036821,136.212740732802,68.4232697248623,41.7564737830022,17.723401455834,175.561101299194,95.4547673276781,40.2434873519512,3.18030278533218,32.0251361119486,-18.9522936474758,-45.6448628192522,-254.918110357315,-1022.80434570614,-375.128335234342,-851.800302514045,-830.12481690758,-163.287081945228,-781.796507359564,-440.069976710016,-429.92137630711,-570.414831406902,-832.617580288516,-752.185159545691,-625.117594377838,-640.360834720883,-776.70316317656,-395.668775964692,-657.661443519886,-337.692599750761,-374.692237812301
-234.676949610579,-255.245346709381,-131.954049620597,-227.625589298648,-494.678500797985,-70.5412874140111,-167.113828921685,-404.921033250283,-149.625197640367,-348.1516364078,-730.742775507873,-143.082589450536,-414.599267396854,-920.37678730327,-232.043514810535,-338.244956092975,314.279795772545,12.856871311083,-99.1485616532587,284.501834334548,88.5843506133859,384.616654129856,193.441690764484,95.1431516294915,205.137461107168,154.229084973617,241.075740199453,146.031791880555,73.5369129100375,219.205956895081,134.782262729841,79.1472953275572,48.6078124453158,230.670355937697,152.463689911938,85.2657895711023,54.2908807621368,22.7608121125176,187.888379935948,103.974493834384,49.2338347221272,8.47595071403449,38.7460226426587,-22.907756515879,-41.3651749148903,-281.657018617261,-1139.75574767084,-429.221780595379,-932.805159296516,-1007.1036736957,-147.973428669958,-830.397862860908,-438.363621475348,-308.407733254596,-495.131228107721,-876.376178945276,-535.9351830889,-549.292093510735,-371.700099085641,-492.076997122173,-191.836780078045,-732.491757534623,-133.496199738007,-371.986769410582
-231.343893203439,-259.502721755494,-123.500800503063,-174.177439654525,-415.581075418402,-54.5052662535336,-84.4432518639915,-281.797193024017,-39.0386893491432,-202.308076937574,-604.705457440798,-52.4431893786379,-230.195760334556,-770.599297194277,-194.126884070155,-240.136631017217,387.185433401854,103.800793009567,0.245315459785542,372.013288528734,187.504194734175,466.165409527362,291.91970652059,183.942061324934,300.800985023797,263.090764364862,331.482751597865,261.197599246643,193.934184888297,303.231721100575,239.702631498325,182.557606048743,126.930870514233,298.947573572825,240.732134998599,179.664359031693,143.011687506359,95.816336623701,259.166572445672,182.850979085135,133.162051567418,83.5107654674517,117.616501667917,53.9944004975879,27.5516118901776,-278.765649134895,-1036.11181824872,-423.429558598631,-814.501260041503,-983.500887187307,-193.641199393045,-714.11209377742,-423.729834325726,-187.932693149489,-312.364386803658,-678.707244691839,-421.865074406068,-349.976560583408,-296.671795809495,-400.996966022835,-69.925314703041,-716.024721423415,-215.209939486235,-427.891622844735
-222.535945649085,-158.747292311663,-118.178885948312,-72.2675835860693,-245.029556256034,-74.0144452543112,18.0291046735153,-107.105593600327,35.4534258235312,-45.3367965869689,-406.913240172261,-41.1557430922236,-67.931175260623,-530.858274028319,-111.30056045455,-132.647398486739,465.853533240369,211.3201103596,139.116375919327,468.509341333559,297.717238987398,552.022235731891,390.986659259627,287.078767453856,399.784966618021,358.358382873265,416.7123743222,363.922496896117,296.703398850867,383.559855374738,332.186177298523,269.739347187996,199.224407833752,369.613588391677,322.396046166206,264.342126894143,220.472231303015,162.85470681778,327.29141284789,258.182796518769,209.360234732064,155.833223970273,189.344760469661,131.228556510918,94.9227100504999,-331.609433127851,-884.644903678007,-482.303696424571,-726.199456584306,-864.997195349931,-372.862996626773,-642.951995136093,-363.099911927929,-216.496763678884,-206.864141564894,-484.062881952237,-424.469793645287,-251.761907144902,-367.92624044261,-512.008573214197,-157.519990732937,-674.738898565312,-587.928983046138,-649.525310730017
-260.063324890546,-96.3552253754372,-172.913927123212,-44.1089312051143,-135.517041119163,-154.311498816166,37.6538022075538,-26.7647265153414,19.3049872826526,28.042355947402,-240.341084407559,-160.120455336454,22.8687094787506,-308.383121557247,-70.0117219324473,-113.547201883019,456.293182211831,231.042198026528,189.402761189921,482.927989244325,324.52726053522,567.352023399327,408.231122981853,312.088479645624,416.88348067974,372.729955908732,432.104710423871,381.457243917392,309.210660136407,400.865283070485,342.53139219847,275.254517694243,200.229046316908,383.034576032285,332.583982954983,272.889957888814,221.102091489212,161.806263791202,337.760107074928,268.1845430778,215.819680506919,162.923487999285,194.036910382679,136.817941690389,106.703198951391,-437.474695742833,-800.782269640775,-597.681984840081,-742.453020704754,-724.273385605139,-611.656447481292,-622.087588607739,-380.960947918373,-393.101180002542,-244.506072063916,-403.507265133392,-487.713721143097,-278.790930081855,-570.985981798743,-721.123369074227,-424.736884826994,-519.779922025079,-1101.15794537283,-784.788514739937
-386.101391022919,-177.376678289261,-327.035642561164,-172.380856721152,-175.372059976694,-278.56526857225,-96.5343733741354,-148.990637949186,-103.532946974873,-67.4309817794896,-178.254295248118,-313.425951147226,-10.6658400014305,-180.323065988752,-117.367890044677,-233.384337796513,341.921335472851,133.330215037264,91.7471453098481,407.570959369049,258.238448078753,511.557082134995,353.847377089197,261.705452957806,371.913218216198,332.660127670817,403.2373550022,346.04734424686,268.472362617854,370.615550650371,302.785411103564,234.095886586535,153.168612492972,352.942614675026,298.207865455683,230.915235354573,175.684235735713,113.097016652004,306.205037834423,232.20333345156,173.885229804839,116.306688431491,150.104088286589,87.238007027114,71.9093828822424,-540.745345228569,-825.451666539618,-694.697092527579,-829.601392723886,-701.126476073481,-801.188116375753,-681.368124134579,-618.639572708757,-620.523978337478,-448.018578029658,-505.037303934011,-625.240414049812,-469.709512443349,-862.871859191071,-954.77654863639,-828.097951457423,-400.084936337611,-1512.61555742443,-775.616489095003
-529.408039075246,-314.188197098902,-497.238200242855,-350.515937869911,-294.594503096054,-382.250934057587,-274.485538949066,-390.240607023286,-209.492653338638,-267.912223092971,-234.705131669095,-349.106501803262,-121.745921204377,-171.521521107943,-200.571174324368,-426.911181816855,203.191092482093,-5.42805581165474,-82.3290636616175,310.570637997374,164.47942089386,448.185745769616,293.922250293624,209.462134102135,336.13314731986,297.48556876437,382.651056319822,322.518783192548,244.935937965989,344.498788784286,278.238090060414,207.031501424837,117.453760840594,326.778654173004,275.182260388524,198.451382458702,143.852614377912,70.9627951248771,276.769127534725,197.629682094466,136.471984077969,70.8639063928063,104.780849375818,42.7450633673841,32.7223950240356,-587.925841101468,-914.095863642451,-718.457165289551,-917.527602478795,-874.528437054923,-835.486823477411,-869.693497609081,-826.496917561079,-696.696003840289,-719.969270033425,-786.143807253618,-647.741572844736,-790.305056796559,-938.407190554807,-964.380326516193,-1168.91005616153,-562.815521675544,-1484.40246013148,-836.089196083428
-560.187537531137,-375.646491621061,-554.700521996255,-417.86597294885,-380.450225023569,-424.110325563255,-357.182004926732,-546.778081573178,-225.779843921566,-439.74011306384,-357.983763965558,-293.239918048547,-258.460687605051,-289.178037264041,-269.489895573754,-576.594043331318,108.550189110502,-93.393008657104,-209.934251291565,246.243684194536,103.91455160056,411.614969950764,261.365639029373,187.21869003378,320.74653137195,279.4349846342,373.202727290846,314.034096295196,241.976509476224,334.35310975426,274.998947209945,194.926311060344,97.035868903766,313.742761591524,265.921303130093,187.270293489608,125.27201550835,43.1225224899492,261.056277912751,173.702520123758,113.919081726175,43.0698346417798,72.338524673917,16.6384900483997,0.118112296154173,-583.243595253252,-990.258240288612,-679.372906600042,-934.25704667831,-1112.8228887942,-694.834501706627,-1033.49006165506,-706.616625380084,-517.332206552263,-830.602330264558,-1054.5123845674,-379.903686224827,-967.171988855398,-621.967778062009,-583.343098951626,-1124.37417156919,-845.156752494402,-973.441322836898,-908.004354676714
-518.303994151561,-417.005322788965,-513.463025576039,-425.102822786906,-444.739703607472,-432.575553679147,-387.227810075669,-579.853246975903,-260.280375809409,-563.467635983674,-487.886954737243,-316.046687886907,-449.533767090954,-526.815610878353,-338.821046022711,-618.031046715202,62.4953832558098,-98.3698404288353,-234.980940360791,225.407735121833,91.0677238933876,388.338773280124,245.05334133367,163.019323217523,295.375419387611,253.196023595935,351.051949701314,286.062665731559,213.707063038311,311.690579698345,251.032817827854,156.145793638604,42.7952710554119,290.061366595667,239.028571061293,158.900718991838,72.1658448759374,-16.3901149283157,239.330688231823,139.080311772841,72.8087988892457,-14.2720980319333,31.4863443134476,-35.9261063628951,-66.3554942033955,-586.29356406714,-1098.64447843416,-664.963668833816,-949.419311276891,-1282.46545741879,-524.447675057308,-1062.68476764531,-425.84740931036,-309.181444088538,-776.483660575623,-1173.06037301926,-76.3075035667541,-905.286763694071,-230.309635702895,-163.689524824222,-776.882213438581,-906.381062040672,-460.629444773227,-774.228310580616
-580.718149434032,-560.106826863565,-508.863432394611,-538.279293561703,-547.014264772286,-466.675317791695,-483.794628171081,-621.521638525692,-410.917923251202,-693.661412232561,-612.515294209284,-482.209129700738,-699.875083902675,-815.275727853162,-427.484572445432,-581.588567524936,36.6447794674501,-57.6704202927907,-206.663033032004,220.473064358373,94.5827492968145,349.610073446464,215.349352019797,103.818145501642,243.089328695343,190.9989427192,295.542625305014,217.69911815028,129.094847640366,245.880825480342,172.484361531764,60.8911472523536,-77.1464877979928,229.67520759748,168.914754914728,72.7320881179257,-45.7253922575809,-145.421384227334,182.110277979755,63.6446409518964,-19.1597572358207,-144.683063277178,-48.3537886176359,-150.879144481792,-200.407405142316,-646.878018237612,-1337.44769399484,-773.619275006717,-1127.53478186042,-1440.50605708864,-501.453237992564,-1146.44617665988,-309.340167597506,-385.401829989237,-851.798742281517,-1271.3173353843,-78.7966320065231,-910.404894352899,-110.236575264989,-154.848495080893,-642.269869884826,-855.940547802263,-353.53536837958,-631.908780955494
-793.267199637699,-786.555392656335,-603.56289105334,-763.422746686886,-669.708832254208,-550.575179723958,-646.754118721336,-725.65700263133,-608.329641521778,-829.55408833816,-753.212581775947,-685.860069489363,-921.994677117302,-1060.30752403933,-522.572227710217,-546.863508668477,-13.1662747811965,-53.6989802462345,-209.434058385708,171.338967756913,59.0510447071378,269.938457846042,140.42138733865,6.41221584527501,153.660109937648,79.3730948098562,194.786443089803,106.546335749632,-4.46287328069456,129.979673380555,42.4179317791865,-77.950070287248,-229.504158964428,122.81837475106,50.4735052558057,-66.6152639356168,-197.840270188223,-307.181851011338,75.8564677090794,-60.9096851105823,-151.25732233085,-307.675005647958,-168.60310339457,-296.018300084243,-356.773126199339,-714.016177552154,-1564.90990692272,-927.710949327463,-1366.05550394803,-1603.86900866609,-570.477511817456,-1343.07682399131,-329.263680996329,-649.879345587312,-1092.60810430046,-1419.78024403959,-275.305591289288,-1115.67551747958,-190.796368229587,-432.248934485776,-878.400489798018,-1010.2182210487,-514.641504772006,-785.255665793502
-973.989513832462,-951.351191269637,-705.624590330713,-925.314502876589,-747.292032244481,-633.654694403851,-768.610757006614,-806.998826337368,-719.619965592227,-918.689703725057,-877.505172632429,-781.446673678417,-1025.30941092393,-1197.9992952182,-568.493914338195,-509.929613575994,-99.5168785844144,-109.866295828575,-241.133397089142,62.8250100697891,-18.419471208962,163.050527874504,33.1620333819397,-92.7146030991879,36.0838026171691,-44.980304099533,76.8307186276921,-13.7912118539282,-124.568469887289,7.46054964854411,-82.3428749754746,-185.174838216084,-319.123269537109,7.09396467683398,-68.7697974623128,-182.927984482252,-288.150615823687,-383.872400664234,-37.8104499024022,-174.117796539834,-248.241780981664,-381.970175969301,-263.00084983085,-373.457273675671,-415.720348756494,-623.480305152817,-1413.11319682706,-839.484696775388,-1244.38449901018,-1505.22881406469,-474.663208430092,-1257.00208521933,-248.461874647977,-655.967690106076,-1053.18096497214,-1321.50330948172,-308.626611772349,-1141.73109118998,-235.423127172296,-548.729853232841,-1023.29826176989,-1176.64279410243,-629.417840942517,-994.602324977505
-922.465395907831,-908.936355759322,-689.477120759923,-861.160039236259,-707.291501608936,-629.858893100414,-754.890386948598,-762.473387918432,-700.692958007088,-903.108647963258,-874.153646754331,-699.908036430557,-986.967205385267,-1177.41343058481,-470.105754091564,-354.364968400162,-144.253235889412,-124.09770111582,-201.791805780317,-14.3348994363663,-53.2055741993123,94.7960175498047,-31.5126903923271,-128.777855666438,-53.3048666529605,-99.8518531082664,8.447970202906,-69.4794281325214,-141.0582739214,-44.2502827686059,-114.259163203841,-170.115454123513,-265.197435589579,-42.0460007601756,-106.44353687143,-182.001380826598,-230.815689475154,-286.093200135801,-79.4738494513942,-182.918092025816,-223.388898520033,-284.184088707684,-241.335673674068,-303.873363179203,-300.027395007117,-317.826404370683,-795.211038665158,-411.887930909364,-628.068143125547,-947.057761633154,-172.857002227189,-657.701272462872,-58.8615652788427,-295.376294334914,-511.476384374191,-748.048783272132,-157.375067086487,-711.2679162514,-223.513784787343,-441.868887808469,-759.564743431255,-912.25359593101,-617.811258226368,-834.03777179309
-732.354366390304,-725.067793292407,-594.191553152657,-654.183377665186,-579.128694207479,-554.698162066958,-646.976332081564,-626.227204641153,-633.839733810731,-796.924343907908,-744.781110905235,-515.248392524092,-835.479550654284,-1028.82424369113,-206.176996581539,-47.3630549620591,-79.6383301595779,-21.4030684140741,-60.8501345054547,12.7489457448773,-6.78046869103323,92.6469841576945,-19.5614916122285,-107.293339187857,-82.4903560469811,-72.8596863550303,5.10468570612558,-45.0873008355216,-67.4236814406095,-18.6832831872248,-52.9937149904327,-69.6184771630903,-134.929170976701,-13.6568864547792,-62.6171982895783,-91.342794664251,-91.3828794662261,-111.474979834881,-40.1998604174829,-100.35892080488,-113.760629092759,-113.278642506382,-130.316412182149,-158.569085183742,-116.985886817379,-16.399069182158,-196.085869285458,-1.93661582840518,-32.2734703142462,-300.105899361429,34.7563502313338,-29.4714138517453,17.5866736572113,-29.0453056658461,31.214775137214,-77.1955343154553,-151.553683493627,-197.753926833319,-332.382627599979,-446.87490184692,-404.796505846491,-355.175919958467,-560.095336175199,-435.173177020594
-720.143508483001,-672.517313564912,-591.404151417951,-588.789609472309,-538.262291512676,-524.15305597693,-599.160953362923,-573.307670588898,-614.34143362419,-701.784634646413,-670.09723579398,-371.121690750471,-609.950586857082,-860.353257034034,111.053365317547,247.93188998207,9.29730502542369,113.497086427045,50.3826604595906,61.6010703987189,21.2208217852262,71.6080166914656,-8.24519244896429,-129.951919996888,-115.686365124599,-66.556273218807,-12.4056772061356,-38.3310678112728,-40.7985119237429,-18.3861125102175,-23.2294608986915,-42.658128491904,-103.000136412529,-4.15777541222623,-44.6841560139194,-58.4934578348339,-50.2150071276689,-66.8789591558852,-16.3041954888999,-60.5288721434758,-70.7716267605333,-66.8622996867725,-75.9929206586768,-111.888925476023,-66.5476014791267,69.6745079254648,-92.6696908768896,68.2379959166494,57.787848340606,-110.982124196276,-6.8022796441508,79.2159161947797,-82.2640941006274,-157.047310923423,74.2026431591971,166.781041139535,-411.659181059684,-63.7915183969558,-597.347279411391,-650.962925314309,-313.407225851613,-41.0987806585448,-468.72883833334,-236.183754163308
-910.372694301813,-786.250222608383,-673.986186195103,-704.163974847548,-602.456626001381,-520.834892947532,-619.681313075823,-613.499252881657,-574.999134465095,-605.15236094793,-665.420796333833,-268.204416740113,-316.851242080429,-614.797880877658,377.386646774714,353.154333094087,-1.38825829607355,172.793136859878,29.0762823880567,15.928415711057,-42.0769353639963,-52.0389537068558,-61.1355591965808,-212.179702538742,-202.208498534877,-127.541484409573,-96.3008263836298,-102.265818783809,-95.2561199765833,-94.912521708171,-77.1401084250732,-109.727533233507,-172.677191189515,-68.7785935436995,-91.6915545382766,-114.137307015876,-121.931848749132,-146.029816228834,-56.5098602762902,-104.34856560448,-116.017894878388,-137.862998070932,-109.901948081263,-167.416311244863,-133.107868100281,42.6459677427259,-300.107053270998,-26.6044328955949,-134.829009159609,-316.449157711629,-56.7268310599327,-155.941975152398,-142.903145300571,-371.333227288951,-130.627187388014,68.1259076838863,-635.604568464093,-118.693314377267,-749.146567468018,-692.903678912479,-259.808871333348,-33.634248920505,-256.546297544759,-222.091426990844
-939.735873424383,-758.750219451484,-608.657122350091,-686.631343177558,-537.919584260428,-362.152766778698,-507.641333237994,-516.118494085838,-342.297902337677,-359.564544103557,-514.248527569774,-69.8841103545188,39.4339222994835,-141.076543793092,556.8085125846,268.9667817643,-80.6529107115228,144.727548249823,-48.2149321150309,-99.3996067947499,-127.907856124305,-219.669911634582,-127.497337257861,-233.577507878733,-274.714593129225,-165.927345571767,-182.556255027937,-148.471550950797,-96.9738111790002,-155.380764120587,-100.763649768319,-103.550819014311,-150.638552439685,-129.201866332705,-107.922998265622,-113.256611731657,-116.701225985718,-125.767855563024,-81.8335874095143,-107.056910061422,-97.0197840120396,-116.397858992722,-93.2768145137631,-140.121576540978,-100.714564147844,90.2354827283932,-347.643366405707,7.27972784312649,-157.818884465685,-415.563253527424,72.1389941834895,-239.872386009959,-13.9698748681728,-334.379976092636,-120.791065082228,26.9639620326368,-544.555298185146,59.3736917497564,-574.092965173952,-344.322913543621,93.3338887847371,26.5884220221928,60.603715325107,-61.3679598247758
-645.618415463851,-503.7648645171,-307.642326645319,-404.984039814714,-315.262561132084,-7.00208805659395,-188.040696533338,-238.839543379747,81.184124027691,3.46177098331853,-233.170705541533,231.947771278239,380.269076892189,390.348604951456,579.409251834353,140.665361128122,-119.840012741835,34.7145681819846,-114.448662998348,-193.627372626721,-186.130169808883,-316.195565298877,-158.174280566076,-175.491414270393,-273.331137879781,-143.22108418368,-208.241621891771,-121.82566940466,-11.1999217453609,-136.333632926423,-41.0712294196703,10.9465822050128,-5.31658957877364,-126.272765441062,-56.0888695169591,-14.0725482192889,8.64208441824479,27.050133159528,-49.8002208467486,-25.5417196845476,14.5989172557706,26.1222416991343,6.62412996887218,-3.63713911701156,48.6953209897112,190.036909153432,-174.400640356609,143.718727692675,7.54003039320316,-209.006651241532,248.748572194365,-70.6729874087772,190.286354918044,-106.476753922106,54.9136038618016,103.67215467774,-192.643298587432,380.725078553093,-216.124965290966,164.176181716623,549.731200587869,217.514546186982,298.382877599899,218.131892293291
-313.17390597881,-328.329143790348,30.0941898225345,-120.890163142166,-212.542827721349,344.608933527331,147.614948858742,-29.3876794305616,469.70041622156,266.891977414704,-85.0916175396321,475.976149766912,603.553005698548,629.850738583971,399.963213215914,76.3352925974722,-114.393196742721,-157.597943973566,-260.817489697707,-252.496927838169,-275.910243732105,-332.108858240776,-195.532212024508,-171.70699665777,-247.028280028093,-144.81560332686,-209.952394734681,-98.5379948021054,24.1465635697485,-111.766658412461,-7.61455099564236,62.9591251113896,64.0435891044593,-116.036221938552,-30.3697501639046,37.6041980784767,64.498993615569,90.0654034609167,-36.4317837788842,13.18262131277,58.4248433530986,80.189835865083,45.937926713556,52.8404576018046,94.6695693796685,243.867703726145,-20.1776621415823,245.588612504157,147.035519225153,68.6065044010786,351.847458063846,153.401375514764,324.126863993042,158.367209997038,139.593464257968,163.160759162159,207.816692858329,524.224127307352,98.0709043100908,534.162609168,737.522775966771,351.48337285463,373.59235259107,306.565203340015
-180.611358713813,-358.245312914631,220.338909937063,-4.94126705188146,-267.992362954316,520.526310136945,337.304355138463,42.6787697591498,652.809951539766,384.728175161615,-47.3992471157741,556.468349724317,689.487261848479,595.385268939153,135.984455388028,19.102595519318,-140.200397417609,-378.230297166282,-552.588299925312,-310.690756334355,-424.889523160195,-338.841698330669,-278.309055464032,-258.211723207401,-251.472703631037,-206.169575110733,-234.972727328307,-131.550029682222,-44.3142653728607,-139.894535197279,-56.4715529305062,-7.61981854657019,-9.47074615029084,-142.301779283997,-74.1557075621462,-20.6427430638001,-17.3224623344121,-2.29949016309709,-80.526303648826,-43.9113013249916,-14.6792731080853,-11.700297206977,-18.0302235549831,-23.2040140148261,-7.9587710804906,268.036683865278,10.6526909039246,327.831897297052,188.935150279438,132.090401184173,437.71955830204,291.156001396319,391.090084992264,410.745916155888,138.828214426156,218.899249347518,504.572802758042,518.097109439058,363.626943986807,745.445274586519,700.061504299327,435.188412238191,451.015170109074,164.347197170933
-126.592731016826,-317.610312988441,279.153778376294,105.182005310029,-162.117190074976,518.315106600304,424.051743543166,197.473785503835,654.090773193244,502.828912825718,146.450948121021,489.254375717262,676.492559987356,571.138594680204,-41.5710061499742,-126.307950384608,-222.279555145377,-541.360643236053,-873.368032572062,-372.855975089253,-553.570532349147,-382.10819224899,-375.568354105734,-322.909138720552,-281.974100202446,-265.873953738371,-276.097372977509,-183.166260749114,-119.815414424105,-186.173892937659,-115.392382214627,-76.7934969399978,-71.9622200301249,-179.666189952699,-126.867787164344,-87.1828176108279,-84.7755643749832,-64.700843942932,-129.947772577816,-104.632029797818,-79.3808392703951,-73.4193680054492,-69.3352372835262,-82.6252077689194,-66.0366061010654,317.544531783977,-49.1129721829801,448.268805506687,155.783817128482,-68.0052849895203,565.555368484163,297.250079314799,457.800467038992,611.094943466236,178.212452786431,300.777657334684,668.652689854903,568.942261833317,648.679892943408,929.139754968562,710.889407409451,591.143277340046,677.076478912579,53.2821585906144
-22.1719633355499,-86.8436655695174,252.783950170596,293.828738607523,156.588755932772,380.749939453965,460.218995764757,463.897210564165,547.703458269669,629.690217225392,428.551676309067,320.547190176847,584.441605337547,575.880195456745,-92.2144329491112,-278.658898250097,-318.090204881653,-591.842284562169,-1038.1310984799,-432.440817108706,-587.980000826168,-476.171240951492,-468.091607204608,-325.436175856317,-346.964053239758,-312.214280585345,-337.261308840232,-249.888690211915,-175.671667954845,-247.967506502426,-174.447631843546,-114.933084008583,-78.4562509987223,-234.051982957498,-186.348651524437,-135.637952634708,-95.6086362319703,-48.1032624210393,-182.462946060118,-153.468189089304,-112.992359890499,-64.7533939098974,-97.1763583290533,-101.093971813264,-47.5396635399622,372.231811155013,-203.618483482868,562.332484331902,49.6550844134647,-355.522824658031,742.145015071712,175.310380205459,577.20208768609,718.425528119515,230.29866819048,330.092981855829,731.178029142752,646.974037199694,850.74448448601,1092.65482131555,833.416719923498,735.841150230027,910.646472271401,173.091785404109
6.75463224234879,26.5897906359381,114.990235842429,340.922200457144,278.617316109738,160.271647045294,382.608706720541,535.043666322274,371.497263090517,593.985222334809,441.288136775048,121.066511928747,425.251184202251,414.881492596342,-82.736195011779,-301.882416849189,-382.769268433849,-537.714135701669,-952.705648467097,-502.031099910617,-542.853757154761,-604.866134115224,-578.191682088316,-330.914461152341,-462.538556533314,-393.244562582825,-436.727661040495,-369.456093096437,-286.629694828294,-363.624415502194,-302.114632903147,-227.991215281004,-166.708724653728,-337.198270829578,-312.682224170958,-257.249472650924,-192.157890188014,-126.948193034604,-290.106662351166,-274.816933675458,-231.061787644938,-152.745827863773,-215.672046524945,-216.033452198265,-135.5651140718,369.445790263983,-410.804486791327,576.037700033061,-85.8027443139739,-503.817819308167,934.810024399571,22.7698963358516,762.725938422232,743.081925362833,210.215267795674,295.799870752939,702.748411757941,611.41647296852,795.376627587835,1128.68272257369,977.848337790659,730.316522818747,916.792986153903,533.296454992095
-137.165307864348,-197.559312806603,-78.1802212505284,107.76961747791,-29.5654193914822,-18.1588832447903,175.571274981817,245.766769102973,191.600778699733,334.921287174433,128.79724423879,-3.11991083441975,245.907012210804,109.041669436079,-74.6125223982855,-254.560007206818,-391.883660733183,-437.242496666682,-642.046835681773,-567.376340663805,-456.698258772088,-678.94168060953,-659.130101430147,-333.254447399255,-552.950686950518,-471.177472317027,-522.337494000444,-483.204154786357,-421.420198779776,-477.08485281389,-446.770342641511,-393.286206572314,-343.067759537757,-436.721603549629,-453.798522027804,-423.60367310244,-377.702931504382,-325.465619173215,-409.932760890865,-430.604332812782,-411.862831176948,-349.183122265169,-395.512716242834,-407.932916573489,-338.973059623348,275.416260690367,-482.523474341446,454.240662515574,-144.56915057206,-410.967730434164,1002.08815866277,-17.835530194083,898.263782143855,737.419832184319,221.361958813742,309.150104922733,607.408610939384,563.225998065541,518.674053100736,1060.54034055326,1178.79294664649,693.042227188341,765.287263303777,1041.29289553956
-323.782883864427,-561.420525137208,-168.610118301121,-217.003967950074,-493.045122161484,-53.9991161451564,-37.7443180767408,-181.145740591019,91.2288044864827,-1.69163855411632,-213.774073179965,-6.3292234690736,96.0936534184422,-145.012379417376,-105.318828855801,-299.940906816655,-353.478087304837,-356.562619916846,-212.255385606072,-589.049911284936,-346.129831378511,-620.452956577479,-604.420944427315,-272.697329887387,-515.638228305687,-447.093523069235,-511.677097874123,-478.528054541807,-448.890941775695,-477.941005009802,-468.34788961914,-447.947082939413,-425.907980793148,-440.372468760726,-479.452603568707,-478.919152818041,-465.539203358355,-439.114038224718,-434.473488894319,-475.860495945502,-483.25447728427,-450.19876872353,-469.767663754149,-488.226926692025,-447.164384918061,83.7713851888586,-360.987958381565,197.418909933081,-142.120815223173,-268.361171956529,743.443243364077,-2.88254687385482,757.212896871239,654.317468937182,407.207441783307,338.181051667878,453.469080079929,695.884478833872,267.815693834273,1014.2957997734,1499.97126470349,798.941440146882,754.39982380394,1472.77574508071
-415.395188890694,-783.550792243806,-125.728442245911,-406.550757594508,-759.667670952774,-1.32874050224002,-148.839470971148,-460.850084547412,63.3603335338889,-259.414042744354,-403.524440851222,18.4679632838954,-33.2736135085887,-294.515782480206,-214.537887182145,-507.924957099359,-328.970208930558,-353.342817465056,176.403857918286,-579.281899152673,-247.604658428242,-506.138749386997,-435.137583586626,-194.367429219808,-393.347708668986,-340.078787203383,-428.130743691927,-378.524016659272,-365.639173799577,-383.120790324776,-373.478351052737,-365.511850741841,-355.204480245656,-366.363828464645,-393.886882740712,-401.799196510167,-397.754198262771,-384.58460509503,-371.230586478047,-403.136394912905,-410.750108192053,-385.55441336126,-413.173782302662,-418.910221581817,-394.875622697059,-199.102921925577,-340.08478112633,-213.067394585493,-280.70368353727,-437.218114790648,109.126888546821,-205.14839096306,251.415554064766,295.418204725451,584.730595719887,108.720411850366,129.315663240345,851.741188657942,165.429043970932,930.480351855612,1743.58631567609,887.455904750167,907.727692446939,1502.04407034541
-456.878642553743,-832.758187859647,-118.49534772602,-468.521498336822,-804.479323406459,-3.37526078283683,-199.940557681483,-563.401922962416,5.66959583902602,-420.366137126876,-534.898061553831,-52.5393598175995,-193.876642884747,-435.760001499404,-401.622728981669,-785.873217267413,-365.705417753421,-429.335997865837,399.528019339748,-566.298636847464,-186.668030723446,-471.686122827471,-298.720641314611,-176.416721664515,-321.290512777944,-267.864080743685,-376.493492422229,-314.164175078144,-306.441481495341,-319.19746830414,-308.252707881003,-298.974215024868,-285.579395218392,-321.354242150066,-332.070387931252,-338.288903748455,-329.374869155736,-319.589754929788,-332.606330834942,-352.68867194232,-347.235561661024,-321.781361089555,-373.505862147516,-363.002265924183,-345.703345452868,-509.313786371576,-671.690374747064,-713.056819182921,-658.090616633985,-913.621608762293,-652.442214725692,-696.786060742704,-399.811071243662,-371.238079831029,371.260649592266,-506.278458417144,-437.401167165893,594.507028620405,25.3243100480397,567.679302667857,1523.61835353838,604.114110091164,801.022390850857,1012.07744315306
-576.620409968434,-844.868046107589,-265.474389266135,-536.980754088556,-821.056914310802,-121.231486063179,-289.826230991424,-636.405318804434,-131.279015531786,-545.426295092608,-729.738707683541,-189.631118680391,-381.85721834306,-607.247120401911,-590.928234955743,-849.37399613151,-414.948018108685,-460.025081350445,505.469313539634,-506.791316484752,-107.078131739409,-495.530559727159,-240.023593614747,-170.04846698322,-319.315896673993,-255.924361222771,-381.231395183193,-318.852997706073,-327.509423924234,-329.60426030167,-331.108411141387,-335.684506192498,-336.056810930081,-336.227206823058,-352.621636001011,-364.170676070943,-373.144367426,-377.349920533524,-356.961813886593,-387.653728790049,-386.243448800042,-384.394627605918,-428.998197665408,-419.143978469176,-410.769317546548,-711.710416013331,-1135.82675903836,-1083.01024471197,-1055.70949671302,-1241.63479637671,-1126.38397056209,-1161.85451918038,-838.187497111901,-992.919440936933,-278.194410099575,-1147.32735391925,-1025.36654983696,-182.483157072914,-362.10712037764,-151.855839838385,697.976597036163,-70.734212958811,67.2310519910433,282.623962470338
-759.017612750863,-856.310627715078,-424.695327848188,-616.673752016834,-866.378730343971,-258.24842783841,-372.008835414028,-717.831093073301,-233.902256633737,-613.613546450727,-887.544577163869,-239.406996151974,-479.631592030968,-705.797352737148,-732.026310736001,-495.384844565781,-431.350862278778,-323.352528834714,609.501962713991,-380.548139449067,36.5602833114958,-461.200624939678,-181.128824719895,-101.641936462005,-302.196066673205,-235.744917666124,-372.224967339412,-315.525969519114,-355.301281304251,-344.811181021312,-366.432722041574,-400.795447729681,-436.335087050021,-345.690549600755,-385.911521777913,-408.639756016537,-459.326390460631,-486.057527411849,-378.643181489691,-432.115613061002,-453.873968250938,-489.146410162511,-494.621031506572,-503.134289734744,-504.595861447543,-709.524801791824,-1293.68150776915,-1137.26341043995,-1162.4519532593,-1140.30341304029,-1107.24281648454,-1273.00251227526,-879.447269247941,-1210.32785849753,-899.694759769114,-1301.06723648954,-1284.7129729854,-974.73488822889,-860.354095193977,-919.060267215149,-341.532332048864,-676.868401328264,-992.753114758397,-259.668343814781
-793.631072138322,-746.180685112218,-368.763057842419,-559.107244114362,-775.980762985369,-276.438642087645,-285.992308460972,-661.422696212433,-148.380184882668,-507.299252708162,-779.911668825082,-142.810894716114,-365.272785074505,-603.71617601652,-849.548037810451,11.6096293983992,-490.773299875112,-111.094475197184,646.196439996793,-285.621530406496,154.635709350346,-379.395143011907,-121.050886811084,-29.0243926021019,-256.487126209012,-200.175784774753,-324.781549058987,-277.208012643865,-336.86347686838,-323.616240132617,-358.188200640832,-407.180071029788,-455.451703209589,-316.163796125147,-371.201277106839,-402.100372091697,-470.385398680015,-499.021775774546,-354.530272886608,-418.443820371367,-449.404465722524,-493.484875020263,-474.914933516563,-498.126498689234,-493.377004716288,-548.484354455382,-992.954428366033,-918.620163531177,-910.98690806005,-748.340231540758,-788.071585591894,-1030.40799291307,-630.145358194745,-1048.10858143128,-1010.47572878393,-920.536448149001,-1106.34988236981,-1201.59954017736,-1051.37777767456,-1231.42072882811,-937.468701568459,-810.42772578868,-1584.97540977832,-423.944565675296
-544.229790651428,-470.8203585931,-108.279086458893,-314.516697210062,-477.953212863629,-174.123638456859,-27.1380215697996,-398.761176119711,94.2029955597993,-219.082752837843,-407.349473292878,-3.00181728081663,-77.8435351591399,-337.851752297954,-904.152066800512,230.028866847237,-652.297845046597,-13.1058215002853,490.37112005463,-295.796220139924,132.829821343241,-349.9521993774,-133.698117645207,-42.4638743242468,-239.097408782375,-200.725002894447,-284.437438265358,-248.699371895501,-299.895448735666,-292.830611486959,-327.904525403986,-360.527413216622,-378.813325919299,-277.434746211897,-323.373724777226,-355.408622550416,-398.144234628344,-400.923703747521,-305.516068478171,-364.909659349978,-374.508378127766,-394.299667281434,-387.643519391958,-408.445352974127,-376.076758653494,-369.443325135194,-445.981776186941,-612.927956116722,-497.484293396459,-285.367406110657,-491.046069572273,-665.320421191151,-327.09838202885,-731.862684939721,-655.460918374849,-428.496364583705,-656.934895400006,-867.55065539465,-686.986175418088,-853.393036997065,-813.995665206457,-616.815796741757,-1282.87848667419,-344.724884344563
-162.143640351964,-182.185142274636,119.274035308567,-57.591994916732,-163.350314011732,-88.6638199530373,179.810097728752,-112.523736704391,272.553068147481,38.6445811118755,-72.3263026691707,49.6961659241969,187.881843080124,-120.684647131902,-791.421528238246,129.643884136984,-810.116472855208,-46.4252569211383,232.681632311818,-345.469186366002,1.16590306059775,-369.007561848776,-203.732334028153,-125.480179102942,-248.695016994629,-237.737928146314,-265.609633990113,-245.083651815453,-281.784294519572,-272.639847094206,-306.102004993077,-318.541487432977,-310.016729963203,-247.796015867349,-278.221667669374,-313.070988794535,-334.408025155377,-318.740707837686,-259.566669495596,-317.396893460412,-310.982057587264,-314.231844666532,-316.251486220095,-333.716505820494,-279.506921480674,-256.36597599384,69.264809536398,-338.402648688293,-118.452873547609,91.1091199637911,-307.215541723336,-354.559013147938,-113.133232989053,-385.552484861375,-267.961906627807,-145.648737206194,-162.714431488352,-437.13136196695,-14.1547121921194,-74.0504703642748,-350.341811306093,-500.282008839919,-448.969750772197,-242.277250048321
126.182223249634,-13.6071350883795,158.0062543154,43.3015089417418,-11.9899784015511,-121.009762499382,157.538811736999,-13.1309783356035,223.515461060513,64.5564397218465,-4.09714112815757,-23.3379138732413,267.388952063185,-101.850133966847,-539.485939443345,-1.42366587811664,-819.953516540622,-83.9302705655571,70.1488124222534,-333.067092285316,-109.668628924592,-343.669493707403,-235.963212275919,-197.606111875672,-230.306788367847,-261.530200984019,-232.503527601136,-236.320405222318,-279.499679543965,-248.879301376898,-291.864076026666,-311.972323329365,-318.37911287545,-213.008121893967,-244.029257428987,-294.396545680748,-336.728699145272,-333.701986070941,-220.34196264019,-287.33221877109,-302.529187770891,-321.534999552473,-293.56442707381,-321.957275318603,-281.234945325882,-151.176995163121,457.874653953466,-68.1802187923973,214.256755091303,322.482860571871,-117.069878864662,-73.3493521787993,36.4766960061671,-39.8647936780631,-56.2988484686111,26.7012205426424,247.723008643192,-166.89539131666,493.073241852223,578.635819116624,-70.0168829286997,-500.198251311873,262.180612149304,-179.259260575157
317.44288334122,89.5824153143598,109.362053996748,60.0016953417292,43.2209119124832,-194.570598744559,23.6121198008612,-46.937296334639,46.8634539112485,-49.0016485583842,-80.1036404893429,-131.190843539845,198.393223334738,-154.376340118152,-297.715358762318,-14.7141244992212,-663.189770245942,-58.1681930738219,51.0881344210357,-232.982151796003,-120.04103439832,-247.374205754233,-186.440029244942,-202.277148403699,-166.015617523075,-236.920225618111,-168.468885577969,-199.120040894499,-257.527862291776,-200.974234674068,-260.345541815522,-303.647912186725,-341.613544947452,-161.267538914812,-200.030440368168,-266.897553320844,-344.71095288734,-362.570808131571,-172.361990726346,-243.694942035379,-287.652932072669,-336.174617140495,-263.07144920505,-306.423936335322,-300.619335962436,23.657958598547,758.092662915001,243.149482721414,556.21116671612,552.588576526248,126.585487866986,287.5458690799,207.349625587749,278.104239128499,168.146902134693,348.489597030446,564.382871195868,114.811720648786,690.495973242037,872.573725017653,-9.78525115857842,-285.330238061862,587.13671771026,-67.81480557332
553.24981841677,251.471902378291,174.17920419794,181.602889709719,170.336372096192,-141.586444927885,50.6102176164024,26.0749397163433,3.2889568411037,-17.4992420591478,-10.8278163059652,-112.428051504649,178.223141303558,-9.7681462020041,-152.18207567558,48.0967438409176,-437.297877036772,-7.44612243567545,81.5426592791006,-102.809798813401,-64.2351260912441,-153.780594029077,-101.276786892489,-142.251435559295,-94.6753895539657,-172.313324683872,-106.599570232313,-139.598226537048,-194.048839657961,-132.900322755994,-193.525879129146,-239.742810208817,-284.427258863091,-101.438088704073,-128.495172435132,-188.759065905272,-271.809038396265,-291.471661617954,-104.746884466054,-155.197362224707,-193.513673834906,-258.252557132815,-163.284162158581,-216.350219178266,-228.495259765196,201.643882455144,965.012379762872,510.566393750657,817.885833365727,888.491320735198,350.435177660713,689.324577993846,413.440046919786,545.753918998883,534.858735097923,804.675942454121,813.025629037079,549.725517358758,795.321818399113,988.793674861093,129.535083948203,257.836287773091,739.844095400014,155.787063049679
843.298739834247,482.387510199119,367.980465284256,425.098670355332,394.885895034359,65.6853613482831,297.76008513687,284.519648503939,198.889327041795,248.223952102707,278.890307070682,103.594112480642,335.797223882147,367.362258513856,-94.5138499373868,188.098166245531,-272.543609327564,13.5521588330362,94.929546623195,-34.7189001258202,-23.595977587331,-141.299290582696,-55.6631457616456,-74.0749080178848,-66.6676125833965,-112.404817545693,-94.9909605242549,-88.7882718827931,-115.939347897755,-83.1525922783711,-112.457447175162,-131.516140865804,-150.004747801353,-61.9056822265497,-51.0060619412312,-74.7601120043447,-128.655893036355,-130.62548883598,-39.2911582700356,-39.2505146460439,-45.0211862406975,-103.33982537289,-13.4130129913051,-71.1310232915453,-74.0058218763528,251.316735926252,1055.89852301564,605.068082210209,856.853455248021,1149.38439967952,538.179782345237,949.099562905467,599.640563695059,745.923435168438,848.762460022402,1084.66253671839,984.117659848886,927.105108498919,948.304199336077,1145.78747910628,403.676594851392,777.064045351442,985.830142679236,435.369988918527
1024.05903876084,658.624055000854,518.59155719122,612.635745589839,587.031888880528,304.151144496965,546.457726357995,543.434269233669,476.410554647742,541.587484056429,573.152921572438,423.392250977636,596.612244785552,726.205408491003,-48.1857564287076,489.179586230238,-215.533701167186,23.0709642958604,144.955095385801,-50.9812974520322,-4.38891209745751,-193.548370008122,-57.039123381947,-25.3586865012264,-78.0085959584826,-74.3892541065309,-130.389191945777,-59.3367331578383,-43.2982528459741,-71.912578865375,-39.7980367137843,-16.3884099699238,12.8869312641509,-62.4979434049415,3.50033099763539,38.9030603199569,31.3438749363537,61.2552338089006,-4.78018925511508,66.7957917470395,101.067382446722,72.8257803734536,133.038152662441,91.5560914227454,112.331968585464,156.316541902974,1135.8341543197,541.427744987382,779.375082053968,1211.14939686934,696.993904171667,1034.91761083831,701.11876809783,866.263836177027,947.862046108035,1078.75621124693,1056.45967263792,1035.14170759261,1062.83789031074,1334.7607532079,641.782925451445,935.736755413721,1339.85631349291,695.696917954253
989.362913699415,686.048425083278,563.213661281103,647.995350870382,658.798372006197,510.086403587469,649.57543981477,658.598684952645,662.081538460724,697.004274018144,699.854149365516,698.042853022544,798.567277591554,903.458283139802,151.788854477688,939.868851151072,-148.075060247252,134.795498338808,323.981361560094,-37.601430481261,87.8200834262217,-191.593373257029,-9.72245295016294,70.7792774872032,-46.385210688023,3.95841553310358,-132.643477670813,0.261911579539388,72.2652187420167,-48.0031860767317,57.9736474750135,131.154068761643,216.727187560538,-72.2561718614109,61.2357327680184,169.987040285756,221.387713148286,291.286304271259,19.7778024792248,174.347528288593,257.37154155191,285.662422121708,278.620180235669,290.843305006206,344.772006306833,-12.8091816243655,1351.8254917978,407.97874260122,852.295325426733,1327.50271575829,681.224349423512,1171.54124582621,644.752469912038,899.537093324505,1010.4106940028,1127.36521666333,1025.01011005854,1053.01970191929,1045.88645645812,1435.29632677547,868.697512584523,896.321219095893,1644.28566566514,962.943023820615
834.491027777316,649.265979292656,613.738740429058,645.460137602739,692.261260872177,693.278244702832,704.639585426508,732.403396395411,745.209750493442,796.981673158835,758.813362632517,829.366853834272,874.802736915797,990.798774567632,600.389445635283,1360.26559033297,54.7858368596821,415.807238973228,597.970724960794,111.205824596077,296.977769962739,-59.5152963098012,148.495597152135,262.221829343377,79.9342013158885,166.348352970503,-45.8543380599224,129.818404177996,259.531915174824,32.9571430474781,205.65958435363,336.514957399923,473.947211147522,-46.2871476472513,154.329550804101,337.753208958826,458.333357713161,561.318363495991,70.0458028883962,306.76686364301,442.822020721014,549.37741127602,442.032980094014,529.358808589294,622.699775162961,-196.474395613726,1631.92893810721,212.36656262668,1049.57581450587,1700.5183046255,331.133353800583,1468.43062833238,390.049741181062,812.566095181474,1206.30490177626,1458.6627753732,881.80568638178,1203.5575495491,938.775953714474,1367.41630877525,1193.32436777223,1034.4832176804,1740.90082952729,1252.06707447481
727.907063021637,717.117099490003,733.809069894113,736.550850746114,830.1524930332,839.904859518917,827.691721805928,926.293650426169,796.973499199657,987.067933217604,928.094532770636,836.494509152706,908.017821732716,1124.5349253881,1123.20391770167,1581.29244206109,304.177360944042,723.944703922715,793.229398811328,301.528483968437,492.444992686929,102.459954106298,309.993677701444,443.823540946755,211.991653971326,321.929083789003,60.7234947628638,251.416860673998,426.791060129705,112.365053627039,330.634887619056,519.879582883084,702.931674334196,-8.95081927128094,232.628535321756,476.042598505433,662.199901815698,790.296735124187,112.735680427305,414.102745923644,593.956299862915,781.589366254471,573.618927509132,725.543350588614,855.854151102729,-279.723440241905,1703.66060480754,17.666874316944,1050.11167094349,2029.28298034838,-156.632578298786,1628.85431446038,42.8985469766525,601.549954440743,1284.26248263238,1669.34620195963,666.826953162776,1244.57561986423,849.10066818206,1100.38926177853,1399.72442191662,1296.62176399792,1553.1125846827,1391.91765693031
750.301110113822,924.071802522006,911.745662166064,925.982952536199,1091.52442783443,993.17666315803,1027.28074990016,1243.4983118513,916.740341433772,1297.45053627464,1229.55645682502,897.170378993656,1055.0180334851,1359.06025878371,1458.39535645247,1609.55865901002,411.798277518787,845.35742182258,777.098715112629,346.723893991412,510.085184363791,135.541181451121,320.313318327332,465.310372533599,222.597349398489,343.468573376142,83.117105886186,256.041663009454,460.134943448174,105.818661511541,338.886182192742,572.526451954403,795.222560742309,-22.7143586141119,220.071188685267,497.239589556558,729.37781495233,886.505591668755,82.4676106407486,418.721810198641,626.773487426994,875.362362332184,600.975389697887,788.593952069029,948.479196708199,-108.237500030361,1497.32261118888,41.1925900709288,808.07927184604,1919.83045259583,-313.990730630016,1367.44529975143,-162.576552977017,407.429737614586,951.548974111305,1296.58802943226,516.178221983494,846.568969379713,818.435491881184,679.387139687798,1163.31419307488,1244.78148847914,1129.58442589902,1160.84112229836
864.479038935119,1116.23076766287,1119.93170776027,1125.51582337185,1308.46106670405,1197.30574085333,1252.34782313092,1515.2702243911,1151.67965979768,1618.55807560019,1503.66054752526,1113.1427823102,1348.95851040526,1646.67428418496,1550.59224419663,1518.67024416512,349.385557474511,748.117422783447,574.521374251287,215.186279348932,348.354835480215,16.4149577507045,173.157228831858,313.697583853152,104.344868246449,219.349521308765,10.0507277679847,143.939361047747,352.462478302772,12.0156086795343,224.283878659439,472.358205049193,710.625657738617,-98.7088430177655,112.322288322858,389.041348726721,633.059373286507,808.653810776862,-24.8523713083552,309.197874455104,520.181902175008,791.306110240493,504.752418267172,696.551393130401,866.852823759338,276.874982181554,1336.71113203957,365.238298815384,726.44861802242,1521.89382337312,9.43196066414976,959.784079218485,-77.389688801311,432.482548543506,488.879171254872,621.148788717195,522.486671924789,234.469861056018,790.397661157952,257.659783137055,605.605612602316,672.880272717893,627.229435522444,615.549935652557
956.815012367614,1123.26434029604,1222.7442693897,1193.22227697384,1252.41118589831,1279.27054811109,1346.20196942248,1512.02373665053,1318.11623560189,1718.95203152166,1506.02670232597,1251.28373616249,1556.97119752214,1776.80601030387,1478.2247610003,1281.89122740881,233.622195474694,545.873180758496,286.783705194218,23.054166781304,114.372915021213,-160.385101885589,-26.039627312326,83.7354008498822,-61.9291675661197,20.4819189260615,-110.956185736972,-17.8136236274241,160.358736957647,-122.275757837181,41.4363559855481,260.979250612376,473.883894178118,-201.553033292679,-42.4640192307065,196.94989635959,407.401109931571,561.332495853801,-157.211347678404,131.774074998719,305.746265549987,552.716556578362,314.928060174214,487.061143285229,626.258227432258,606.566470233145,1491.44740053466,737.755726474483,1039.22407012944,1352.08112032689,475.082949647898,910.836356887546,237.661840552095,701.197209907889,425.29294388053,312.890227460001,646.338267392102,-89.6225161210257,749.608648888268,40.0080979253118,226.977437586595,-148.991106733791,249.625603910473,134.847602109726
973.579154977704,984.73939456557,1085.93767345277,1069.4195098301,929.277936654782,1035.4504394495,1162.90328085526,1196.25868324496,1168.14503763632,1466.6500314933,1181.93879598095,1062.71421785925,1419.81015930005,1566.18976652267,1278.17268187874,866.490639837616,158.135024728271,323.431991659807,-2.12427655601042,-128.468294107414,-108.545241575084,-297.879017317362,-192.423273937838,-137.775463670974,-205.231951438599,-178.40779066325,-229.875008810949,-172.274415758811,-52.1860684540539,-246.627108436192,-139.553625390255,15.1956436460523,177.257762731006,-279.893522052017,-180.351136473569,-2.49750985925804,140.043808237432,243.062434750853,-249.659074825366,-36.9944440871303,68.0662739720083,255.578867635182,113.462302848739,251.819533170577,324.318061628947,713.336279617946,1775.29994385356,894.969696198286,1446.57585987784,1610.9363357395,745.378727307775,1253.7161571388,600.696772185317,1026.56698937685,778.832294570323,603.67013249775,843.115926866645,51.6643483840419,782.192820735021,166.175374596473,321.55456579952,-666.645771321291,168.747297966848,48.857688559661
1044.42247041573,956.345559398768,845.991216589631,943.737275867222,697.554378332302,626.387695822545,857.26240908861,887.048115293198,795.733257028547,1101.00672690655,876.693667465326,692.71339137305,1046.54890773929,1209.99670329352,986.375837155158,412.616872929313,155.488914791935,122.830847699045,-208.321521809282,-193.868800559617,-259.056090564787,-331.651783407673,-276.869203751062,-281.724911715378,-275.422540769389,-296.063947920636,-282.831154470241,-256.128453789533,-191.27748481389,-291.218931235621,-233.494492964932,-141.103187408872,-20.985788133543,-273.508658419056,-225.354029447918,-108.879510804174,-26.3777316163238,44.4853260712023,-244.753319180857,-102.057714148684,-58.9084135967977,65.4668752661836,18.6737531166893,117.434491479314,137.673275630063,729.113870621624,1913.898412068,921.155754231185,1658.30311148909,2040.38149075223,800.270122406808,1664.37459042362,825.512468756492,1247.29779322927,1195.09624068643,1245.86507058857,1082.67230565633,544.30044717077,904.545639750007,559.901872592416,719.333992985924,-371.890021761758,385.817184406134,367.041699027107
1313.38182373068,1217.46750233124,762.874246224088,1059.68257806944,884.436539385927,408.576395272527,740.912293136896,930.700832752368,526.810280074803,989.386660514544,973.594600100004,426.601200678923,789.064930737551,1107.11201212945,681.728791340639,131.527066233929,222.154996982368,-16.2877032271464,-261.065822556846,-165.723089119718,-295.520661726988,-249.445165262504,-254.911206175599,-297.927425892341,-252.269015600345,-279.672584175599,-232.289121828815,-224.224939515913,-184.288826780402,-217.850668274945,-194.372584652469,-123.154272583566,-16.2455394967696,-167.616600842916,-148.151112023814,-71.8316631599207,-3.65692691005723,78.1939602502566,-137.746563878303,-28.3144728413143,-7.78981100297078,87.549367940883,79.8938856016542,149.487050354618,168.73792638345,838.001369699693,1980.04259900908,1046.67186007412,1803.16321759577,2366.76211438115,763.537520425138,1988.23327883358,834.447765437625,1376.15827971841,1547.42392315184,1902.98660744654,1267.06729143085,1200.70832446446,1006.45207847113,930.130475343632,1093.08887413066,672.525362181638,683.281444433185,914.218012335337
1643.50516751437,1620.81447620228,809.453592091734,1326.54288736153,1341.15450308023,414.190340065382,799.807941960753,1207.58024452567,425.265088836462,1076.63461496137,1321.5107448185,302.819289847236,703.766702103747,1244.50800575341,422.99807818705,62.8021143384346,315.829693361982,-68.9065476015587,-172.39221001555,-69.5818251941187,-225.50200648359,-96.4705857025956,-141.327637959434,-188.981417790183,-152.384407831899,-146.687072147701,-102.540817154991,-91.6252149732577,-50.3798905750951,-63.6767911860051,-52.0712524421434,28.3104540813622,145.282298474534,-9.08825618989244,5.82987061942317,68.7805187347681,159.72595454007,270.290683104515,20.4173990030556,125.047818375131,153.613689173923,265.829246175453,230.756858181199,299.106855795476,345.701063546976,986.671586678892,2056.87219375479,1240.88474156627,1967.40481878098,2449.79668141271,719.32709816536,2163.57334952814,718.790823280506,1438.1502524189,1797.79271144519,2260.36281714537,1290.91630811726,1674.3014983966,986.264109261678,1016.25672938953,1214.58115242384,1621.79748970169,789.811905467535,1374.29107451505
1705.6444601467,1805.80869327903,724.002843641572,1371.13358347234,1563.2428759233,357.865574155968,705.638270878223,1223.02275625398,271.758823842905,919.291903865117,1359.24576295442,205.197822641074,487.901131821169,1150.21587526812,220.533923661428,56.6611932192411,396.194705791766,-31.8128342721565,-26.377651064491,78.6618250751265,-74.2960990622436,92.0684597474573,34.6968038613205,0.754889152512922,14.076621221989,58.6461050563204,77.161091782859,101.306518497293,140.599025992392,125.009745886102,138.571106696671,211.853791807869,332.191988575891,163.502247233657,183.269198640096,241.551790824374,345.519992792712,459.609348755751,187.928187823838,285.918355668195,317.587253446919,450.818241179248,371.522453611975,454.321634359475,508.478392744226,975.552371038475,1882.32155513963,1246.35293548297,1856.94978912834,2107.843378956,679.200754150389,1972.58991593939,575.499659115058,1309.73347430067,1644.70001481403,2056.3106906397,1106.22675231625,1545.46852218775,755.545431944545,774.914120892012,886.2660812997,1585.10593212886,591.282321262429,1273.25651947647
1380.55778783169,1540.2335100068,435.529178497204,992.475056367496,1216.03719283584,120.409062208345,312.121703988507,704.382265478167,-33.5525301479,310.018856309057,821.808192376534,65.2005731752002,-23.7076246722235,566.170897725915,52.5957201118342,-52.2144296924264,465.713680096051,55.3254193195092,75.8468662189481,271.71419581634,117.828879277658,311.79800431996,235.882486363296,201.21747765523,228.921775880909,278.446512962132,284.653757715177,300.573504511671,311.950172531144,313.05700030896,312.775372559958,344.014928987427,426.169102958856,326.743630019974,338.60065442875,373.73788034939,445.296754668429,519.505287159839,332.721118102097,400.660656783898,409.364992568666,511.123537322001,431.87614733021,507.712647427527,530.317149056067,734.407348613349,1281.32701729613,937.435465276927,1292.18111807863,1331.73079575793,567.666967237716,1359.13105345376,351.941144977744,916.569545707144,970.751915789391,1321.89862701184,716.392721053021,804.617370963549,251.19108319639,335.928477468665,121.992776676801,619.933166796938,204.477350039968,508.482317336678
891.948745974914,948.871304340517,139.366064719479,388.341202597029,477.136985459507,-114.727802189095,-170.778117046009,-76.1468498460787,-358.558692497522,-436.234889055875,43.6143001280981,-119.49718632988,-616.911980777163,-198.385133023715,-99.5396568377407,-285.898522322402,542.616029852557,127.835312233812,69.8731966630774,470.161771757505,279.943388583224,533.458370275685,410.338119015003,342.991066244726,427.814990181636,434.823572753539,464.920540090431,433.155176454076,398.558751499118,442.488132686619,401.076003557624,379.352653772651,387.935722027387,434.885824779568,417.022963102539,408.849061371539,417.504629242228,425.656525410884,406.349447330439,423.091472888339,397.272582030122,419.169491529165,391.500157391062,430.493658674821,401.574091786941,396.612794188916,550.384992265161,479.664812925628,584.165112257272,509.071177519729,318.432152111373,660.692909231129,-25.5938440200702,438.003635169866,251.261145180185,454.28560508444,182.361054894022,-15.8774788629345,-382.91301454558,-159.914093591486,-611.835057749291,-368.361657773814,-171.100725351982,-319.576520034599
531.400928601614,410.681122400394,-4.75523045139246,-82.5033205012777,-141.126169915019,-185.971024796624,-477.84775022703,-619.004986242128,-551.59098185628,-882.547414892512,-459.945094682262,-295.216083739181,-975.320998104241,-682.507395770655,-223.778760858857,-515.685125368867,617.105741276625,168.844393235335,-26.0150728547301,620.235626591513,365.323294946542,699.171851442247,523.054778970253,404.152867398419,550.840287321092,493.08389728884,561.405197533331,465.00301169635,391.933275448222,477.963070227663,394.633472543826,333.300072984926,280.988129874283,457.140934797568,405.446475852539,358.691163777119,318.215328670627,267.52925828608,392.877221476346,361.464055612567,314.527323415424,268.10683912301,294.672892322483,294.528709621422,230.903719336693,124.318479656802,37.4351447210651,95.8365387742918,67.6210755052516,-44.7747645795952,-12.3736939200815,116.95872147919,-493.501593566496,44.7633853995002,-97.9683354513327,-233.207008922808,-389.934037992269,-491.561862856433,-844.972177712437,-646.988887500615,-900.328458577852,-752.311023635196,-472.077032176875,-634.758454240574
386.909706521777,202.534364761989,-12.1792327107079,-249.687009764033,-299.963234809767,-121.673523907344,-542.139290642938,-709.898929254268,-568.077645514972,-941.882580409145,-495.982934705226,-377.856808124253,-998.597213026346,-755.013320165326,-301.992483805787,-626.660165341421,654.426044599415,198.552794361918,-135.487833806197,692.96588109161,386.529776609348,780.066567892097,567.007914418227,403.084049122477,596.502727079404,484.974507341259,577.463429888651,434.327877304003,338.981743642497,453.350366784834,349.346013133396,263.923653993727,186.628608048613,425.387431744054,354.787104790496,285.944784696037,222.745395641798,143.68731396351,340.775973251202,281.436240729612,225.544028842934,153.605048854251,206.025720235534,176.999810238836,113.004927090353,-44.9794854670375,-281.936905517679,-195.988175181621,-330.21999093897,-506.821335808836,-320.321557705896,-493.871093060235,-874.032557423511,-379.219716669607,-374.833785157113,-912.648500039631,-869.026793130998,-853.459502972059,-1008.72433579418,-1073.44563759888,-970.266780177206,-767.536318679314,-768.349626477086,-590.304812167697
346.137762547031,255.414493721993,25.4456326185931,-229.782196528464,-119.952411024221,-15.9623857170892,-490.944553217187,-547.877966966354,-481.441005773199,-870.116773988583,-276.817009898208,-347.772446592809,-843.522873114281,-610.660329707138,-328.029666701637,-610.615604734611,652.017242347389,226.811693092499,-152.193712981858,703.27139885313,388.313769733891,814.313085246527,562.284560676886,374.996875364719,609.776962408997,458.37963773111,576.866804328488,408.728246641398,292.310386175749,434.579408676194,316.348364237291,214.29400646607,119.961864008014,408.705092926783,325.866840886456,235.548414928344,151.124848609932,68.1056936316002,315.361454375583,235.920386402831,166.207225683328,79.923221403493,151.739942208977,93.0330150730761,40.7651697952641,-139.573119993967,-530.860433372946,-469.905210907096,-744.113316409144,-1077.95061306809,-540.378577790152,-1327.9078142801,-983.840818133824,-963.455272615574,-1032.23893922053,-1786.35396302407,-1143.59383861207,-1495.10412621424,-1004.84754804508,-1403.98095107399,-1284.22288478533,-897.437522029469,-1092.21989936277,-720.775567425632
252.911118630363,276.124855290728,8.05941749607186,-259.787549326729,16.3390223517319,30.5001528774224,-523.012251711886,-472.629567092607,-468.375809516078,-926.457907465959,-162.876975379101,-300.673044095016,-762.12850334803,-507.394377527264,-317.807769174837,-511.916200812432,631.317551361288,244.128685710109,-12.2310822738434,676.67704142808,383.894245098798,850.146132873722,537.297371541564,336.736906434563,618.97959274041,422.986816868721,598.002090784835,408.809366242355,257.507360997231,442.396070319881,295.524056860936,172.281116757709,44.5551711753786,430.245058270637,326.251208230659,201.376388171783,82.0204118818201,-7.99440412573949,327.905114290728,216.79601032565,125.503586094909,2.22941038782499,111.554587591152,19.6432251343423,-37.6933969633137,-153.430793166814,-604.957975204961,-652.284781162144,-986.629797476619,-1435.02877206489,-622.358809490383,-1925.85421782135,-776.858986493837,-1476.55097780352,-1805.8602340739,-2379.35955250139,-1187.88523906184,-2134.606397959,-950.563290251813,-1624.12922376083,-1801.90440468163,-1174.42828660565,-1331.39442474184,-1210.54958004627
55.3707444807073,97.1097953618553,-111.36467853704,-434.06357966547,-110.328337560553,-66.2789604165635,-707.240296204343,-613.81880256181,-634.216830753595,-1122.96589303371,-307.284286986719,-335.089563701909,-857.05719202107,-563.144600419441,-323.744627733924,-401.586507776529,556.760073700623,205.400258034739,162.12930355416,586.854789349953,309.077773973809,850.199338286063,471.587477538898,233.821832078107,581.071225462837,329.887197534086,583.24474100293,372.69898162081,178.026614186669,418.34317473652,237.150796085451,81.3513378015731,-81.5978033384237,427.793652951541,297.732868366733,134.108459083869,-24.8925451025354,-138.428679361849,318.842701008317,166.609451954104,52.5923036523524,-119.738914017167,45.2777795491637,-80.7612979908424,-161.784444745352,-92.6850449824382,-423.788526305467,-602.531433988651,-851.702372368546,-1209.47489224123,-553.573036573331,-1771.03244181652,-423.900420591034,-1546.47567399907,-2033.3332947603,-2074.57343845999,-1056.66037791736,-2146.67282474411,-826.718310643108,-1628.15861768661,-2080.6027271894,-1325.82607032007,-1315.09566463328,-1684.49584510237
-138.567013492193,-149.429225276134,-233.857093080967,-594.9978491872,-356.279799623897,-238.219792568873,-852.540333110317,-774.214859020651,-809.207882452559,-1238.5092533851,-510.983545884414,-411.028124473626,-945.629762129132,-678.673643261977,-365.215129803871,-326.842068209948,374.63999271026,79.3736215527918,168.215672472779,401.202332279285,119.405374666329,731.678267848957,329.152763729808,25.0891165905843,445.719159217919,153.803285056829,463.15381281151,246.893292552064,26.7604619389245,308.842378765701,112.440801028055,-68.0551519151144,-242.237759742195,343.030259960895,198.062576652858,10.1303403784644,-174.964591368267,-311.528329817947,240.095237759167,57.3826944636965,-72.6596584490357,-279.2045711339,-52.4852966322449,-215.689666218304,-324.304022813532,-48.1544498761243,-233.840909953725,-383.245600923144,-533.004926324033,-739.488924742835,-419.354131846915,-1179.71062708527,-179.956423690903,-1189.330669272,-1661.50768573187,-1267.8829599138,-860.432179496226,-1612.14796665248,-665.546463444796,-1346.73154682419,-1878.42816907407,-1236.64012837094,-1068.78056974777,-1625.62045590993
-196.062037610063,-252.515878586755,-220.222175824581,-559.503444746739,-459.129585795377,-299.144787862151,-737.204967756378,-711.838099485375,-732.017048836867,-1057.71394364218,-504.473917316948,-410.917131542744,-784.83750398091,-664.530586464067,-352.222021107985,-236.270630284936,140.377550041314,-57.4856255367108,7.54210115954138,191.690281462345,-82.3787695178468,508.830931773559,165.520891710317,-178.579594826933,265.739640417572,-12.7193748593948,285.535414351053,95.6537138511235,-109.022846416067,169.75314473756,-11.2058158679514,-179.490461583023,-335.869505303519,221.343254141431,87.2879995431231,-102.702205110956,-283.017226657429,-419.789804783514,138.558698139627,-45.5849705354029,-171.72272376244,-384.914184910177,-124.026251567301,-310.005384756996,-436.128822323935,-113.818761464218,-309.282027774808,-240.847206399777,-383.191833283735,-603.906920601417,-327.529076908817,-868.324025707022,-129.620174801292,-783.894648839023,-1224.44601024848,-888.029972088352,-704.487220144707,-1175.13406673396,-590.049673826475,-961.277031171189,-1340.39103567981,-1023.51553153733,-822.279830333217,-991.521262595014
-169.115390625315,-214.656495828947,-131.366055614215,-392.946967546566,-371.228430329811,-221.358856365178,-454.954614161487,-477.086620175848,-446.477251655245,-650.30987893874,-312.74623232934,-302.566785879259,-434.713676634234,-509.702312896694,-175.191456832941,-53.0204766845588,4.4859055581529,-71.966331009765,-148.320522135519,99.600639129847,-140.572200405797,308.318480390631,88.719707986415,-219.591177428901,151.873742290479,-54.3754416591382,168.016698869934,29.6128430582974,-127.816369829787,103.297889122121,-40.2462252249035,-165.59701490728,-290.198859506839,153.395291348335,54.6829317600693,-118.62420963699,-264.929620496438,-381.16880614081,96.7865442978231,-62.3096466183285,-163.510370506554,-358.939918141863,-122.602909664014,-289.098550418671,-414.530741146881,-263.96328427382,-570.360604704555,-302.497077644259,-462.111252068558,-726.026883475524,-288.306390167992,-887.132414712922,-145.078457793823,-549.599572154443,-989.624833503624,-971.409171139741,-580.273828914296,-1033.44640099717,-581.485538182864,-697.129493344068,-806.038510863395,-884.613800550911,-677.796148724896,-360.283775644936
-239.35335898178,-199.124210509388,-159.261366470208,-288.240353349355,-231.167822700467,-173.242202227693,-283.803235918784,-291.821041948669,-235.476936083459,-316.634074966156,-173.182074353762,-155.475252989045,-179.753127706959,-398.292313817291,131.001272237839,218.138808874423,36.5750407303084,68.1922194283673,-207.697846749593,161.121403485612,-42.1232387154814,216.761349334277,112.075151514176,-109.652430700293,130.192530578825,7.72061995088893,144.203334196528,55.4745134555594,-57.3806992252466,114.182657068723,9.95999475230422,-74.8297070295339,-166.591901465183,148.209773286299,84.650258531643,-57.468783981577,-163.770464269414,-257.760871359005,114.020643040531,-15.4615482782722,-91.2660814408898,-257.865707339678,-84.2967997925851,-200.278478580065,-308.588260951315,-406.255535077163,-816.589815143844,-483.305038591576,-636.95307812522,-734.529659103885,-268.361131940045,-822.991079523783,-124.083333556434,-417.300164694043,-819.156043602392,-878.491557365696,-414.593666520047,-886.979711247071,-464.102869098102,-541.741569327043,-563.835527080993,-937.240656734424,-521.459990368795,-314.564448576306
-434.907318066785,-296.866498530903,-305.903532141061,-279.849206329021,-168.24799197026,-219.836293433052,-267.712851787424,-225.347611044203,-181.620717069067,-201.245084296407,-192.255935067944,-34.9910890709994,-107.907191541308,-410.444747917503,395.331582594938,485.576784509633,123.863478484944,249.971048921104,-206.031234975043,241.933882862973,83.7223858027099,182.467912042949,142.613333487142,2.45439334296507,128.884828095813,58.7228789935541,143.842143732315,88.844848785942,-1.38181943624821,123.418286593342,47.2399992516331,-11.5872733875807,-71.2261473113876,140.139602585872,95.009700971459,-10.8252922133678,-86.7466246389417,-162.751654846696,118.945840094038,11.8216465140811,-49.720117687108,-183.64830916808,-68.3840196096898,-142.337602239393,-227.255582196283,-500.43238984441,-1039.00254578487,-660.271508778063,-856.331795789124,-714.348658731923,-290.786708328618,-663.354633917741,-103.497638472617,-354.311422934575,-680.325774318185,-523.328185481679,-217.882747741702,-656.658047972515,-179.274966852419,-368.898487331379,-649.691218691427,-1114.40911488799,-265.825949910763,-807.282439194991
-599.363212909667,-488.121792055489,-392.332900040597,-294.938447098322,-270.782286626097,-249.981915497172,-236.247730038299,-227.918437439731,-134.115798834022,-181.875144749624,-305.656404870314,46.8834717550171,-71.2102631557956,-434.52299854249,489.544116556232,579.491689262924,113.821566181164,322.173404745234,-210.78051061743,191.443682072691,125.105526668354,106.025942340123,105.355772181184,24.6935861084737,85.6079879223526,41.186600702422,108.52824192831,78.5445250183294,1.94086895850149,91.0358653415828,36.981007210145,-0.331266184860242,-30.5607312662733,94.8958245885309,62.1353878806749,-15.6350600068934,-65.8947565586676,-122.671117059882,76.6050138674294,-7.17816140136127,-53.6787570713146,-149.620508288579,-80.2789748405683,-131.465426369399,-196.917058353872,-552.034197542506,-1239.24830732472,-758.881985322469,-1064.23525295722,-891.424671781837,-370.514604455545,-688.718916546405,-119.094131833558,-411.412799490114,-730.053318155768,-370.206410240849,-47.2957834570512,-604.264876961592,123.087664759237,-170.857087703482,-898.86447497337,-1265.81445861033,35.5327606626807,-1334.4508948672
-641.781933595302,-701.507170793646,-362.847964677458,-330.442763090137,-523.079996456614,-218.993883057785,-139.975019354839,-293.561957476788,-40.3048209110083,-150.133880800197,-438.861252981984,96.0919665872676,-9.87238428965881,-398.175669299193,431.751579098659,367.526709499387,-1.74269863432863,217.922659762454,-264.08224315417,3.32520001299677,70.9463679893998,-38.8129280242357,7.67118996077386,-23.5871834042925,0.461133149431123,-19.7283925250703,50.0769597441805,42.2542169472403,-19.2068986057124,42.1583037167119,11.8639985964289,-4.19606176816967,-12.2793949070728,36.785055778081,21.1738089816863,-37.4078325054675,-60.4719079879726,-99.9881814340102,18.1196825129771,-37.5080320637836,-59.8681706658442,-119.260047673972,-95.1373879875552,-118.39813187474,-174.142046531495,-560.751651811229,-1252.36990604171,-733.488726517976,-1093.96552046441,-1071.28449236399,-430.076420587958,-830.888233630635,-131.80690715209,-459.719707904788,-914.747818258044,-511.527224219684,130.285929709954,-784.818235087833,304.885533973723,1.25957213274783,-1105.96939128055,-1227.66227448441,288.055140054448,-1504.23221561367
-623.806045020357,-829.627083213722,-327.397300107669,-392.844703824638,-726.596763918659,-197.552436886654,-75.4431097916911,-387.418390976431,18.4369935912636,-129.069508758024,-520.225471779574,109.156811642006,5.93553446732643,-351.512461669841,317.519217041773,-24.5482390165592,-122.059228699375,-2.49505559631501,-335.504073310456,-211.567562575508,-39.6211629402429,-210.939117651385,-112.864159236038,-90.9120464110867,-94.8098085314335,-92.4870298222256,-6.72417182340227,4.90960338334613,-51.3823149635613,-1.93882197418145,-12.9058956972385,-11.0207395698716,-4.73944134590315,-16.2785215489941,-12.5012157179447,-51.7252054332289,-52.7241421285543,-78.2832406728838,-27.8674886684169,-57.5497237850783,-56.7595050181105,-90.9056807853723,-104.079640893719,-78.8545595645628,-135.49106261965,-521.905281700616,-977.260354171019,-592.144906947527,-853.543008108875,-932.908209615338,-378.814423797295,-733.379960171966,-105.935959405375,-270.701945795463,-878.346529991044,-520.034087213398,361.302819640345,-829.069403016536,393.515030643908,169.881489038591,-1051.54578302216,-844.907296963025,446.740419364207,-1255.34189826893
-628.948302948112,-820.421142801014,-357.083138788677,-429.218593292542,-701.059396239135,-206.156405036635,-81.5315176788907,-398.401238796209,16.9082325954147,-130.627716444125,-470.018831178309,85.1028347677797,-26.0604543983998,-321.752290896056,224.898728745906,-267.51344420011,-161.09964195554,-180.192003910687,-306.515633612398,-322.607005827345,-151.769562817517,-335.762306340841,-210.261121146561,-121.122856984271,-151.86340460595,-146.786407584974,-54.3262187098113,-20.3663832831279,-81.6298472895406,-37.9329964564703,-39.9320054293426,-25.6288970174199,-12.3167578921988,-67.1088367303842,-45.212248956871,-63.1470244388577,-54.1092221567528,-64.014963632262,-64.3893781810847,-71.9005780894429,-60.4893772799163,-76.6760406552482,-103.646762569214,-29.0784503373081,-92.751878401784,-448.523809558882,-604.957501591618,-421.986161010259,-509.444001613487,-576.661985870031,-254.220120042231,-357.617368048889,-72.1942791879563,64.7389212793722,-479.142779309858,-201.044568666156,516.097843602024,-469.223523695906,438.236697767785,313.740591030021,-651.675794065204,-207.330989652555,480.211771774926,-768.905784681109
-676.865468288135,-741.838003818522,-422.545279033239,-417.511489941535,-496.239484176203,-210.992439111765,-115.082285212163,-280.35704154392,-14.4130159826883,-110.354365700596,-279.332911927523,30.4659416546219,-48.3665757512014,-255.289008670616,177.198934796858,-189.293439226864,-89.6551553676261,-167.311754552419,-92.1804789503579,-249.370832551506,-169.975588355727,-327.991978453032,-205.249224981373,-51.2731181117684,-123.790788628251,-124.143554049491,-69.2697734034646,-8.01848460082233,-58.6094849438111,-45.9960580618663,-40.9668205877402,-21.079354669306,-12.5666204633642,-98.187818258231,-59.0055834406156,-59.9682002724539,-46.2009467906943,-48.4131120847035,-85.3850675576496,-71.9141209817025,-60.0074132801862,-58.6034597760101,-82.2541895643842,15.1216093012902,-57.8465554653694,-385.559882127075,-437.281445383533,-344.888471967154,-336.127036444214,-382.885573171505,-214.934894617219,-74.4149674132303,-103.316596029381,159.980927734878,-83.3970955146951,96.9045301824091,394.958236996756,18.8554524339385,352.947865314858,274.795151533251,-168.455889732405,311.447596904374,313.555981033953,-324.182402761906
-762.36987458113,-693.471307363002,-507.98144147863,-417.640199274048,-298.506484513062,-249.886628098993,-172.829571483692,-132.038178606188,-97.4007323632481,-72.034302876219,-52.1667753511839,-69.7330931477065,-80.0553001175644,-130.504606635075,132.028058291309,41.2981049871906,28.8659963200786,-1.99569056764916,184.57754097029,-61.4344087493024,-43.3387769388401,-203.794486721082,-83.6721846089933,95.1949654318078,-48.2936576165676,-26.803209303793,-54.3913866272346,26.7430092076819,15.2655891869124,-35.1715512841593,-13.6092667481157,9.02210640454471,0.163868902328636,-107.7178882938,-53.5543475260713,-44.4209530037746,-23.1618489400985,-35.2552182318195,-93.726486100944,-65.3658416561651,-51.4096408743482,-39.0544394782285,-61.3039532169756,32.0407196044171,-48.8485875749329,-402.771485123072,-540.18133655138,-438.112517366304,-412.636720840429,-466.001063723226,-373.696021849528,-107.408995894683,-249.923534869144,-155.425926589678,-56.3560707806755,71.997945109554,-12.8433596624594,188.509142720915,9.21122522265534,-56.3701312788581,2.49910994339864,442.444385575551,-126.180512234703,-137.882256684674
-905.220928865531,-718.26430759982,-655.155789179027,-496.617012496936,-232.157903432516,-397.750023828817,-307.736792849321,-84.3597606259752,-279.594285825613,-96.0042316882305,67.0277020318265,-243.917406973776,-195.38655693672,-36.2945482653786,35.6155500312977,137.467701114811,51.9584695585999,94.8241958317099,272.887978410079,34.6642111849621,101.573662730774,-122.169200434798,12.0143369387396,168.539439606597,-51.462061309197,15.6910356559606,-87.1055403687629,-9.20108788385622,22.8994719929892,-80.1014800739627,-38.6795963540138,-7.92601720619709,-29.6977562068082,-152.338531540183,-95.5478598595596,-78.1802747347453,-48.0002402982498,-68.5539397631667,-140.161536300114,-111.119559782408,-86.9169897369061,-75.1336986191432,-103.029374570917,-22.0014041692566,-98.9703047863156,-531.560614004033,-731.240512582,-679.89683977772,-606.27200828758,-617.552020860896,-690.754173869595,-304.3993361063,-499.764653041551,-708.575628052783,-326.53216031673,-158.441311679764,-566.863061882227,-34.2263827024597,-571.655078234825,-599.510205924829,-240.954595994766,225.416437721716,-796.042247859899,-259.256562934372
-1104.78125390742,-809.091054506012,-852.807352287435,-654.012668321536,-301.884652122111,-613.962155317523,-522.366884864557,-182.075876995611,-526.978734068052,-238.309525990438,-4.145638721994,-466.352847430417,-400.272819715474,-89.1359278920259,-91.5082596204456,6.7581868871318,-99.3889042797941,-9.081249772038,99.0356910225482,-82.3627250292732,74.5554968052455,-203.662869897548,-62.8572345996802,55.67455199249,-198.23406369862,-107.696101486786,-221.798717040062,-174.563169463456,-129.495691932718,-224.372525957342,-184.85974779004,-144.838421943521,-155.660948194785,-272.20746378353,-237.311722957784,-213.746131836772,-178.994699150591,-187.691315559829,-263.587140044975,-249.901410211476,-216.761870290806,-206.687165993944,-242.835728847078,-167.172679849745,-225.980323186383,-690.346229243642,-869.368763707123,-945.432886465858,-800.370973784746,-710.150150427775,-1014.76418288963,-508.270771309801,-755.396935822947,-1290.06255837799,-696.683484582442,-419.520998010591,-1107.9353727846,-440.378118511651,-1146.86802577403,-1158.83527318903,-686.090403553998,-172.767780390511,-1448.60047310135,-573.940123823622
-1287.4178720106,-946.616996253869,-989.924676942722,-841.01071740544,-478.870672175075,-761.633173134738,-738.415560967343,-408.809229007459,-736.036760689642,-466.991787766071,-266.105530104559,-658.847626634616,-618.135162953083,-301.860634446146,-182.836873849019,-235.935491942453,-347.677683263123,-210.4237837788,-165.964837023931,-316.104802289467,-126.614917460204,-387.57160089368,-268.311280965429,-176.795708445561,-409.6070614477,-337.207419176923,-401.123741301506,-399.846709105577,-383.482290064348,-411.105127271927,-405.733731913171,-376.130117781054,-361.984998412899,-428.034257824949,-433.843306923471,-419.508388337818,-390.887810491331,-383.5797863658,-429.447699728622,-442.588777554253,-419.027800558966,-405.345158293374,-447.087235145385,-365.098210925598,-411.895814563201,-714.028506570526,-946.004775271428,-1047.72024597136,-932.308062243519,-777.612797528587,-1147.47924196243,-695.820560241774,-858.751900542626,-1674.32717031827,-1089.96625854372,-671.070890515262,-1400.08410874147,-831.788241894049,-1391.31142666222,-1493.17171514957,-1068.7000674904,-574.422819294742,-1721.9963102528,-869.867842054469
-1352.93480496546,-1078.19451308076,-975.355047571007,-985.54665706564,-716.666759253027,-769.314073190935,-867.30616344302,-692.320679437547,-835.678104894141,-684.307608265619,-620.333763066949,-761.827569206753,-777.618441074713,-551.589140131264,-228.29350373957,-487.803962657871,-545.542248324942,-356.728180163694,-356.644574722842,-494.831143032622,-326.171284128774,-533.196801135,-445.435060480865,-369.005732674034,-564.189100120877,-516.849802072095,-530.150509024701,-564.138204098681,-588.641964153847,-552.705666900828,-584.553632624076,-586.679151208683,-562.991357797714,-548.075504582322,-588.055665978046,-602.591622647826,-588.411480998672,-582.503848442009,-560.955237488142,-603.009958029916,-603.654426227784,-592.047695198361,-626.866138896881,-535.35901559828,-592.852575493972,-482.52655004931,-939.036756985047,-828.113056335887,-879.060904145392,-775.426653550419,-937.144827166698,-739.479880512589,-714.509974313245,-1560.91512635861,-1291.15106428265,-777.689277919712,-1227.22061642183,-1005.88570568523,-1168.63900635423,-1400.5382894832,-1175.17439016596,-774.874269509098,-1444.23553490522,-946.402826534924
-1251.26554738296,-1094.76982861223,-824.590968638383,-992.080851313341,-888.694395488459,-676.240496847502,-854.843852759143,-869.446045547423,-818.191043796033,-786.55453735592,-875.760482708864,-762.3209029042,-864.555599936917,-705.858750510862,-310.619114115782,-765.296224632543,-627.04210119904,-451.253006500398,-492.28698322721,-571.150275083043,-437.697944404547,-596.019660544364,-526.691883793309,-466.917087307776,-633.951302029951,-587.694482737042,-589.331644411726,-630.445232108136,-668.739637055138,-619.791229541817,-663.916179694296,-688.467650092237,-680.795957042289,-598.510657302036,-653.972595501207,-698.430166296031,-697.090141938855,-702.903336015791,-615.600079985954,-681.429699971332,-698.374468884525,-702.925088505141,-714.011355964386,-625.246435116873,-705.990222597912,-55.9301419555177,-880.92995459638,-333.315878901733,-617.315445405583,-699.254170646179,-445.566973914257,-546.578883268745,-391.701732158704,-962.835451073965,-1065.64253172583,-648.142505447728,-711.443508494198,-838.676190252774,-660.710003573098,-930.536113158559,-923.247482894169,-702.68550777442,-826.088835951757,-782.677553483076
-1031.59214303683,-972.105689483402,-633.63574039701,-851.180983972561,-926.629392269734,-570.154395668598,-734.536160756508,-857.714802646809,-737.359655881938,-778.703067236581,-952.402713872528,-706.965763995281,-921.392280643156,-800.689693120476,-531.733593465374,-1105.94316480741,-651.250281000915,-610.100115102752,-703.180365048125,-639.99786753553,-577.201517968688,-650.237853061778,-605.713552181757,-584.369003264269,-693.20372328689,-647.670611335644,-639.487407214751,-677.982864217658,-710.339377477547,-659.012750805764,-707.962450596611,-738.989078399512,-759.843391127474,-613.453868967244,-684.983411697447,-750.73866776098,-767.795872400415,-783.072372161278,-632.391979733344,-724.522704478246,-751.957011546643,-784.581819698893,-755.179564413117,-691.105164748906,-796.672206747452,316.241197021748,-975.493002736902,113.091927344941,-415.347669359522,-811.866043479105,51.9366424029113,-377.458256317512,-36.9428576630229,-368.098692793451,-641.949322205951,-540.99537963547,-259.81377775945,-525.028866268988,-192.829292179466,-416.354450563635,-513.511942552163,-589.175816548536,-257.100050655238,-597.922445226916
-832.27217252036,-889.552315531288,-519.193510881048,-733.456788322578,-980.852495918535,-539.49213252425,-649.427793011931,-824.910155162905,-697.814020487534,-796.44920361086,-1008.67887940208,-695.297493039446,-998.470609348745,-977.525570645223,-874.995485327311,-1434.84597616451,-693.848376522766,-864.969500493818,-1020.23690857753,-776.078219017927,-840.604853235703,-750.53222686175,-767.203635177678,-816.855390244596,-792.031051753127,-787.925869926642,-725.197603664586,-779.944521960626,-823.026285179648,-722.840776826199,-795.043539831169,-848.28731634265,-898.814320767699,-643.630948017797,-749.027124590501,-839.925443757979,-897.391063971921,-925.144643056238,-667.365779359364,-797.941613577506,-855.619012034426,-928.856985927545,-833.603674992578,-815.363923930364,-952.208218447479,435.008576691268,-1267.20025949922,240.60353859969,-479.969161888172,-1245.35028600738,359.23796361885,-489.050851228377,285.298555713535,-133.221702482481,-422.068138574976,-675.27876279824,-80.6366065313349,-353.354846179585,49.3798081066804,-123.532778413896,-257.077995617326,-685.392891654838,57.1886811543275,-593.018257492293
-771.44043636556,-1012.84567813466,-548.818795784214,-806.448016872295,-1200.51367135045,-628.322566911813,-711.849327703157,-957.394488721749,-771.51458411864,-919.503904013432,-1178.6891472653,-800.078365657103,-1086.96914325134,-1221.95447800731,-1187.58054485487,-1587.42179428289,-750.019012832218,-1091.20410294444,-1269.4711075472,-915.311047795491,-1101.55785434737,-842.276852711225,-929.568232855126,-1050.29355459768,-870.853717625993,-934.789343426632,-803.54256247203,-879.304588543619,-948.583185557271,-779.67387518498,-877.700299764414,-971.405102482005,-1047.62854386505,-667.643491659976,-807.330538164565,-925.800902998149,-1028.82124101466,-1075.68585179615,-691.0118428409,-854.337960802235,-955.82557116912,-1072.78847844569,-898.076451618462,-931.110396693719,-1099.84183435921,370.789648159323,-1402.57930687191,166.035362650132,-588.129557944241,-1598.81137139816,506.296520738941,-663.462544873184,552.878325364793,-96.517730988072,-344.052185642801,-758.970374810047,-31.5776651053424,-267.802191335325,83.7325936684158,-7.19599643250808,-202.068675581539,-825.097044876256,166.897852230965,-672.377830442017
-811.804887483618,-1200.26265007618,-669.454026448017,-971.339361676492,-1423.85679004018,-772.091213957606,-842.18215695892,-1138.16409727782,-897.166749644315,-1031.30398938318,-1312.97997639438,-955.431603302872,-1112.10815262892,-1325.89593781747,-1316.86004659762,-1480.37959583418,-763.064715734261,-1146.90097175705,-1248.14144494076,-937.414796770952,-1151.04722851692,-835.147383411864,-943.406049415859,-1074.19971280762,-840.736675567218,-936.68743034716,-789.716222755552,-854.013572847901,-931.351857037243,-741.665432633167,-836.080875830266,-949.882764018655,-1036.04291777852,-613.824532620191,-755.988677362143,-879.779795617526,-993.365249334973,-1050.97382672602,-623.819724112197,-783.867051870217,-900.209178721685,-1034.18232146576,-817.550555163544,-878.200357982073,-1055.2171407066,314.15438395927,-1107.0469666984,159.846667165725,-456.533096302824,-1465.33812675661,548.638880475845,-600.663758748265,669.564849594796,-13.7790675490059,-130.160004774911,-460.564962228738,30.5240244618352,-26.9409544206524,9.42683461534517,93.1903397562207,-133.872909272799,-585.194450085609,199.863604966624,-583.400500877866
-770.984961954257,-1131.89903226093,-705.750741758733,-941.262720381078,-1331.87486333081,-797.108337053701,-823.115939039774,-1078.29384708538,-883.62040538244,-945.045714709181,-1168.56550606454,-945.52893522716,-975.517542064287,-1136.69754195969,-1203.34598087518,-1193.00707010221,-700.50087630437,-1010.97417624007,-977.156087411372,-816.481089508061,-955.459070660341,-714.023108436897,-783.698000393916,-850.464815540541,-694.858750438144,-756.636497589045,-655.258700338975,-677.666892543104,-731.643936706116,-583.037838356168,-643.632218823015,-739.745756565907,-805.902731225723,-467.717093806735,-573.760226482816,-669.882819270199,-749.843556189123,-792.625998978124,-456.332211903701,-576.118413115112,-659.089822475355,-768.150841352945,-582.076004194341,-628.265773296654,-777.899731783125,337.929349925797,-599.161569235867,283.887597208885,-178.211711287724,-1036.97419805042,494.042188050439,-437.902554270301,585.410412041943,97.6116411808717,163.42126318762,-39.0783159203591,76.9467764123599,351.565344075651,-59.2689224009515,233.99790686783,117.245734646873,129.051705903597,268.856199791924,-220.179180371113
-535.394012325371,-731.287687420535,-532.257263160714,-607.302109723327,-875.904363691408,-594.894954101054,-556.517030779186,-716.362742260188,-610.826707345541,-635.817366961535,-756.415505060765,-645.328216760927,-652.327093826761,-735.574887531283,-902.456289884135,-858.159657393929,-591.960027092233,-771.204520894636,-654.874765932105,-633.712827562041,-664.755011940782,-549.381368359492,-556.308735800346,-539.2093830973,-501.12259410635,-493.509104216781,-457.829930873664,-439.348271213138,-450.186591929429,-371.135821224431,-388.80155831506,-444.801219632269,-465.509299379692,-292.081636822553,-343.616522499764,-392.17914246474,-418.916306567976,-424.998466406962,-262.811961759762,-325.650037768389,-352.519482673593,-410.526294401685,-307.429138895177,-307.831577008291,-407.11719557801,409.773257212569,-217.153158844866,453.591295621685,33.1997563237804,-702.920786281503,423.091789955675,-411.846383975756,417.779726595466,157.463334654632,315.090429910847,81.6574883811822,56.4607053881171,657.591153674285,-60.816387353552,373.689852139127,501.584741896208,959.67484324373,413.772577651467,333.191429079719
-174.117488642451,-214.797643426272,-222.675559641197,-136.733696158522,-285.856518566997,-249.886179667317,-164.849740507164,-238.501908337591,-190.220442967686,-231.294189172091,-269.06063546859,-215.11626041496,-238.430376368937,-281.935509429208,-550.584668816585,-515.399875570416,-468.179325776055,-507.216073459472,-370.871158619189,-446.729752339683,-389.9715353575,-391.627550211657,-333.970897748469,-257.382666156379,-303.327967057563,-228.686534402016,-259.881702509123,-206.834868396319,-163.341636737269,-164.216485320559,-135.323824941811,-136.647719378766,-106.742641997517,-132.606663025803,-125.010037182184,-114.324358635909,-84.2711226427238,-47.0238634779743,-89.9273664689427,-84.8135600789873,-61.0107165906165,-52.5039750704556,-51.8327376798502,3.58300639783609,-39.8721263517434,481.7358022771,66.7631264824826,612.07891401235,217.456700805366,-403.335416007802,426.472282446218,-347.432767733274,297.279410831225,196.528123164456,367.769994462298,99.3758666891828,-15.4907008069727,878.114606275859,-50.823207582573,450.120267828262,860.213372449442,1579.37176841387,523.952356121261,936.952710206217
220.317843629964,270.222191859022,100.69312625314,319.109147369793,300.723902924986,112.351035147265,227.238229205483,255.801940502955,208.768898378126,211.604050218078,252.630512758806,129.132254498497,170.746071380777,216.891102289209,-256.180859860574,-137.288532042205,-298.946280635052,-235.237294652885,-60.7518237686643,-234.706940206773,-117.722282566384,-207.364179855459,-100.398501205008,21.1761431394791,-84.4742802259791,42.1521809301031,-60.9072786548635,29.970886612896,132.965282302638,46.828024524138,130.266887956627,194.7012536116,269.876954394637,31.3183401763701,99.2255726263237,176.258124663833,266.989023688967,348.669967497072,90.9443978135986,172.764081256906,238.633555295236,330.152325506301,223.947359003879,336.049464611121,343.486005080409,501.864764708423,464.475013234662,719.837589910114,501.500340730292,170.521475597229,485.546359954301,61.056957349918,244.018727792618,303.56069907723,557.296158783265,511.683946730421,-56.2713661555047,1177.886797772,-77.3615586156256,466.226079505261,1138.63255622984,1998.17969488714,464.33033012172,1482.00533896058
580.413388420736,708.146398264586,402.515308295553,717.514501422181,866.007586807013,421.881967927377,584.327745582392,769.932730548188,521.878607934286,686.30846472449,848.467999856599,344.287132411111,516.320365167064,760.218511130739,-64.6658724463944,182.277718091013,-89.897952837879,-0.952721262236548,234.337904818192,-15.2761496618994,127.31657548724,9.31536661283086,120.865637673895,284.968084747063,139.135770328567,294.877973646378,135.479730771969,250.776784347599,397.210288240052,252.776186864627,380.056040929431,493.4664194345,603.811573329689,206.524260028303,315.888721987018,442.233089260744,585.161220912053,700.15204622915,279.673097445795,418.075965880999,517.612544353021,682.61997907937,489.673446366594,650.630766228068,692.83822540695,422.882219702599,873.163590788334,706.729192749523,742.429304233111,921.409411069001,496.125660141728,622.354249017873,219.338255013149,486.792844969976,851.004201825606,1128.23114862797,9.82774803199824,1461.15878345998,-61.3168139637781,471.659339701503,1325.49069947698,2254.1117980672,277.247769630076,1835.27789138037
739.118973505151,964.253585533755,589.909838984278,932.541602512426,1258.58246957122,557.184398413368,794.20381416005,1158.76093556286,672.433801560532,1033.18774581695,1333.4064695132,422.709763166969,671.406420509561,1121.96616151009,-16.1253043061262,231.268246838796,49.1070135263396,88.5282733240304,332.541731822762,109.839582467451,233.08399068614,156.530265557293,231.349447516195,413.437221185308,274.691940305977,427.928722632534,257.62895608004,366.282471302327,514.575665397374,372.759218631389,505.568902375043,619.145027693173,737.461088643981,324.753004362076,431.912854506018,563.486914583726,722.040153740785,831.256123267681,389.47455643337,532.412801342573,638.895752258338,823.0865026921,604.342774927575,782.177132330589,832.170704947426,224.522904788548,899.881070865358,495.654712599947,626.400258241449,1276.24472143082,318.39638357306,737.574321807103,140.749634316954,550.697095558691,836.136794949593,1172.51008037722,96.358431605532,1319.75114220328,69.2097858623198,415.702326720308,1224.64788834644,2112.29552795275,117.446184590088,1780.30030168824
568.903855234712,879.453511438853,509.53498239117,830.016328837127,1300.4578129233,415.007968104755,713.682259603493,1228.31780297532,561.254551069281,1058.49254929484,1432.78987871913,315.770441788742,541.797626834675,1058.53915770931,-123.862629160613,-35.0342841539468,55.2359460446468,7.89491492418718,189.513096673234,98.3890940329509,170.102931760066,163.265313529843,195.822294672682,355.548463016885,272.819241717613,391.326898037453,252.360009068937,334.4517053188,443.701246820645,350.9130189536,453.382789515514,521.750781438393,610.658528240816,320.673035285057,390.503248695493,486.306152285397,611.997321698882,674.450408791163,355.715584629183,460.846475544536,533.103166585942,674.086061118452,502.343043169484,649.451812144488,680.426491191896,-70.9223653641657,427.304272471811,83.8656110195068,126.652921800096,889.682759376889,-110.285256168734,205.841048334175,-76.1288278342612,269.537237960578,313.12109697919,427.27270315591,27.4708824578446,640.579276566774,228.564000971443,195.058163376984,664.773738561917,1404.47286697162,43.957235770525,1230.25335982007
227.497334163194,566.212555891227,194.062348793355,510.899985655864,1060.61567336238,98.5028090488367,394.232295016457,1011.50915854935,253.859579236685,800.75913776939,1136.05663155556,90.4637136962407,253.923092919431,626.927783875341,-284.211694967549,-351.252169148229,43.7067496352276,-92.4477001691167,13.5863033659985,67.6046135997647,76.5057618910672,132.042226592955,123.405913712418,238.042369444141,228.606782334267,287.189553352783,192.820543921287,241.721177467321,302.908563772433,257.235706438227,321.248119113216,335.8108333855,379.670366616972,239.458542498519,271.165161791039,324.378619747334,395.453224465117,410.361613377902,245.174053368519,311.673075633399,334.010791660965,412.064254212692,312.883388073168,410.877036908709,411.486801211585,-373.532859887442,-147.578877082494,-389.934069897347,-405.133537917581,176.309695744495,-627.147018651625,-442.682227328243,-378.319281230882,-263.80809938475,-310.185851351243,-413.347491443683,-194.596192965596,-92.7599851730304,257.765792265051,-130.099203351775,-89.1529150108035,472.18967793431,-22.3423029076987,467.352973744252
-19.8152103969025,281.208624200562,-147.913842458845,196.146062304278,748.543651845661,-186.78653775754,37.134571826183,691.096661447289,-50.29316615893,462.306567617434,660.791752046741,-73.8107634808001,25.7918335891861,113.400752153463,-307.333867419966,-376.013499237933,181.02963526104,-1.56584165944669,73.7513625937444,186.367112080516,145.364136892014,239.143237117191,181.010504071518,252.661218533167,296.424739453513,290.763342921811,221.322586792612,235.670016296426,271.935240220545,234.919465380633,277.727366759669,265.052624764926,281.684137130155,208.275074722707,224.341847584525,262.470922159879,304.112433487375,305.986579999726,201.887760894283,256.013157015085,258.032785433197,306.291482176109,235.302979872528,319.295817639857,304.212153867375,-533.072755802783,-367.210195690617,-688.97660763615,-645.959817970965,-158.299286881861,-935.920764242303,-625.77723802616,-608.032755627633,-693.702927797473,-552.210527030522,-638.940711888397,-411.37353502128,-367.544270324877,70.7775862067686,-400.590995911195,-556.335044533481,-126.147533507878,-196.466979016313,-113.423995392956
-147.67865183553,91.613381879385,-397.987506731907,-50.2036280213064,451.832388746337,-371.177255741132,-230.138859991111,368.777211766397,-253.841893592978,182.419848883353,190.447414623345,-112.654270959652,-96.1943176609186,-233.816471568148,-124.904589579491,-50.7164544561509,460.753933538594,322.539534425371,430.703964764029,474.049567343355,428.824154600341,504.773118144889,415.156938725394,454.830800480525,506.082473246367,456.38471954936,375.239768916856,364.115425672762,397.77036097203,333.886166381332,377.144492800093,365.753647716063,377.521042305035,282.960935405117,305.129978938261,351.789053950447,400.562038821759,414.548912008423,278.313792116343,336.928431968561,351.292619765792,413.164949090341,313.685383196559,428.066269037278,418.736321346981,-455.640459063892,-207.273566403696,-659.321644697084,-559.819435766113,28.3463627077751,-900.926988122353,-333.02445485577,-702.087966543555,-806.625734132822,-396.929006509574,-241.9304116657,-548.421397506656,-172.222984400648,-287.367188790601,-577.804858195042,-601.53180053804,-283.424749194072,-490.078935871727,-445.810928388473
