-1.81241094798234,-2.17489313757881,-1.52242519630517,-2.68236820301387,-1.66741807214376,-1.30493588254729,-1.23243944462799,-0.507475065435056,-1.73991451006305,-2.53737532717528,-2.17489313757881,-1.23243944462799,-2.3198860134174,-4.27728983723833,-0.144992875838587,0.434978627515762,-1.88490738590164,0.942453692950819,1.08744656878941,-0.0724964379192937,0.797460817112231,-0.0724964379192937,3.62482189596469,3.62482189596469,12.1794015704414,3.11734683052963,3.84231120972257,8.62707611239596,3.26233970636822,5.00225421643127,3.91480764764186,2.97235395469104,4.20479339931904,4.05980052348045,0.652467941273644,0.869957255031525,1.59492163422446,0.217489313757881,0.434978627515762,1.95740382382093,0.652467941273644,0.0724964379192937,-1.1599430067087,1.95740382382093,-1.23243944462799,4.49477915099621,-3.18984326844893,6.45218297481714,2.17489313757881,-7.32214022984867,4.92975777851198,-4.56727558891551,11.8894158187642,-4.56727558891551,-3.55232545804539,-2.3198860134174,2.89985751677175,0.362482189596469,1.37743232046658,-8.91706186407313,-3.69731833388398,-4.71226846475409,-3.26233970636822,-5.29223996810844
-2.00267275143645,-3.65014603393558,-0.481704099263107,-6.05810364252139,-1.74966349078484,0.55027773298795,0.38679661163658,3.75423961455416,-2.45613962446499,-5.37011575435402,-4.44760685104782,0.38679661163658,-4.04814817042578,-14.4234312294747,6.05418083832695,8.22616088764209,-2.78164532303589,10.9241042479051,10.9596241947988,5.52821752737911,11.0335771768499,6.61566409616851,22.9994122377279,23.8693694927594,63.7356905154415,21.5339083220929,25.4813228283648,46.1550228761479,21.7144211448252,29.7527864890758,23.7954165107083,20.9909133097641,26.1863424179131,25.7883402814229,8.96815696821598,9.85514592462845,14.5275248100933,7.41166836914891,7.86367869804562,15.7400194650767,9.25814271989316,6.36119829138507,1.09327274531674,15.0150550858838,1.11176099082952,26.6198645012971,-12.6708546504262,33.6603114160585,9.66735038123696,-27.7837303122002,29.1188067933149,-16.9593500125182,63.4471613078962,-17.0318464504375,-11.3459739782343,-3.25068735331355,18.8345084176981,9.18710282610569,13.2780536640844,-37.743979533378,-11.3814939251281,-15.6174376389453,-9.8975017639803,-20.0368072637586
13.6507550072151,10.9861845234376,16.5426044114974,5.86073920664891,12.6887221007704,19.174202460494,16.8459833844615,23.5340684269703,10.3090423444443,6.81767708886781,7.99971195562931,16.9909762603001,10.1727829729255,-12.2918220924018,29.5845701591782,31.8203131420928,10.9270813068053,37.741762731862,35.8202444310855,26.3338421798395,39.2638223520164,30.9862762756597,58.9825921257732,62.5305479514232,136.646406996014,56.8066428857672,68.4215726185243,98.9232719718805,56.5880626040283,71.3891216335614,57.27455908251,58.1326145259402,65.4542788225052,66.1633024682982,31.0460351530145,32.9171488759245,44.1297068397959,29.3507396703157,29.4478754804007,46.1077459795378,33.0019824327036,26.6738320676784,18.6456916374333,42.5228136628624,19.5609584461055,65.2886157651917,-22.1162123837654,69.82710270301,9.44571178854747,-35.9271810080579,70.3683859521889,-22.6819549168695,141.487362027056,-22.3734809196796,-8.93711665004873,15.2616522403934,47.7131128812318,38.439940668481,44.0909488545129,-62.5900627699006,-5.92815178048282,-11.8321692271664,-4.21436805227131,-25.7466746075455
40.0766773423816,39.1637594403131,42.2709882244978,31.612806500822,37.4258197871175,46.9186066360796,39.9209162611607,47.8748452596507,32.0876201063312,31.9422355211596,34.6759322993792,41.8413435939562,35.9152592658608,10.4752060168126,56.1736256991423,56.0501465264258,35.0937177565577,62.400541488089,57.244590514154,50.3862829087985,63.7884998105031,58.3089544663435,79.9687249684772,84.6983152191841,155.809320108937,73.6251367941893,99.0614717883528,105.735826891246,75.8369605538696,89.2435677194673,70.2795216999357,84.0679020014099,84.0818451703006,90.9570753383768,46.7596762878901,51.4837951936358,62.5306868695075,46.7163555663876,48.5682042813448,66.3837116833164,52.5854466117062,45.118276628252,41.2747249446497,60.1135735669426,42.5706021139655,89.9086553502739,-28.9760364155316,74.5912439416276,-18.5128654842727,-12.0222026952951,92.4983401222889,-11.7979139132058,176.963765651876,-10.4491250211496,7.87989070187863,50.3064143473023,61.8440094451144,73.437569284108,75.786003757401,-52.1453452423615,17.1808007061991,15.721902701431,18.6468633018085,-7.46414063234102
48.5932679748986,51.4400010264565,49.5243310070679,41.4715565890233,46.9200367013331,54.0788646955918,43.4275371913541,49.71322413761,38.1026351071511,41.0037361140775,44.8565927056103,50.5223578746732,42.9051844424509,25.3162247357387,56.6067406179114,56.4310074076305,42.3346427828823,58.7557239955126,53.0050562069721,52.6161126663943,55.3367158581335,60.5753352946193,63.7234584904007,62.7334990737907,109.286745211825,44.9220812441239,91.4753429210961,53.9690314722966,56.4496426243092,64.0285691249763,46.2615813969839,70.8242673580503,58.9796699568636,80.8133865311963,28.9805766989989,42.706678164832,43.2784342824179,33.6893274738718,40.1377146333964,47.5230152803851,42.7409041456921,39.1004601587872,40.6843828213363,48.5296355793268,39.9572044627171,88.0671662783915,-38.7622689284882,54.65104890461,-49.959839957503,11.5381305653376,81.9309650716184,0.881131834849387,156.396347877222,2.22883526060875,21.301578822915,67.1887432917465,49.5618748167456,84.0195552268797,86.0028522360745,-25.6598130322808,31.8419961812227,32.1655627832063,34.389405642295,12.1544451284912
33.0712067689933,37.6558195260871,36.4267435803842,26.0975028600103,31.6206330966071,36.2500037151568,26.3282435329466,27.3919216634115,23.4313965223329,22.8618178047706,21.3020335358869,38.8862367504542,24.194299087156,11.4137342881116,33.9005459636608,35.034142686253,27.1446345473845,32.6085542932057,29.7584552784409,32.101048819176,21.8289390020177,42.5110332496208,27.8776972785009,14.6482182214253,60.2597100008489,-9.37657751281768,67.7421330396691,-4.29236058689814,10.4007198860854,24.2158490776835,3.5446885284834,28.6470537170706,17.6009777788068,61.1310113437303,-18.992985093601,9.21012321505675,6.59192175541375,2.3011251266347,5.30553634021995,-3.68471264104897,12.0795252802304,15.2985122564257,13.6208223726184,23.1106822222882,13.4068230440371,80.5068225798532,-44.0224666520496,54.8991870391845,-42.0538154821496,8.7442880705837,69.009614491893,5.60124439435416,135.465108900836,6.94809314528181,27.0000846547782,55.7451750708396,37.8343379661791,70.2652522705292,83.1457564215536,-12.660445709892,28.3740642851143,13.2447416653727,29.276377976093,10.5195315108021
5.18809372489328,8.12212103095244,12.9292318140268,-2.56969155045342,-2.76920821274961,5.69104993897741,-1.07208346438165,-7.23018663486837,-3.91115262830223,-12.0068315212526,-22.8205527712914,11.9415944397204,-8.58075941341437,-23.4559737512089,3.56621765938789,1.12822714731905,1.88172116658333,-4.21925398336342,-5.20736693401196,-2.39647553872435,-22.48971087818,18.7312940827712,-16.9293247675167,-43.5824238227377,20.2894571146362,-72.6968985729769,42.9664599436139,-58.577830226848,-63.278271946668,-22.7020022382539,-58.875708680442,-36.9464463063198,-27.3940213996081,35.9528925776908,-84.1249948205379,-48.6291189023637,-31.5331594469461,-34.5717797924106,-47.2055343945623,-73.3691480093413,-29.8712833263302,-21.2002008503011,-31.0391988331121,-10.9471239219519,-21.528388401603,61.8898256759007,-33.075933270757,58.0417404549392,-8.07087502361318,-3.65370905359324,56.2001094887815,6.77142955896136,117.512064608172,8.8307555648742,29.0219015631117,34.4792284784779,30.0586841672803,47.3420297461198,68.2395463241695,-13.5139372348225,17.5767427277256,-24.6818171310806,10.5632727088303,-9.16415466549997
-31.5780346213702,-31.2623958338763,-23.1046821866768,-39.592687729236,-47.9091810577921,-36.0121316646122,-40.2547341060294,-49.9139277949838,-42.7104939948231,-53.3477425074633,-67.5074478812457,-30.9470908118066,-51.3664594104062,-65.8580250424874,-34.6174425176675,-44.0152077498571,-32.4063862956453,-50.1606682846014,-55.1149144080196,-47.2991297517145,-76.8980268195425,-13.6894115801917,-75.7226666994509,-113.959316555212,-36.1264243787657,-145.702133174982,4.88231361101078,-129.083554500511,-165.811341634717,-88.3231903070491,-142.772999209697,-128.55805396923,-93.4946832425898,-14.9495885102424,-155.068310194881,-131.871970274569,-86.7649813485836,-87.1892905666487,-109.275382593726,-150.220750407806,-91.3983860249717,-78.5485741776522,-89.0950120426955,-61.8130928463915,-65.3165848906564,9.09767318884473,-1.99696247059955,15.230218260109,23.3865759261945,-4.29674125661009,15.6481724204876,9.97078871047743,61.058575159288,7.29796978557279,24.6680801811082,10.3386650526017,0.856920357277583,19.0392800413262,12.2193641826275,-20.4492526811007,1.96146900753382,-58.7903903834572,-14.2862260790903,-33.9034521934152
-62.8076364097785,-63.4086802959231,-57.0577104779221,-70.612233155607,-80.3596715404265,-73.6652252437291,-75.4280921273168,-83.8927353828697,-76.232041457379,-83.9944488028467,-94.1165804899218,-71.5023499456559,-85.9529446952002,-95.6554351288912,-69.354919661366,-84.8899608223219,-64.9281879765852,-86.4866136633528,-101.520547501037,-82.6452239317458,-123.033568988434,-43.5402806868493,-126.872229503336,-177.366547325742,-83.6013049997004,-208.81254140323,-31.4103652732912,-191.141962876582,-254.500613091092,-141.3389772496,-210.630935099793,-211.618623654898,-165.68358396695,-64.5292658919622,-202.724188543505,-211.4234867738,-150.040644770105,-139.532088438364,-150.743004752537,-207.388105595349,-158.505057879066,-134.684956784854,-138.63161534399,-106.245875381665,-103.029285599128,-53.7465718948954,50.6467871731973,-50.2604288830894,59.6211727475337,11.9897787218265,-41.1129777021476,20.1155850422047,-37.4486144702052,13.3738448716208,22.776383082736,-10.0355842898278,-40.9741834347762,-9.42461752558167,-91.3816933315204,-14.0202479685939,-6.81396860671515,-67.8553697900036,-30.8806657494306,-42.5948390800258
-61.1504093058654,-58.7180938288022,-57.7112962189174,-67.5463788579149,-71.4402928753528,-77.4673817277773,-74.0055278584817,-81.5109663114613,-75.5014352690976,-81.2041285228912,-85.6001024514299,-77.2169672484701,-81.2138593401796,-89.3780395210302,-73.5427643001839,-92.1384920824216,-66.5256724730475,-85.8376498552704,-111.279443617783,-80.8390242040598,-130.575111291838,-40.4564305341012,-133.660433171259,-197.844018134994,-82.5544098695307,-232.172568855727,-25.1779169362689,-210.834345723152,-286.185234036565,-134.813261421887,-230.662493688275,-241.863123520626,-200.796889366313,-61.0058989933848,-192.304939901817,-250.653329426367,-181.195808731969,-152.650863013141,-138.513553794452,-222.050104212441,-198.014135506749,-149.541029909996,-154.082062851819,-113.541321822308,-105.069903902873,-76.4478261980746,100.417491106533,-75.8425686495348,84.6703385237499,28.0736313826916,-74.0559338940394,34.6847879497813,-156.689600814501,44.9432324250457,28.4304988503349,-5.02961038222562,-57.0878455575512,-34.4241199681349,-184.498946901675,31.6482633402627,8.96893156281148,-30.9549735793969,-18.6278657782184,-14.7019064227666
-22.3448804807609,-14.0944731323719,-19.9005202138236,-24.5202419213269,-22.0150925086722,-42.6239769703499,-32.5578174184915,-40.0374069340406,-37.364374739731,-42.3457515934467,-41.1530474945502,-39.3827929649398,-35.024942221607,-48.6828010710129,-40.4676976017321,-56.136803649479,-29.1693951687241,-48.7008520231805,-76.9916720575642,-41.6155531599365,-94.6746566357147,0.0512972380508309,-94.5655828584825,-165.342051005841,-43.4467505695748,-208.114747144009,28.9778985125006,-191.472346277463,-264.129583043988,-73.3022849171958,-204.194697963074,-219.49026431318,-187.722036009376,-5.92130134634437,-118.78085915902,-236.857937226076,-170.40505278857,-125.356048927854,-77.2735383433732,-192.593687781551,-197.688957531221,-123.050185187387,-137.699234911676,-90.4192807959165,-74.5463941353096,-57.3989274562736,88.8342888440512,-57.8527123548901,49.109253631324,16.5871784658598,-75.4039110430447,40.1766566055723,-262.326281613481,83.1339425050666,21.9856282744736,22.4247486541004,-37.4599817485264,-63.4510568776595,-187.789683531014,98.9220189398474,37.1594231124404,39.2633881618141,22.0218095851802,42.550134131587
13.1828379177348,22.1572577255352,15.1929215689468,14.8441596750177,17.5671775571877,-6.07328128292244,2.65806176264776,-3.88938406789595,-3.1339210350161,-7.84894630176499,-2.20761437901492,1.107570823101,5.14786373495867,-14.4739727818245,-8.02515200995305,-18.5839828112694,7.49035548789938,-16.7433139869993,-39.3410280918203,-6.30178471192433,-56.2756668890588,33.5111926108255,-59.5697799253656,-124.263021392917,-15.631582142264,-166.672982103764,77.9767769802519,-159.721127980216,-225.617943919845,-15.3745023233993,-154.191744909017,-186.949042726992,-169.605924701252,41.4189644796909,-33.1780722083569,-195.041494142543,-161.457899067398,-108.988247407911,-17.4707033921864,-145.694113499222,-183.391250242958,-106.712779929161,-119.504004070698,-76.0700435687688,-60.6344010215453,-41.3491553913158,-4.66429931977127,-42.2678479066136,-37.8470678491165,-25.4369965582168,-69.6787610618355,16.2662271168323,-295.117304811603,79.2488486550027,-12.9160474161744,11.2971269163346,-22.3552391075484,-101.005090146191,-107.323949675359,122.390551957803,43.1823514755646,80.1921477451378,52.3934512162102,82.3060405317619
-3.56404875167344,-3.99715252662035,-1.23397050990872,-3.71676716791294,-8.64536798900084,-13.5132725025611,-18.3661684838015,-25.0205143658462,-19.9230800990641,-26.7160489290995,-24.7941831037092,-12.6029448075674,-13.682308575375,-30.3401847394028,-24.5489518751845,-35.3040497098369,-5.23721353704073,-35.2337516334691,-52.7921113038123,-22.2477106534109,-67.2856998258535,13.0042013466995,-79.3698054962204,-134.216519351525,-37.5360046065664,-155.629150833164,59.8535413249211,-146.902526250095,-210.224143678144,-14.1926002484063,-125.893882954324,-186.379871277622,-195.469846873859,23.6687768196406,-5.00708782519193,-179.161055926063,-195.801296532582,-150.533974349082,-13.6742415057612,-129.218840514831,-196.121036667748,-145.94784749477,-132.142126842607,-105.66690349374,-107.631371201876,-51.6722319669251,-102.512770606476,-46.9683733792516,-98.6222095304204,-70.466540440146,-73.3652723353256,-45.2143116390543,-233.754638450229,23.5814305684262,-63.950197675278,-89.1162683644144,-45.9779032651153,-142.754045538142,-39.6116441132885,72.058927320534,9.52105373119283,35.8006581115156,34.1251766522245,55.36103244343
-68.5863811622852,-81.1112628605522,-65.2095385872465,-72.9785820085921,-87.0221739542925,-66.2734093177643,-84.5850367068444,-94.2146293522631,-79.3490654791632,-90.2389518303799,-100.275320433051,-77.466593478141,-82.0565429439026,-89.1974963715349,-84.2226708008167,-98.2020287336083,-63.5247820597758,-96.3641683841123,-116.120957781815,-85.6322766322506,-125.326293382815,-53.8636710635761,-142.027655160635,-189.440297238575,-102.2073477556,-189.156360873145,-27.0850333402591,-167.756546954937,-225.136076034253,-64.0796053019589,-150.24441766093,-212.860475210908,-252.955050019802,-58.9235829467147,-39.2623074218973,-204.406023027558,-252.812103265379,-227.005986515585,-64.9870300201566,-155.916771942646,-235.719033746083,-219.025132033693,-173.10853575758,-167.543159089847,-192.695488918288,-74.2527763551986,-113.444697728894,-55.0759055581081,-93.4993391003982,-91.3786001445443,-84.4698961734763,-113.281304601195,-147.908612430403,-35.9414879026922,-104.667155039233,-217.543081317888,-81.1470262083441,-180.861714794478,-41.3103416913052,-5.20388434763414,-53.4001711763902,-70.4847695798762,-19.8967758571779,-29.712899313221
-129.728888978409,-144.545542591341,-126.808858089005,-133.777958365835,-148.130378487199,-120.121578810589,-139.97919823717,-152.566671237575,-130.908304349082,-143.612446430478,-160.567306472609,-133.295896083682,-138.360708043228,-142.137816767222,-135.197696099507,-149.428664892341,-119.556202593124,-150.394185050808,-172.147147663917,-146.261220204555,-177.616764360301,-120.944248498786,-195.222305661763,-227.071385113443,-173.253945276864,-232.613272446453,-125.404712825567,-207.280944790174,-238.018586808107,-118.840839877192,-201.473526764928,-217.678252024491,-283.394577188306,-150.658378521951,-78.3280302165049,-217.59485411626,-273.385333028533,-266.710530205065,-115.005686616239,-179.005046159127,-251.097736565724,-260.463849007536,-200.637105654597,-207.08424710773,-246.430026833563,-102.084175692748,-54.2432791072997,-63.1794674726732,-56.5582050481154,-84.6369746525769,-106.253066419393,-138.19594869522,-128.952487015422,-62.2572331260553,-114.856987224754,-256.177761852319,-96.02427709186,-196.188373781376,-83.3758833842975,-58.7483951547418,-116.658225667351,-152.27982870458,-72.4792877213507,-110.084909845109
-148.611937645511,-154.035796739706,-150.039773312272,-148.911432276387,-152.701746246091,-137.348367881756,-152.626003921945,-164.770809777516,-142.847398074133,-153.623706917552,-165.834398190272,-143.931014346664,-144.295904309932,-153.21869568916,-146.819098413412,-158.589449383709,-139.165847394567,-164.688997740431,-179.935302003823,-165.822671571503,-184.252699434681,-154.087627353648,-209.318206634261,-213.148303161286,-220.73775632588,-241.447191741482,-185.524365246196,-234.571359686358,-214.964162254551,-149.158732791324,-229.580423992782,-169.129168475111,-253.437259963714,-196.583017670834,-81.8074535263897,-174.952696724746,-229.733774476012,-234.398333965833,-115.270646840829,-155.215859212945,-207.140530395013,-235.591292391767,-180.945758590401,-189.107268880054,-233.734570952978,-140.144260415909,-6.87943381378992,-83.0695516699911,-26.1400092239474,-60.7336438499035,-150.132149604817,-110.058491774765,-186.181528890787,-72.4535416489831,-94.009559238642,-189.871943549947,-108.979738800197,-169.998395191135,-124.317406090725,-85.3516220773211,-143.903069425601,-155.125715573464,-107.066071243917,-135.987633667276
-126.487351980418,-124.42028024848,-133.860426476176,-125.368679349654,-118.193090278992,-114.698621470359,-127.20282694442,-137.189597386436,-116.989534516001,-127.398506749181,-130.645769094112,-120.647334020126,-113.089932207396,-122.855360514724,-125.833992498589,-133.987017348518,-120.330076380758,-140.477645224976,-147.157224929066,-144.935175458068,-146.684628591573,-148.075953535902,-184.630035363127,-163.851013269081,-230.260899687112,-201.539160637031,-199.802390699282,-223.183634206349,-153.997648552293,-150.506631756122,-213.303680650252,-88.9559498664868,-178.758112477377,-180.355500010033,-53.327369882431,-94.9217554261482,-146.816292559689,-155.122498987641,-65.7873926068196,-91.1692171089041,-124.966993414812,-162.659649965318,-119.859594090798,-131.179274227507,-173.933865096968,-168.73645504104,-0.357424842603709,-110.06410093675,-13.9856247249289,-30.2750474647604,-194.40976276268,-65.2635881713355,-240.298187550562,-89.6920619997558,-65.9027882420647,-108.127267777451,-129.83440684546,-115.172310945865,-141.174638788464,-93.0340028117959,-123.032122728058,-103.291572103281,-117.439344392576,-110.805628399656
-83.4115904114633,-84.2265040926913,-92.0670159537453,-83.1984539409755,-72.1181124228299,-69.8638461042056,-78.3834750528459,-86.0094105768827,-71.861201005205,-82.4586869371787,-79.4258509066304,-80.5315412971382,-71.09304298765,-70.6376998758334,-84.9590312847813,-88.5086829354579,-76.3936085750783,-92.7019793526254,-96.3392681988611,-101.73663541087,-89.0897145827609,-115.824890332617,-133.720743095617,-98.8429316151257,-203.489074688963,-130.603829066564,-179.566732802001,-166.187534679293,-72.988664389394,-116.036915144457,-159.499146106371,-28.8747060660956,-97.9455316391249,-117.908807879571,-2.20223189926073,-14.6754069653723,-66.055070928455,-67.2847396309147,8.70340961609624,-11.4985201150171,-43.3606943140437,-76.6601471482068,-40.9325196196775,-65.2554501490449,-96.103986213623,-157.004943211842,-7.98430145890053,-119.724451218104,-18.9895133240078,-4.29343225987251,-184.13100238571,-34.0946891125557,-216.643917501552,-94.3655377205777,-48.1444111021425,-62.1190023689309,-123.85655087712,-61.934654551945,-118.815362490613,-77.0925006628069,-78.490573521663,-46.3983654871387,-98.0761472468001,-65.9092954892015
-38.6229251198537,-41.8241536664223,-42.2641792427171,-35.4707523850381,-23.8017754237016,-22.6685335622794,-24.5365881410865,-27.1199451324403,-26.8488641390128,-29.3480229996923,-22.8894531272407,-32.1993666572313,-27.4968581426406,-14.5606005650785,-35.7961166420904,-33.5074539952452,-26.7860369946356,-39.0344009546361,-37.3872358671371,-50.8957313560139,-31.295512158358,-75.0541863587403,-73.7474614600502,-23.4426611191245,-159.201784328685,-45.6524257374087,-140.015889986555,-79.2601158170497,15.6453171012117,-46.7730172680002,-73.1740621363088,-18.5787030086952,-39.1484492000055,-45.6806131782747,72.9028457698799,55.8494989315074,-6.51260557566648,9.65880795800133,89.9088556995313,79.16890425255,28.6711654308792,2.36883771121539,43.626230358685,0.759593054194363,-17.3307298370144,-108.720202590867,-6.21111378018934,-93.5479599150247,-19.9210284461956,11.9802081568173,-110.290478305674,-13.4877662010183,-126.152735817792,-63.4343154056352,-28.6997236037479,-28.4931303610874,-75.331383885035,-20.570699907367,-64.8571659486614,-40.1794893890033,-35.5076849184245,-3.66269987040618,-57.0581012831134,-22.8004593407834
-8.03136956668858,-7.21131246871358,-8.23834107950288,4.2170785276108,14.1669814025101,9.31038005229973,12.1487995699503,16.7038061060549,4.28135184531538,14.6325469778594,23.9689429383502,5.59216118067185,9.05525249393009,28.6919711350428,-0.649293621263034,9.35856758078838,3.1173534248628,-1.59422181714369,14.8099862559454,-13.0084143015762,16.3460785670724,-48.3345545429523,-22.6038505301586,49.785883469439,-125.599223458626,46.0889543771185,-112.469935593944,5.57919113404869,105.771944530407,23.375709894863,40.5479836007214,-25.2318530567329,-5.51721058025139,-6.5868880885058,146.024027966654,122.368870131906,36.6437132742189,65.1624872195124,147.473195270289,176.832270825184,98.1615582168421,60.3474143970807,121.769804275414,60.0163934271992,40.9200863033945,-61.9197976899064,2.78573862015943,-50.17334716072,-0.604740788041572,16.8961879918913,-39.0286438882414,2.75707394198276,-42.9719075861897,-24.5758231793596,-3.41041747978741,2.49308893870866,-27.8498838058671,6.99082690215923,-19.3562034724919,-7.36605963221668,-7.92281605666126,20.4701592155927,-22.7077465348231,4.04767508136062
-1.69798434420049,0.17885396460064,-7.67634903358622,18.7759086268393,23.0764984438033,13.2214098754974,19.0614074772997,27.9927111980348,11.2391605451855,27.3174750205594,41.3002547561069,11.6020005772107,19.9411546638029,42.7555673233885,2.22335555012313,20.7973835306634,-2.79970369550676,4.11649387498976,35.8863693391903,-11.6670225253361,43.0847825668157,-58.0657413469479,2.42802254772598,100.429853801958,-126.7356021527,128.667292994762,-135.641187678427,60.1011855022149,195.281020597366,50.3051489807851,155.411077326098,15.7639457811247,13.5270070926162,-21.0159285244923,152.352904725915,185.000388862595,73.6904019752321,87.9837718025904,133.108841078285,250.784370565445,153.946775390303,79.7781644070055,165.720265309037,84.8177102261849,56.0478860014521,-49.0013639513752,-1.24335821454445,-33.4463629236077,10.0417045035854,3.04359645401947,-24.9626661928234,2.34347536252497,-18.8867060724628,-20.7456224720648,1.79208824414223,6.37912126561162,-24.1171571489796,8.74001598860368,-15.8067042138919,-6.21723872581975,-10.0782472298297,17.9750320691408,-23.3977174597948,2.68127328459553
-14.1242095483762,-14.6343066998944,-30.5287057816616,8.09547711328723,9.24451410905337,-5.36368448083689,5.32651102086095,14.5846220875274,-2.32716453176765,13.1057029040633,33.6111220045943,-9.12579009204603,4.41957730093872,30.5331148163837,-18.0333954545239,7.84413095812102,-29.6652447069017,-11.2359245939453,28.2191168784037,-39.9657008338321,45.7065636731704,-102.305447580164,1.07686822515226,127.341661640983,-160.640471224283,189.820426858674,-216.72797041135,87.2789130531244,285.774310720989,19.8942415403909,241.385034232754,119.799931130297,37.4859975190247,-86.1928165005825,60.7366537089757,247.563336992341,119.540661078254,89.7056363780785,37.400457942917,273.321108365484,190.637456000474,75.3150531097437,163.751008819692,70.9152466634805,42.7449450160536,-66.840132394902,-26.0342467485273,-52.8510469495744,-15.932968911115,-22.9871051313224,-48.6751393198346,-15.8416038165367,-40.702531944591,-49.176229438349,-22.9745931119099,-13.7888128901431,-48.263247682932,-11.6016810764328,-38.8991704618426,-31.814735096073,-36.6611373594435,-0.127369541234375,-51.4696130354882,-15.6868075650335
-27.4784363748225,-25.9033622235149,-47.289717428289,-6.72313733985535,0.558054368999658,-23.6723837250115,-8.08915450733318,1.41871552691803,-14.900652453768,1.0940636699603,25.6134598769793,-30.3460611477985,-12.6714668871924,16.4375066622499,-37.0596074363906,-6.13929376495536,-48.1052127810699,-23.6647150396109,21.9358329684098,-63.4382564744647,38.614429044265,-152.869669513437,-1.05132928718294,147.759597444517,-193.459842269327,237.627209444264,-317.78375710204,109.780077702198,368.867426699489,-50.8241941117784,290.60151719078,239.061206498131,97.0159575859417,-201.84404124133,-71.149183872562,310.12673561724,191.528600208275,112.016916519782,-87.4423337708657,250.019027347786,233.361086945976,99.3126490398587,145.914683887141,62.0526533263007,52.9586273872017,-86.650699893523,-48.861624245504,-72.1154706728859,-47.9646213324298,-34.037462989539,-65.5402606535832,-27.9191341767302,-63.5437131020937,-73.408439739752,-47.9341968985778,-22.5707510373008,-64.3110085472521,-25.0017148099325,-51.7726186154529,-54.5369137815722,-57.2078213292423,-7.60509928675725,-71.4169610984409,-25.6374117260043
-24.4445975629016,-18.2412058214971,-38.8810649631673,-5.95077592878419,13.8518326033006,-22.2048921261467,-3.90546044946007,7.42556959071832,-8.91801769859151,10.7280263149359,33.0217157495434,-31.3403843823181,-8.10004519576045,21.0909197534713,-38.0745662249602,-4.21233021444102,-46.9539299800918,-20.0622444291073,36.5901050053159,-59.8228149913098,42.3678625907917,-177.881287543956,22.1080580103199,172.799277563819,-185.516182568831,282.485396342457,-385.432254543954,138.863412313159,425.279071048112,-131.987669052735,307.212622934563,326.203598034847,204.139126599614,-337.198407160305,-151.146220799197,332.316198146896,284.667140787743,178.722621406008,-171.598988455952,199.998395081155,289.75381153857,173.519324718485,145.569235741258,92.1410155237214,114.045797759632,-83.458724119276,-40.8931320105385,-62.0168561597325,-41.2550935328095,-15.8501203879349,-56.7014574168223,-16.7187862294842,-57.0328475232499,-69.0542758007246,-41.3143639403711,-3.63554362946532,-60.9649836559924,-8.4268812096069,-42.5109986726067,-55.0945488373878,-49.1278119833913,5.70389838543591,-62.5821647612516,-14.4793639694217
3.94973370125585,14.1663341447129,-6.31981171495942,18.510319315998,46.1734074329571,5.25148125643067,25.3944348279181,37.7242136393881,18.2490071101346,42.8041065307496,60.1881904684649,-5.56326676671452,23.7550806786647,49.4459124489298,-13.8256354729305,21.2928807092817,-29.6012523601121,5.76047754564594,70.7506218138287,-28.8931442051808,70.5319466480546,-158.34508294539,73.9754186667039,205.763954264246,-122.197978775312,326.51961494183,-385.525635070537,175.8862719777,446.730630247818,-192.312949786205,295.2333550469,374.990411834392,324.023035604852,-398.120053301964,-138.728704062945,275.479774808617,367.895256844843,264.209460145151,-169.662041373288,146.265030531117,326.656669151784,261.712337099916,161.166269566382,146.255154450619,199.452454829329,-49.2003326600811,1.63115432656398,-25.1393097387177,2.87407236245748,23.3138977695389,-19.631497069697,15.5768469034423,-16.8667981407149,-37.2551967444898,-1.22412673380102,33.519784209861,-33.429140535799,36.4360280176752,-14.3662790525537,-29.3636203322138,-12.9081109088927,35.8585579329072,-28.0527152658534,19.7441183765709
49.4705703893056,67.1026209487188,39.7996633921553,62.9548546873443,86.2425825352476,49.6084323514314,70.5115594062057,82.788486962864,60.5759941659579,88.457885922158,103.910375313275,39.0640923321675,71.0953309386779,96.0782046377785,30.5564235855862,66.6005113994069,2.24959586051378,52.3033318963244,113.429315605192,21.9016868925348,120.362488707753,-100.920124679562,139.787981642013,245.512787096983,-21.2379877123548,367.04426275514,-313.904956306221,225.17134343273,442.333581597763,-199.73601366185,270.420747057153,399.438218755935,406.997145021364,-315.312758712103,-57.7229454613946,202.413943744638,413.677175553765,328.517031792015,-90.0971572310569,124.342447125047,328.957705510112,324.819651953453,178.20111758968,197.208202133918,268.106571690448,6.14839513701603,56.4394207790178,23.5117516708158,55.3792881780507,72.8587925230214,36.5532104367884,60.763356645267,42.1453026126956,9.32136525783562,49.862347983627,80.9244645361898,21.1468368841828,91.1682549043705,32.5424515531778,17.217844044975,38.0479436772698,78.7986789107616,20.8075539000668,70.6733826464535
90.190619512819,115.426019304805,84.4101931278651,107.733404925557,121.688581184754,88.5861366830086,108.976106973948,121.763761868876,100.533173285708,129.371618701185,146.818889398284,80.5183555682767,110.356450705981,143.33355913308,74.2656372827812,112.930871545952,42.224997275693,99.4166560497197,151.100565379599,79.4646790597788,169.093642653323,-32.8687050726886,202.376054450794,278.181638415961,86.9721618660558,393.708787337701,-191.31431548073,289.99600188878,422.648297738766,-128.565230472448,260.932279563653,399.114760194415,433.840625874132,-136.817844791152,45.6802891881342,211.569068131609,413.472011854836,354.331758669139,11.4267845814693,151.524710260983,316.275264156027,349.963575271938,194.518322797528,231.083729707236,296.392194869242,59.5577743558879,98.4462447185466,68.2243300004542,96.6128281597679,117.817440546207,84.8337413957191,103.378630663259,96.7905162056479,54.6476996108645,88.9213237219924,126.781403039441,79.2251565691081,133.583399389043,84.9429904839797,64.0537485260875,85.02736944988,121.375788377033,65.9829362150279,115.808758518342
113.467692100951,136.186293011698,112.297197151644,132.433955829319,142.116497851477,107.730565319945,127.739948752501,142.141791735313,119.589429869486,149.433049622977,171.407273429877,102.344293661205,127.880610314364,170.283790612567,102.313249909035,143.100227029618,76.2189762789034,130.224159925267,177.78532816638,126.385716429716,199.498432214351,25.6719094162583,252.180146353069,293.551618204732,179.643889189536,400.896327339299,-57.7981378800269,358.302823848617,397.858297814966,-4.33765815147867,276.747000064628,363.027348866897,414.070785174657,26.1969705697315,133.10485314512,273.905495712554,372.999948596859,341.946149943684,89.3351033370718,195.593591346205,293.820522003952,332.090782244571,204.927367487593,230.499744634675,276.330883616509,93.1925566052134,117.949565948258,95.6297449690259,119.498036794558,135.662155700843,108.821141538086,125.886010833479,133.038678805265,82.7333892812844,108.545000517684,148.995585278183,110.524722060605,150.677504368933,118.866674584509,88.9165507508622,110.601736686886,143.23281255076,90.9376424428513,133.854212004962
122.916209963872,134.99353003059,122.469403853715,138.444427087612,146.5131836765,114.984564022699,133.166817067669,150.147106572129,123.264419439495,154.620148409323,179.937775783922,113.58473583747,135.258581263888,177.167180749839,123.047967621754,159.766720114197,100.282508946299,152.711166010632,199.17786335718,157.016669813812,221.389343261842,76.0249397959315,286.541275600467,303.275119008121,247.176415507429,398.128113524005,50.9510565848017,402.948026309781,371.185852684849,95.5764365357684,296.27883126411,292.613265534141,362.597352390429,115.571986801356,184.253554508306,284.650334389624,304.561277216085,297.038638339214,136.93065546588,209.869628557263,251.52600492193,277.812832667466,195.814434901343,185.152392433363,219.874671642614,107.128439742186,116.892232448455,102.608585222792,122.173070305242,121.092912882946,120.495711476761,126.207040877325,152.166172516742,91.3699098795578,111.330167368827,143.015004980991,116.462710816632,146.450756459105,131.023431227884,91.0984522282935,110.728593612481,139.50477036324,98.8160081969679,126.668158643334
123.906848168051,128.047896676714,126.761527169157,138.2499936948,142.867242692274,121.490095029436,135.386798764713,151.522787132504,129.418112290616,160.008196400849,180.882880232271,129.163979517931,145.386903006326,179.855857991836,146.668450808759,173.895595528107,124.26692907422,177.114029313828,218.078378618902,185.159397229623,245.764424688828,130.302256811694,307.356481787818,315.049535814414,294.950954478199,392.049270269922,143.071762177874,412.35092928264,325.61243643759,148.51401082156,296.603500400577,208.8253557119,294.501139951384,161.042664091139,209.148527515797,232.602742885376,225.35796468508,234.216221039691,166.317606285648,191.225214111966,200.649138477998,216.25426885996,169.905504855191,124.906752598831,160.254047619021,110.366040066297,96.9884808219819,93.8187161075044,105.196103138196,93.367392902349,126.909734246788,111.350301546609,157.065329732358,90.6394709637481,99.828019051529,124.948903141057,115.448177339681,131.522841048571,133.724488789337,84.7109069004987,96.8353454441822,120.90829278233,100.857929470808,108.152578526496
120.124976718799,120.753755952499,130.817938075973,136.704843596024,136.786218669378,126.563806121556,138.709368604948,145.412665199402,139.457957109763,166.245088063252,174.738688000751,145.379548148742,154.128674251509,185.178414007969,167.305804502298,187.035506309611,153.532179611102,200.415645402799,228.222233851495,222.604861799385,265.668546531985,192.532173434807,321.774740226114,322.66142437565,337.449121183868,383.539952907244,257.251154306848,408.639632605935,268.264843066647,224.331982365931,288.409691433267,154.987079155778,242.042689129912,222.81173424801,247.053149894841,197.10474841074,170.128621599614,183.672635351061,198.558540035206,182.857859594324,174.092987588119,179.205296218103,155.340694420194,101.301547334448,128.422712792843,110.439114730485,67.2621918662086,78.6472359802034,79.0441271672325,71.1091757777421,122.433468365387,88.8567552081036,151.420059158452,85.0595023099447,80.7227727523222,105.145758387462,114.492609744786,112.216247698842,130.187511311937,80.2780755673132,82.5909691968375,97.1992712593608,97.8390761736916,88.8333750073614
117.999235918934,114.700362805456,132.260354145062,134.364036141892,129.096382641681,128.911979819369,142.735633721807,138.340942581017,145.137714604092,166.916280005449,164.482354604171,152.871616759629,158.27171363566,188.726369809336,177.918421975477,194.670614245612,181.244506575117,218.519187086753,228.248372463316,257.057880712146,275.560209839099,247.327648011546,334.08563449749,329.510995067915,376.517906847481,382.477432407434,388.570870995771,418.062295061407,254.278864600709,356.839473877652,313.071956968545,170.382017971762,252.236302983139,318.22218395087,321.257605185076,231.014943265798,180.00908386949,179.9813127303,250.573300389411,218.55045237665,198.345765823783,183.957631356596,178.482629248624,133.157369242547,138.76828321415,113.485201448398,50.8005817699375,72.5588477847485,64.4641321355924,59.1249386349686,117.745707354439,72.2663185187287,147.434298864007,75.8633089759975,66.2137411306454,88.0382104090105,115.353261381078,97.0201201599637,124.720809736283,81.2959270477856,76.0212433276743,77.4870413168725,91.0131268760654,76.3329527226316
119.774757742273,112.638436408616,130.43547839636,130.065580102066,119.728562496697,128.68158246251,140.36268344957,135.64959598732,144.115708541276,159.194509047365,153.950898355916,150.054725732972,158.908953807823,179.956561288437,178.41091221588,191.375252067753,195.211338718652,224.991559945801,220.988810864326,266.715374097751,274.075429944998,273.910779694164,335.384102857645,331.378648527985,391.550892918036,385.371696163713,473.906485249473,436.130683089063,297.410784251698,471.150143452475,382.204154290566,242.229667857976,332.458609187928,405.106172288251,400.477589966833,309.257304234548,254.782063654976,230.126016370681,305.740755528757,278.978432928842,265.226856727913,231.76910982449,229.716105741101,195.384297772317,191.544613497553,119.647816296185,58.0000040660399,81.2287494295543,65.9836988016766,57.2025646058518,123.658888026125,71.7658867202471,149.401616133072,70.6612038921164,62.0397899029691,81.2022782930075,118.636263149046,94.8435154891768,125.772596763626,85.3083946139263,78.633061626365,70.2664183938396,87.9669083859503,73.9571282061133
120.080075765474,115.005344867556,128.037499514784,123.765664861734,111.588349734055,123.706458457422,128.932657377757,132.960427257959,138.022968950163,145.726093042292,141.683347667498,140.523658057131,152.310989315337,156.517011268711,170.229674904956,174.171742193738,190.575714213807,210.40841563048,202.541333916776,249.303948679913,251.903075652342,271.101992439276,312.751645017745,302.340589957215,365.710637943869,357.36324774826,473.774775804733,433.647016075055,325.336434287552,494.10824231828,432.937543984104,316.608420319773,421.889856446296,435.199555552188,436.734845893427,365.545041864119,343.004376731971,300.811762920083,331.875334870881,316.565793828069,331.660532191439,299.703113414408,272.999768888902,255.175799663609,265.697431617424,121.751774063867,73.6793806517878,90.1058099589222,68.7182787519078,68.344601597732,124.591613351663,85.0226581375495,144.293112556311,75.6868941684029,66.9248408851929,89.5718423097818,117.376276414226,102.840091639263,129.116465571751,92.5866643503563,87.2438827131363,76.0174797488203,93.1983350120023,82.0275633381595
120.671199239428,123.681871547558,131.406528587021,125.28727701369,114.572046971099,121.092921737269,123.308696065455,131.685996203539,135.221293826919,141.735755389027,135.038138641006,135.958863508141,143.63998388287,145.255653536812,159.932678110597,153.63927725799,180.702379217118,182.594605039269,175.17373608902,224.391795525624,211.412673681061,257.454185073611,269.374000860313,243.090861386466,312.145075857922,284.713530754989,420.444517286262,393.492246689091,283.74259358254,450.496831974713,399.796739247096,353.043693192717,460.488048437083,410.648754385153,420.98572816002,360.523216874723,395.11919013846,353.072793257415,328.114567756335,310.300023780967,359.636509285756,349.861993480488,291.891246030329,296.719685791716,328.578820617578,121.116572558305,90.7257379373351,89.4851829011041,75.304785989752,96.2131799612922,112.908438172495,106.528629008428,127.892704676006,92.7897569440362,83.9561038470862,109.627535964502,110.487518929069,113.415139498802,131.202674369724,114.767148409179,104.863137613015,93.6676811520665,109.761318715451,102.75796146058
128.687427192183,136.014054942979,142.250207546623,138.534854195972,129.084294567699,128.43762130521,133.772364304,136.069905342861,144.600318882961,154.596056171391,142.769092074019,143.861217450582,144.318882405473,166.053658672334,155.278835525093,144.877342076494,180.284851585826,164.036570793432,153.30069382134,209.876617461816,177.468652036468,249.46047086309,224.35914451748,190.974160824884,261.497105080569,205.8287840266,372.530785329495,328.791450470704,205.855064904098,403.337362468144,304.055800396891,341.783399562653,445.183244610842,370.761654616266,374.125097260553,309.2947485186,392.4293636584,367.407833974652,312.367464187346,273.568476127927,338.351025929605,357.757741109214,290.585278637345,305.896961472769,359.22256291006,127.014219721352,118.050292449021,90.5356152039487,101.585390700802,128.855448954205,110.116745315607,129.092122385804,114.382196014594,120.670864375351,109.846601358848,125.942719109504,109.871357167433,120.947359025946,136.581597196732,152.564921233148,129.927885978365,117.379675673677,134.174993949905,128.657222739342
133.04218666084,132.047934956455,145.707676429718,143.329975222507,131.09187357917,130.198152592932,140.121009744931,133.371563166999,152.915231864279,158.288221684746,146.554422292677,148.091238388922,145.931539579396,182.884131481435,151.401715235355,141.843747582875,179.982425276651,157.166206573023,139.09820267515,201.427801699242,160.154872722984,245.647485860547,188.737124288467,157.290393319519,230.151362792693,149.057405483404,353.087645115899,259.231094251771,134.477910947125,365.557575896848,207.806822639646,278.908260024912,386.438431511152,337.638922753958,311.873580294773,238.6767442507,323.581176119199,326.827849575824,282.899505957271,219.007649539925,262.107313209548,311.540073084566,254.775420669296,255.607438372409,339.846964360008,131.03255239332,140.984826304917,96.9636367910554,130.906937536381,134.78122686739,120.230947969537,136.329072154053,108.269756896207,140.071117436736,119.62584230806,118.457857100429,116.532894387637,112.45778452053,136.441275613726,174.512323217515,135.446290701215,120.592304272213,144.32122955086,134.052503201575
115.265918595121,97.1218849212379,125.796666616829,121.879668764274,102.349160878834,108.938847161649,117.364044663897,108.116616683378,136.961697609747,130.248570045657,120.272251070019,130.171990123187,128.775673906703,154.033507345581,136.631553366314,125.251606518853,161.884967787768,140.833269780002,117.457159947438,182.036282983034,138.537928792251,231.688597173791,154.230683163914,116.498239033044,208.885036317931,99.134208145448,338.668274709352,191.216628240654,59.1732171603412,315.875153052693,128.173832633614,162.15869376991,277.268842691647,302.799395147019,246.13415252339,147.471683415902,185.250025390006,229.227773902066,234.938687104325,147.690953456745,129.164430566099,206.841120893649,167.640347821397,135.339966762029,259.541751456684,112.355349524586,127.268878639411,88.9963056160063,126.820467022812,98.9510126361346,113.455958589632,113.570101372726,96.8689544226289,122.220777383576,92.1355703278616,83.1231893158156,111.385233895613,78.5285051194198,117.466390706909,151.171181404253,103.077392321704,84.1916179157999,121.559070689243,102.493506932089
82.4253916670131,52.6971429052176,90.5659101598932,85.6136463696597,58.8127095754709,77.7791906047663,75.7188455474262,70.7739357154457,101.235635492578,88.8782072984117,75.6682135902966,99.1784987437665,94.9431317339191,100.390213584298,110.707886769868,93.7547721167251,129.232413087405,108.547666977235,82.5421389032511,148.962384793743,101.192455254232,202.223713078662,113.855347550687,63.8260611536176,182.944590804701,46.3465524067962,306.084285399729,132.128897771723,-30.3202172798618,261.829761298975,57.5614305377994,16.6927778451226,128.16620806216,263.60530782831,204.525074335362,26.9714195800284,1.85288522914287,115.993352079261,194.514388414736,71.2519140254972,-39.0742093407879,73.4484543726752,55.0794158849905,-17.2707293086569,150.347169804827,75.3731941583422,81.6306714310137,55.7224137530859,86.1716976096542,47.2437282246277,78.3597021163658,68.6908530884063,74.7136542226872,71.9797201029449,41.8817866746979,37.3934184464679,83.2512719665936,33.3319676835117,83.5795638153068,97.899328847192,57.7346615910189,35.485384607813,80.3716766538774,52.4924521542791
61.0117112182401,32.5388427345414,65.0729507252199,57.9107445765575,28.0993557842959,59.4361900846207,49.1835565003488,46.595737431078,74.1228229819825,63.0059400988166,50.4157438126558,78.2893948595459,69.2789353301695,68.5888736129581,86.9886638326442,67.040575820294,103.341586212393,82.0831413925268,50.6665385688651,117.978050858767,67.7783718940352,172.130751105881,80.1985343420639,25.8645310028081,155.041927701289,6.40102744884131,272.942710892319,95.5044388428907,-103.235596880054,238.696262628091,12.1529437127494,-112.452989924599,-16.2508237158869,243.63143297537,218.685895017041,-105.857410712622,-180.798444474956,31.8596340468366,197.795740386266,15.3066920500012,-205.604829274797,-27.8719032341923,-34.5406122735755,-136.302493515104,67.8314509940236,51.3561629669834,40.3053526816032,20.289573735528,36.3268120598818,12.2283448582624,45.1853458719108,28.5903152707373,54.874509613433,29.6395761453212,3.41548328466813,5.66840646632157,50.8786901754905,2.41325408714232,52.2706551978034,56.3774926333295,29.8096124510999,15.2873993547566,51.7518937332013,18.124724146769
63.0416270682472,41.6049877229431,62.6922713559526,50.0740789290374,22.3100838714962,58.3970640633969,52.5374112376156,45.024859049209,71.5675408911183,57.621647260119,54.1863235136742,77.5170117317735,66.9723700584897,66.1930432865112,78.6659754268523,61.1152348711299,98.0125919211663,77.8933828080928,40.7262544728531,102.616754991463,54.6574810528156,156.84322022477,67.9001595091624,14.8570988974398,138.690664984012,-11.5393074695521,265.468910851224,81.2686157400776,-127.808258531148,255.066422414335,6.92236790836545,-189.445194796375,-105.65553621656,259.120774838245,280.652118589106,-201.423595372415,-300.157370341501,-22.6138333152385,242.650581301217,-3.61610155515969,-319.97321445674,-65.108380672745,-76.3808326668909,-174.499661466936,22.9477234675415,60.4456166086982,13.9287486918883,15.8064451628181,-2.39281188022943,-2.7375688537129,46.0651733055835,9.54179573341646,58.5647248066838,18.0672121052351,-6.73584810691193,2.91951037867279,42.9235601583814,-2.56104322708085,49.3637385366043,45.5269874491535,20.4705059163066,24.1954590468853,48.24190145562,13.1297018052662
73.2687444814211,57.2786088866762,70.9782124637707,55.5221505749484,33.4600369613175,67.1854359624036,65.5959715096676,53.3680533856662,79.6335751767304,58.8116670550217,58.3799509757645,86.308091749115,73.4427040365552,67.5741119447025,81.0373365467636,67.3828191938842,101.612796812566,80.2503171124711,45.2852844403679,96.5925957583636,49.1762093407783,149.400178619909,63.4672401371309,11.427243858506,129.682191188618,-18.8385899688054,267.023890567484,69.1666157206415,-113.331381880199,273.878671101834,18.1837423558102,-202.827635327866,-128.132822145712,285.078981527227,329.816008628455,-214.453983327392,-306.457030773695,-71.6067908536992,285.190665752868,2.87539781648794,-334.725047551985,-70.6880159290996,-74.2574968558596,-138.861644167947,-24.6257664287979,90.6877492897651,-16.0529332754605,44.8654449245853,-26.6301465833055,-10.6542994784781,75.9556533981702,2.15999523390772,99.0620941643145,18.0541741392272,-1.25522211983829,18.184497798825,59.5681264215588,9.40794288478222,89.6564468858752,44.6598744474418,17.4925221019591,32.3319709490989,55.3662526307622,19.8430577096605
65.8555839496636,51.5915571178168,63.8079674612874,52.3820262565981,32.4495978280572,67.5673334550138,55.8471283401354,48.4325675929892,69.2470817979121,46.3628155838505,36.1028065317046,79.0075426458995,59.83588044026,48.4833457129366,68.5223157561415,55.1259526122198,85.8351697538647,58.997157857223,29.7780404618401,74.4644595837186,26.5290354451032,124.723823100355,32.5201596076591,-14.6642626433072,97.8533528712377,-41.9098953632635,233.428026933159,30.7627132727941,-106.184734497796,247.074969802565,-0.111215706560362,-186.493181700134,-131.025615966901,279.337435205753,306.844674838126,-176.487093397874,-234.828187462293,-132.60765065434,279.492956542753,-6.55015916868217,-272.585827134424,-100.988068582864,-57.3070726038148,-93.1873231870796,-103.790100845608,109.159804166066,-51.1769255193943,73.1731237728262,-40.3518911934006,-17.8806587313023,98.4713867060136,-10.5061508297906,164.010351799058,0.183443818981595,-1.25788456272828,18.7863316466373,70.7350151314406,20.8343432525286,142.938426111307,19.8834263453305,7.23487395264564,16.5343187790697,47.0376258565272,9.39410339298363
28.5343578841024,11.8463233683753,26.5418934645115,19.1830540295736,-6.91395019274937,37.1271917235806,11.2117388644931,13.2834690492163,27.2530242067854,6.87350864018779,-13.5064425102909,35.7234456188288,13.0865355846436,0.751146733141932,23.7737638566907,4.22429080918748,35.992075155609,3.42052380734281,-28.6983545946657,16.3936313744693,-26.1853168129871,64.6649500591928,-37.688813676749,-79.3308722082828,22.7886463573428,-105.602383892773,148.380262561213,-48.4237555268298,-146.788475969805,158.615299459478,-72.2864200352299,-202.307541845736,-173.91809532852,227.460865235324,208.527567363856,-177.273148314321,-193.338147226221,-206.498576380957,213.172501695168,-69.7496445436838,-222.287569151977,-172.502465152609,-67.122872423851,-103.887060462727,-193.799374889159,92.5859789774395,-64.7667824801114,66.4785784906834,-45.0662187936336,-23.4257223909093,87.5045093040171,-32.0879535401543,213.677835924752,-37.7288307540815,-12.4376246952463,-8.89517971914457,54.1020363171699,21.8538198069812,149.386403102728,-34.5506360718866,-21.3077813927531,-28.0221903196874,10.7927994773236,-30.0188552824367
-23.533593900849,-41.8318038287969,-27.3363844087642,-37.6441717791626,-65.7474810743514,-17.1473021446151,-46.092047062788,-41.6517649327106,-27.5106303767272,-47.0636898376649,-70.1931784253804,-28.0942615457664,-47.8700695282709,-61.1348599813908,-35.0234193660976,-63.9662715963346,-29.6195352498794,-65.2380222541549,-104.30229911646,-60.122029291874,-95.8576726327918,-16.1435452749181,-119.068148738913,-162.48895338936,-69.1827012564933,-198.304167726174,44.1446907122798,-148.00227348526,-225.20552930851,42.0028676739139,-176.014067812293,-259.322957325434,-253.44895795741,150.334741666547,80.5380935358561,-234.290943557664,-227.669311721821,-271.438408664302,118.772522329015,-167.826737917629,-221.425150097974,-247.76079898308,-107.694692023299,-165.333973003049,-250.443183088909,52.8285312821566,-42.0140021330084,29.5670307764809,-38.2858732328977,-25.5226580089424,53.7962452025517,-50.2592322217026,211.399792766316,-69.5683618043688,-24.2067018276368,-35.160649376753,21.156583828634,14.0036568171526,89.5822171361103,-85.5601539849576,-57.5745122600395,-81.8575376166548,-37.0861385067291,-81.7302047951767
-60.0281200949705,-72.2847479428071,-65.7979424632237,-81.64667447717,-95.8211374818407,-58.9202879907116,-80.6684616969659,-80.819352027275,-62.7238615413868,-84.385745670349,-105.408529332179,-70.7986709200611,-88.8360484750063,-107.466506630204,-73.5817801396432,-107.057252066899,-76.6356250566111,-110.492950059653,-146.078767338845,-112.388593992781,-147.791669328712,-76.0177980657263,-173.502138784946,-218.707252041554,-129.278887119639,-272.429712473224,-29.5757365744328,-231.511904859096,-293.638599452833,-50.8332855803205,-265.871955557061,-297.120577029821,-306.874242835548,84.036136256486,-31.7693100456435,-275.065952545992,-265.985844782005,-294.900874753777,43.3305061464422,-239.36944523151,-218.543583683998,-279.140950136432,-135.495718547091,-208.312217320936,-251.296438793796,19.2225665909847,-10.2827350400324,-5.60622257490042,-28.6075617021749,-27.9026883356582,21.5590535803139,-52.0080336271396,154.373396051307,-75.7808995251852,-29.3458682882759,-24.8149536986329,-2.53113885061856,5.8168538790588,11.9535621114393,-101.995911990691,-73.1297582410126,-105.477851039991,-68.39040100216,-112.131040587325
-65.8686237262437,-68.7856250249424,-71.0565563821879,-87.9346549230445,-86.3286727500172,-68.8838139076989,-81.0882305034177,-84.1522894398882,-68.057224012033,-93.2680078180906,-108.786869119173,-75.972763323986,-96.5037383144333,-122.796859434865,-81.5733727528438,-112.354545107052,-89.8595074881964,-117.015204453403,-143.524221700239,-124.239759947157,-161.939988497327,-90.9817747683404,-193.251690634594,-230.073374930607,-147.653237280118,-301.099156112095,-53.5829441724499,-289.598297094043,-327.578910114095,-103.983481508358,-324.976039020653,-285.840983435692,-298.379549553103,56.0198375146818,-126.009914121752,-278.064205496107,-246.768641542078,-274.475727751827,-0.627995023743218,-270.769933025383,-183.230703277209,-264.11909340691,-128.897633729368,-200.452996518009,-221.639486718739,1.85717209533873,-13.5943391982107,-27.3154409328302,-41.0760866779245,-41.2985678100831,-1.95336635015222,-44.9728151597157,75.3202796362616,-70.6247545676981,-33.8811495812484,11.7190544042855,-14.2092656707,2.58485070940847,-31.5989873104044,-91.9794004052001,-61.0105004303315,-82.4930087920818,-74.1304151707985,-103.602282247092
-53.1472241356389,-55.6614114723141,-57.531077342463,-72.2976241142189,-72.7209423660412,-61.7747270665838,-68.1956339059738,-69.7968151895372,-63.2530644596967,-89.6928138752889,-102.135237456321,-67.7232619654854,-88.2290092205509,-120.479156061603,-78.5796495834636,-105.445640088076,-84.0176849573341,-106.836765543943,-134.897774965732,-117.839468831774,-158.230488869428,-79.7180685806096,-200.609226644149,-228.633938876767,-155.328729932619,-307.045271720555,-52.490684255239,-336.592007155675,-347.365319398675,-139.787425616642,-372.154689519641,-271.149437209046,-263.394509192942,62.6748283022348,-226.106722114604,-304.650805788885,-209.398625099226,-254.33474724822,-31.8118714529442,-309.291906794342,-160.52853821329,-248.202340616171,-116.03961030715,-183.982086432079,-218.228657356012,-5.47005051374129,-59.8123637369858,-45.3702225810584,-83.6903129826647,-70.0792508914256,-16.9113051411428,-50.718032994317,23.8213065534974,-77.4053233025031,-43.9859261409221,27.6510639260187,-28.2224875600843,-4.5137663521329,-39.573208891897,-79.859331813795,-45.580433453714,-46.542850816338,-66.2948513460117,-76.8388042882035
-45.2806400328009,-56.9623963931354,-49.7543610050661,-65.167139943235,-78.0464520397435,-58.4800361330581,-66.9971688173389,-63.8655854880947,-66.8463288311174,-90.6595870324776,-109.017290994044,-68.9778072244439,-86.8266899793786,-121.523871381414,-83.6080708535106,-109.738163634831,-81.0717225687443,-107.770315240067,-146.175126182286,-116.965683008563,-167.137662000872,-72.9641667036966,-214.117088270455,-248.468627720501,-167.800260100749,-325.343130657406,-58.0002481847309,-376.206718361508,-376.744158154104,-174.886889171872,-419.421266132432,-292.739461277944,-255.276284147061,71.2855705213171,-334.560431675616,-368.784223052161,-213.492117007712,-275.60505686415,-63.168612876191,-367.324437182748,-181.94743841504,-270.332789426862,-115.969415832474,-195.193987566137,-264.775392729795,-2.71779145453952,-110.956451749571,-53.0215025545253,-125.104016336033,-101.178470879643,-14.7268419350378,-72.7797422066384,27.2752522225027,-89.1204217515674,-58.2280226393016,-1.67716645072298,-40.4876358867912,-26.3877806312052,-33.4771920892598,-72.3372648153688,-44.4429268814451,-41.2965529937102,-55.3368414333984,-64.9545227768681
-51.2915206661439,-69.6054693581036,-53.6388903357709,-72.5447750236208,-90.4633505539034,-63.3890206772866,-78.4545578222062,-69.3729697489709,-74.9964601685567,-98.3607913234508,-124.286776338198,-75.7263592042342,-95.6931178333377,-130.176189375799,-93.4001976300036,-120.870736906068,-88.6056314392348,-121.025862975703,-162.601426123219,-125.96134757362,-190.916358626871,-78.9742806749588,-230.570074875326,-282.879462756908,-175.518980059265,-359.980103535467,-74.2496047179734,-406.534540819405,-411.636370010953,-213.425977129687,-452.102557908704,-329.733161362822,-284.597676956915,51.3629268423703,-442.715397129471,-397.163798627476,-257.12943408672,-328.91275661918,-110.67119353853,-397.696211323502,-204.327712281465,-325.714082478195,-112.081433000768,-226.101984036202,-319.569992164998,12.4257218130036,-127.984245302028,-36.7100626739445,-130.993266947574,-115.544944050614,6.9451907744361,-91.5182948191855,59.8540052838575,-81.8990031693658,-71.5248992890717,-48.4516874730258,-32.7481477510979,-54.3065404340901,-23.4186213067443,-65.8663814242255,-50.0936681934493,-66.8218520170977,-44.7699523780884,-72.5329788119259
-56.1266926089328,-73.5657186859568,-57.6481144865171,-76.5289349328557,-93.0268978609491,-67.08375087136,-84.9102149452235,-74.3720973891038,-75.4978459910098,-102.985544121372,-128.292307274401,-73.8873463549113,-100.678099207024,-134.444805696784,-95.8440738045045,-123.525156703291,-98.4636433501395,-131.071664060728,-163.820974277327,-136.731272442376,-208.559354130165,-87.143846931775,-239.557828040425,-304.471836845822,-178.585378650055,-386.014558005764,-89.5642076734679,-436.94859169325,-430.9434274022,-275.113189829522,-452.68895401896,-337.107854402568,-324.947903052982,-13.3365801269789,-567.810275433691,-332.468314801156,-302.309850870651,-377.940287896815,-223.566334703936,-365.885409155132,-170.027823347041,-383.524068753082,-87.7682382130288,-267.970484768115,-334.739977993967,31.3469711648705,-106.081151013731,-7.54922786572662,-102.000010578108,-105.520753586259,30.614878808148,-89.4842372982503,73.7646009186849,-53.5048063085368,-70.9131482933581,-68.0159655760256,-7.87299769692819,-66.4825688051918,-12.2787910816521,-56.1861652620858,-49.4551917281857,-84.2207491627333,-37.018843512602,-76.9405798025878
-46.5981086480311,-61.1378500410264,-54.3738997761595,-69.6612134534439,-82.6652418547657,-63.6153277370596,-80.3151240164902,-74.5556885424859,-68.7433082196094,-98.1198871278211,-117.590149053779,-64.0061243122815,-94.7680725156019,-126.88175956105,-91.7639963503487,-117.093871071792,-99.0375127370517,-130.313163398568,-155.002762028471,-144.282397265417,-207.997352692431,-92.136646169753,-242.538741667678,-305.809499646218,-187.747919899594,-392.061786583261,-106.588431943503,-474.988107055917,-424.842435364473,-387.969978839362,-433.787246611038,-296.797518324303,-357.082688759597,-139.296729670986,-744.621353968633,-197.19147894255,-323.893149109301,-404.000817882827,-451.477272941566,-289.031908510305,-83.3603525333729,-415.056871388588,-46.4861728213755,-306.649112360231,-313.358552562545,38.7419608361332,-69.1697841439691,13.3595765425589,-64.2953857963063,-78.6452290473293,36.4980833882188,-66.9900859816572,53.3547793175377,-25.5612428997031,-47.1972369669543,-52.3305903468749,8.38756209068524,-56.6906028596379,-5.33032264614378,-40.6354090159479,-41.2687306704421,-71.7545739243965,-31.0984489118863,-63.59171608263
-31.2089347779806,-41.5146580659578,-45.7721628322753,-62.4531213661945,-64.5423732780316,-55.2908108301147,-71.8422994019538,-71.6149134509381,-63.273542982028,-87.8326052762648,-103.828476030827,-57.726985036389,-85.3877280967456,-112.793169270737,-85.962952414727,-110.221115820641,-87.6990759556314,-120.832911012428,-149.889063314524,-147.753369627936,-196.49992946114,-97.5308839507273,-242.683350506883,-298.895038446988,-200.848830462067,-392.024121802596,-135.212711280298,-508.123404911367,-404.000407057553,-539.801196778184,-424.317259289915,-227.574889038159,-382.634799408763,-323.854976560642,-959.992009373924,-50.4697355385055,-316.13099096907,-411.061109089457,-756.585467163129,-214.569643539695,5.60301588300547,-401.706561092123,-4.2248913542877,-302.581599953527,-282.801439346031,32.692327299199,-40.296332136741,23.3720253736065,-35.9736459921636,-45.1110187869689,27.5341916845431,-35.4654495968571,22.4599915535922,-10.1232515075525,-15.9459436527968,-26.3619397987575,5.97431471650941,-36.8584620779776,-2.59808989998937,-24.2640064302022,-31.2952293825699,-44.7591875805204,-22.8169373542694,-38.5750993728892
-16.0646729320414,-17.2400669154227,-28.0658074276572,-52.6960574228399,-39.5877857048071,-39.4880647218483,-54.7698352425834,-58.1257326302938,-52.0748888227432,-70.0793788518203,-86.063514345786,-50.0022541663711,-71.9120600632636,-91.9108658030941,-69.745053681506,-96.6104331539146,-65.8730946517145,-100.182252597419,-139.009733766961,-135.595912438532,-177.22710668002,-91.6975048233968,-226.999967186042,-283.059985198744,-197.24742887635,-385.577104851759,-160.562975098757,-508.025122212777,-375.347305441847,-665.449842031954,-423.280563062018,-155.812140860373,-391.594008354759,-517.038059035729,-1097.3262974665,62.4275439900407,-286.977338732584,-408.028290282621,-992.944739180136,-167.634659890089,55.1261193541376,-347.256175278246,18.5949343892384,-245.208732722202,-251.861471370463,33.915664285941,-14.9062681965187,37.57106862643,-9.00731463208756,-4.0947068959947,28.6746286996367,-1.04988544892639,16.9452453303179,10.011078388219,9.8910915232076,-0.309410420540116,10.8261245573779,-9.79201776952563,9.10146579580634,-3.67794245928498,-12.669498289925,-14.9339189955499,-4.98643867572417,-6.29273813941441
6.60215403279107,14.6062051540144,2.09948844327021,-28.5387111936225,-6.47024824722297,-13.3983474949869,-22.5580854503739,-28.7324330831452,-24.498426549805,-38.9583661798171,-53.6555408779181,-26.2943144687642,-45.5697708282111,-57.7484729696427,-39.6706939513248,-65.414826535799,-36.1562044236467,-67.9352238955082,-105.393922650898,-100.10805126197,-145.95401846505,-57.8193689478504,-188.177267242477,-249.571758954898,-165.132502649826,-361.634654909717,-157.748436363828,-470.706995872461,-337.138407821171,-712.006051772334,-415.602257156894,-97.0267053152592,-363.855330045112,-650.542294634608,-1038.91692566718,98.0014462519119,-261.632851638638,-388.283976376356,-1024.02825444515,-127.897011991341,33.6808764581189,-281.034739258513,4.29087927505886,-173.336454589971,-214.351636186203,56.674238783551,21.1804955304701,63.8968628762305,27.1234602654573,42.0747429502153,53.1454586043564,35.4953405619433,46.3902869891968,48.1641675181253,43.1988765230107,33.7621188406821,43.9092557221663,28.6830163117818,36.5432577135458,33.4630096553919,25.7185804484792,21.2816576567602,28.834287573643,32.2057526860313
30.4810640504248,40.5208869679806,29.1821607304482,-0.162591281699555,21.8987297981581,9.7962743883904,7.09819589751653,1.31325340459483,1.57835194499102,-8.52054175833493,-19.2020716066153,2.54678605015285,-15.3416509099252,-22.0803289927342,-12.9616675979151,-28.9532482799504,-13.9842442611033,-41.3079106282957,-62.7342135893762,-61.0348987604184,-113.05111251207,-13.1540630604196,-147.468355504353,-213.800888419105,-123.373425917466,-335.160063959515,-129.726938695817,-429.300202050474,-303.760764481497,-678.857949132552,-401.579070726405,-67.5587962131219,-325.31821502778,-677.441240597643,-818.015536552911,23.0694651400639,-263.746095332568,-323.775484158626,-845.195069412942,-81.9658367546736,-63.5538698647764,-219.118297347242,-52.6319950935708,-104.407717119099,-171.7612541958,82.952864686636,55.7336748732418,88.1660480347749,58.5296125726193,72.9286891558659,79.0038356411494,62.0710079551069,78.4563752349133,84.5164351352499,80.7234825151328,64.6347894089717,80.4636201150361,62.7077096899214,62.0812524582239,73.4931899895411,66.9452282614932,53.0480174543775,66.0967461142392,61.1822397300727
36.7928149982554,45.9532567360762,36.1135562943986,15.1432043123293,29.651610098177,15.4892414887926,14.0353012956736,13.4898710428855,5.28146539361241,2.37777016166329,-6.09023194078207,14.9181482521659,-1.56311743348281,-5.74299543940179,-0.816386464646202,-8.08465194986627,-10.9045408025744,-32.0624059981539,-36.766203599567,-37.6566524308221,-91.6603189264916,13.253645977014,-122.916931313356,-194.993285227494,-89.6993618163235,-318.141425528107,-89.2478344854964,-386.033523784396,-286.820261856287,-567.480078519228,-361.044348329536,-77.3906625908417,-330.328920470048,-584.517020773852,-547.595218190646,-108.637999945493,-286.53014090707,-205.44930725064,-553.065923686306,-57.3456709149422,-175.873744555765,-149.634253526894,-137.118476613884,-14.69765921639,-142.458463941871,90.9269995029937,69.2931398512434,95.5177326448677,69.1801957532981,76.7770301819855,81.7070577292129,66.485341922394,83.5984556603504,98.8032033096035,94.8457505094663,71.7956082893008,89.1748744892144,70.861420444738,67.920206554324,87.7940118509645,84.0319441092612,64.0417511678661,81.0268685338648,68.8722838545283
29.2164523565345,39.3494974636633,28.6475794934162,21.8873626563129,25.6551631532537,9.99591529881311,9.00379738671189,12.0508148081789,-0.364856892515044,0.84301438873204,-7.37715590528069,13.5456722052154,-4.36943481907,-6.00212249458538,5.50633620513822,-3.21200674090562,-10.0611746838911,-24.0853929456404,-24.2136514256198,-21.0796396337565,-74.7400901086518,27.0915293095876,-100.766158354052,-175.867377961373,-56.2389435794801,-287.109999194531,-37.1642223219335,-299.045445701515,-257.732728166264,-376.72592235642,-262.735125662723,-98.1885299160411,-350.351227907324,-407.579604110599,-271.031365365275,-164.946297778283,-281.91581887555,-77.6277360769919,-242.441448838732,-63.707407807371,-225.518161078645,-75.1051249925242,-205.07613539462,91.3340358845643,-148.32551884327,84.4091874147482,67.5095563915161,90.598580973277,65.8592274119557,68.3742113861779,69.5126133701371,60.122316368476,71.946822607271,97.951242556656,84.6581762313523,61.3776512572699,79.2417753539125,59.421083332368,59.9039878920195,79.5372592653871,79.8618922580078,60.2147573653003,71.3074396772782,64.1044727333883
25.0321816708466,31.4208029663818,19.0758677077994,25.5878896920616,26.5930691387023,5.18919205179832,10.8836849609454,12.0528077115999,1.60190655358955,-0.436250263969171,-5.0138304544232,8.70466176345893,-6.2359978360588,-7.25621504810912,11.0765942107891,-3.03309163259148,3.3727993714741,-7.23849027926352,-11.082921877188,-2.88766072487829,-52.1074179150569,42.8140600416152,-68.9978796029065,-133.647558586864,-22.0973603124588,-226.74240648172,10.9287830426754,-175.445978215334,-187.691433875739,-169.617022423406,-130.565595645154,-82.8830259992665,-282.850790840067,-231.097966815463,-4.60353212155371,-88.7795733508708,-189.159618554775,3.88669252538312,9.30764496390003,-52.0986597581222,-189.660810404051,-20.7262058519806,-193.000547570149,168.536532867112,-184.52261065543,70.4084836614746,60.6251790445894,79.4155488281979,56.6783052252494,57.9287249623977,57.0357682033091,55.8360690844384,57.4929758494795,91.3683263442002,70.9964488075024,49.8424436253289,67.0406224890149,46.1069016739941,47.1147418248698,69.2509969918733,67.9290065601292,51.5071948849121,55.2812061863909,52.8702285949987
19.6321254854523,17.6303044710286,5.54974694124957,15.6626946554912,26.7017146316656,-0.289701786352645,12.2574583866342,13.5074814210608,2.27816475817147,-7.35434746391422,-5.95519579265069,-2.10996114073184,-3.59024616077226,-9.63750235757325,9.30210463160161,-4.65595324086729,13.1764641772833,1.31433413255134,-2.53671255423089,5.30115717151191,-31.3757769424312,47.6013077229261,-42.9328098880758,-85.3763650817836,-4.43335137600011,-157.103231948264,27.4688670096987,-74.7185968438877,-95.9627019330325,-30.1886369993061,-7.79802194050469,-20.1270678403603,-122.414239718247,-132.424700236623,187.5283567032,53.3963784161997,-10.0487500879498,31.6907745287536,128.766368524794,23.074118225861,-69.381870562412,14.6880284373336,-74.7666484321628,221.798076503101,-196.992079130616,44.4063643797819,44.570356138965,56.473666709809,37.6877016316908,38.3648633958587,36.3762664045834,44.2943899901016,30.5730478241279,74.085833548405,55.61829631728,34.6342991126606,43.459994569189,30.1784939359788,24.5235316280716,52.869241685273,46.2314223253556,32.8713995102114,37.3156305397718,33.5087625277062
0.498259984185039,-2.1340603234006,-15.1368957615417,-7.52634010941536,13.9115793734497,-7.99685290231583,0.87031156601605,6.50283938590555,-6.59245711994603,-21.0881654334305,-18.2466308380078,-15.3169434999483,-7.896589682328,-18.0504955830782,-0.414766534761644,-10.3302795725514,6.5407331605856,-5.87110282315072,-3.68249429550608,-2.51922706205186,-22.0709623165018,30.9475905769957,-33.0868306572463,-54.0112321781632,-4.0551356348077,-93.9227406640464,12.3597514114455,-12.4751561726332,-4.20364599718181,44.3657900071514,117.447581858716,76.4559329383097,26.7257802757915,-125.119871216338,269.709199757837,212.528191512512,186.803998901746,52.277312216838,105.106280954885,142.254371543465,142.129689887953,73.6625821750082,86.1080827969961,328.768732833373,-115.770683957964,11.4363527546002,20.0145618855819,24.5783392553315,12.9148233725652,11.7924948283427,2.23811474210138,19.637512011884,-10.6503225879311,46.188783060766,32.4595493624713,9.75004141400125,6.80839200994813,7.6968235851955,-7.21957816559081,20.1934967677861,18.2188416132603,5.70556147924782,12.927234804862,13.8730182615394
-22.324076745861,-16.2686538439994,-33.936925533608,-24.6115964127062,-5.2443988329226,-14.5404283202852,-12.6350530764998,-8.18492059378199,-15.549884625651,-28.7916071086486,-29.5863793557094,-21.0094575591947,-18.248945575329,-25.1885564183815,-12.4324335378956,-18.18871589055,-3.23643105470383,-12.3085728034576,-6.67124198199853,-15.9238581621997,-18.9360521922452,5.83004441371284,-28.4363497119756,-28.599723016756,-7.6001693144953,-31.485816676317,-18.3860047072496,39.9894919153805,103.216365672978,101.739084114462,259.657759064817,206.413649220878,141.80507616665,-178.755875163538,291.705958999235,398.818851032001,364.370886721124,125.74791328574,15.7364691530215,244.124936305215,393.460883951038,184.944578941289,183.284779662564,516.636813257191,63.96913736663,-16.1063741043661,0.248233435427477,-0.678435993512185,-4.19234978393301,-6.14966451630425,-30.2772407421615,-3.3540626973898,-47.2422132448136,21.2100965021126,9.48064652875502,-12.8991066164015,-22.581419759643,-11.338340237052,-32.6456831283899,-12.7511836701592,-0.214831810452674,-14.7422884502162,-10.2957420177997,3.62774177577377
-31.5181056167722,-17.7254930963442,-41.309494170054,-26.261638335448,-14.4882216390196,-21.0526379530092,-15.5886620798867,-19.5929317868626,-19.3848778824142,-27.786076809165,-29.9677696035799,-24.9973278690419,-22.9901617640574,-23.9762903816687,-25.6992585632277,-23.6005240618716,-9.20075516702142,-10.7358991890681,-5.48659346965657,-28.2177348361651,-14.7673263174874,-20.7748304908782,-21.7423260785811,7.05643042205027,-19.2633623486782,29.0903079675597,-72.856515358727,88.8527616998972,235.325142753094,129.514536122034,376.087756930137,368.183218004369,297.208963062833,-263.128288749136,299.244833557612,583.656082511787,547.004297682654,278.526474204995,-54.3443612536008,270.411244495202,575.415085235026,334.126090792892,172.563095727277,704.078601636945,284.208932864719,-36.9460849881036,-3.05764711032126,-11.6299456298117,-8.7472263816545,-4.1797305208965,-49.6901888257667,-9.5163973602363,-69.2493844048852,9.23412817282938,-0.393361425531388,-16.5682093595579,-37.0460450936496,-16.7942231898605,-42.6662547346395,-25.5494780578048,-2.92663691098852,-18.3128266193706,-22.0552974754442,3.06094051810257
-25.1579839124507,-7.57184363395677,-38.2509294029069,-19.6903663362828,-6.69695683342429,-25.9232556790281,-11.7052990555942,-18.6921391381226,-22.4944416855874,-24.7065943548686,-20.6446256169011,-34.7595038176925,-19.2550488414232,-16.9625571580525,-36.157087961805,-22.5769266211949,-21.7752513909446,-10.5202847492276,5.34133649354042,-40.6405722872355,-8.76507871984221,-52.9694420256682,-14.9531757277962,46.4182817581907,-43.0357885926519,76.1207346652914,-162.145740751768,119.910428439507,356.797826600947,90.4628858318391,418.152828169784,522.947878873515,493.210910308963,-345.307141795391,265.684217259285,671.619368786583,741.316359536822,484.422071406242,-88.7699191903187,173.083570470524,633.765141622086,496.731085299042,83.944358068265,799.681988556243,514.697217659723,-51.1258355894587,13.7231403717326,-10.2565623697647,-2.32686834892135,18.4646353327815,-55.3360262156953,4.50892487095076,-80.2492147694729,10.4425346432126,9.5828061484301,0.124946023244091,-43.8469661295043,-5.17045777540017,-41.4526029739431,-19.1314250900736,7.81216544600013,-2.23058076043594,-20.2662717174358,13.3091788271668
-12.3121890239236,9.02375745484554,-29.7579975090367,-10.2758146350873,9.65556867447463,-24.2729286903065,-6.02101040655687,-6.65067313962273,-22.4153546701507,-19.1108050753685,-4.73159296111478,-38.1448313032545,-10.1300103302183,-7.83487523290655,-35.5957604262831,-14.9467334364498,-41.8979310948323,-14.2820787520767,27.8483340728814,-48.704567598659,-1.61169171600359,-80.0354310805196,-7.82091243342101,71.6839179214105,-60.0214143926611,100.380509096927,-255.972138942621,123.518816049769,402.137563648529,3.80089279361935,362.183562084877,586.573669019413,624.835128871551,-387.193501997455,158.024417795725,533.163283502534,872.308918414695,665.473197824312,-124.98215684201,-67.5197225998331,569.2877179742,630.861285441269,-67.4797781857906,743.366281760484,742.111483557826,-53.6146042534884,40.5335697958523,0.734350139462835,14.8782698261205,49.1513473835593,-46.5280112744765,30.964720838101,-77.1086359381735,20.161818228159,33.9332489997733,23.4781434341266,-39.7050060847026,18.4465121014675,-34.5567673715733,-4.92593620732979,27.9556621994485,28.4431738496926,-7.82289961099888,33.1048912035618
-8.36553206314089,17.7699467887592,-23.3962379352693,-3.49245047255102,15.9038172157019,-25.1730413259082,-2.63469027020538,-0.789860698815363,-19.2718094855033,-12.8443921316961,6.89006417601453,-29.6396925269911,-3.65041405196302,-0.936952420183697,-30.5316404947382,-9.17489040694053,-60.8794235590953,-20.0116786116782,40.6495448222037,-49.6045158137607,-0.78100188482743,-89.2413876397908,-9.55394123060521,66.3111207468557,-66.1102940062646,88.0145305549745,-309.607475476024,85.7387169765878,322.892277335461,-78.5114482432511,200.998589865832,480.677001480211,598.75990453859,-372.918476104064,9.30259855797987,107.760210049108,813.41405359902,717.533166763179,-175.228121810271,-380.706581866947,343.844069912953,659.779768452892,-308.97413962917,473.852880781669,888.16862762799,-53.1747035550844,48.5602620318035,7.42687128088355,28.8931168716762,61.8943761658543,-37.0235044006011,44.9924932331748,-65.9200249777256,25.1670598240947,49.5821637149239,33.0780401705444,-28.4750643196524,30.5408006945541,-31.6349860921575,2.55652145774907,36.8238299238424,47.8500280133812,2.46503436506883,42.3576222322931
-28.3763372343819,-0.337141114153556,-34.6899223250656,-13.4967824790796,-1.97637846096396,-45.4979681584423,-16.7852789473397,-20.6846160098247,-30.9417220544342,-21.745175053754,-4.91107371333682,-33.3392868641596,-16.7467983418626,-8.75677423510632,-42.2172890952714,-20.9061977388318,-81.938214771375,-39.0250229686863,15.2029357273881,-59.763495527238,-21.460639545997,-97.9485040363131,-40.7159995722746,22.8519143758406,-92.9522803135415,30.8776101740956,-318.381153488845,2.02516976559709,148.156124576085,-122.711493194835,-12.5878602766022,222.860587009319,407.870051278404,-312.875551279334,-103.849404982819,-429.251772400806,508.419640154411,587.720606024187,-194.266414274084,-606.753408312686,-56.5733645058637,544.121671714714,-617.116035656938,32.5970489871172,857.590344740006,-72.5820431091904,16.4722294260036,-16.0348430971103,11.2786783860853,37.5487423045991,-53.4654928962435,19.8641015535976,-79.8739444010431,6.90166985100103,30.2579805042088,12.3728216838907,-39.2128492745949,5.35955171228863,-48.9183727407223,-12.971007703444,10.8073286138465,28.5206850762366,-10.531398871268,19.5320290248835
-72.2960435003507,-50.1037600055869,-74.7584811017352,-50.604751171786,-44.5099033413808,-86.9973178920205,-60.7599505907101,-67.0766905495251,-72.6819024629553,-61.6052766385983,-48.5061796934303,-70.7790031861473,-58.6265981132372,-45.7118578840904,-82.2497609977302,-61.9629589504302,-117.185287434781,-85.9273817462881,-46.6166512307551,-99.9945670498337,-71.6873228795351,-136.441497599405,-105.000040575748,-50.1904596821657,-163.593353339765,-50.708668972851,-311.436590894188,-101.961172996851,-26.8936065562044,-124.190623358656,-179.324238502452,-68.5657483141307,113.692760006536,-228.798759829833,-132.842312697093,-772.834172090982,57.1980348644312,328.237965452019,-157.910910929409,-643.043126358476,-497.665828176947,328.967011399367,-860.269230497506,-354.696841693025,640.702055319737,-121.460238481339,-42.6797099009047,-77.1054451891972,-43.3357027422646,-15.5885590052391,-101.381958696506,-38.3805329075018,-140.025794105648,-37.5557271029698,-24.1759136853126,-40.451948572742,-88.8880860372656,-55.8383315939101,-93.778231832634,-52.6009587781222,-43.5319260831262,-23.8589915107725,-54.2949962293512,-30.040603378622
-125.407627305367,-113.856466325019,-131.986740613466,-107.349574828797,-102.352509263384,-136.432445208819,-122.229203513659,-125.386671523524,-131.91083056163,-123.686347273811,-109.389879229016,-127.877142685992,-116.237489032974,-107.456325167292,-139.086570935106,-124.785353132544,-165.047855706856,-151.451435229901,-116.819941916137,-161.975394635115,-137.61050120368,-199.710714281371,-176.388339211988,-128.731545236136,-253.587946422247,-120.216369333262,-305.011609511039,-191.267475493599,-138.990244141797,-105.991920454412,-261.173102044842,-291.037465265229,-200.248483176664,-147.468859453915,-103.115280723241,-842.156045315111,-357.899129504661,44.7532062992448,-111.353042836875,-564.67880284911,-799.553263036816,80.3684042383501,-919.8548698743,-486.000474397092,302.749870698112,-182.886709641164,-99.9882335165707,-146.743663092609,-104.206039170143,-74.382328652944,-160.72340539376,-96.9229407546726,-220.843704679988,-88.2453695912282,-87.1017126134076,-109.935825932157,-152.718122384917,-127.243879581239,-154.057955098331,-98.448700783923,-102.215462614977,-83.1896890967053,-112.011054622312,-82.7237551382034
-170.060913427558,-164.267426985406,-178.440115069187,-160.39057396514,-157.298234942059,-177.653776882417,-173.15519044946,-175.968081557073,-177.551570447865,-174.82671041289,-161.03901149514,-173.592662709352,-163.197766568617,-164.028898387701,-187.067185692173,-179.4576302958,-204.129571324467,-201.932449584353,-168.72826809406,-209.719541003914,-187.734727270502,-248.269833271944,-220.443520054626,-180.157222028881,-310.915611203621,-153.384538001698,-284.868353248731,-236.912209254662,-199.678517778726,-87.2806400712293,-304.877840098345,-428.525867374284,-440.750647628591,-73.7653917188447,-76.9385799108887,-816.4953316915,-605.700055319962,-185.014433724327,-89.0187348036647,-519.167808617883,-924.169748241174,-154.974306773232,-842.821661132854,-403.612743541072,-66.173439725444,-229.510164479907,-138.197120421526,-188.859777496166,-141.388216299839,-123.489751051602,-209.2673016887,-135.310254368596,-280.568544056771,-125.624908019831,-134.27802953484,-168.501946114845,-193.793056065523,-180.528555317417,-204.939560110171,-132.731169638556,-148.134345814622,-130.833626339927,-157.056201308141,-120.888049474294
-192.019595418187,-182.721163220912,-194.694285530804,-186.444882648474,-186.229518690971,-195.465321995457,-192.623379170571,-198.350088003189,-192.015970284505,-190.00568866291,-185.132291718108,-192.271597177475,-180.865253030992,-187.565607586349,-204.668842046766,-197.525165806425,-215.294166249491,-212.731176880234,-188.241292873242,-217.883552852746,-199.716863886463,-257.926986430155,-222.314796628933,-184.664779867879,-307.496955225292,-150.243566460185,-233.061753763005,-217.699787511991,-239.115083898652,-48.0893081686775,-350.329158261793,-508.850614025473,-531.092728136877,23.5979345841534,-60.3496296240926,-828.721182392507,-665.505671459813,-322.207171130977,-51.0226954584295,-523.842067156447,-924.127482424395,-322.37365318917,-738.457634060867,-298.750195253535,-351.529329488771,-246.564716104829,-152.838832553729,-199.034662504256,-150.461825660811,-152.468882034196,-231.15031656858,-153.201659899196,-300.935048632491,-145.955207311027,-156.864126545597,-194.261557350396,-201.47319063541,-200.837772859649,-226.99835635743,-148.895262732383,-168.584922137685,-154.780090472055,-173.983341735167,-139.208194704996
-190.804728644346,-174.813863842327,-186.563170877532,-184.136341769349,-184.060299439338,-185.220696216158,-182.80471769511,-188.002005789237,-186.89266535193,-177.986450792279,-183.271534504557,-188.14362926485,-173.630133329756,-182.825944444167,-192.084093793911,-182.502902504776,-200.815373254886,-193.150720669065,-181.402751807006,-195.622627526186,-180.570002244501,-237.086535845548,-194.855215821221,-157.816044905314,-258.00681497465,-125.827160576829,-154.51265180154,-145.333854162313,-257.031141887127,34.5975817804163,-363.795771970992,-557.232563614205,-506.175090082231,159.54113005768,0.622638397140897,-811.930677049884,-617.36074052929,-366.257810520771,52.978314667076,-463.287335234792,-802.708799269782,-390.312315374268,-585.962900044661,-280.728475319573,-461.111892933591,-239.900018334345,-150.125804835332,-199.153717300942,-145.053884332808,-158.86018701239,-225.210822300321,-158.904677783198,-291.776238646935,-152.973414530309,-161.890877587927,-193.522560098305,-192.648805302556,-197.8488395716,-224.335726453999,-152.795649412174,-167.52757688941,-156.813412225236,-169.936345727426,-142.559086874996
-186.857429618671,-171.032726062891,-179.091616491724,-176.713819636103,-177.698782788645,-164.200714101342,-171.552772626577,-169.770358273507,-183.914923043801,-169.654552119406,-176.920035005831,-177.481824405133,-163.516863360295,-177.638951217666,-172.977836419384,-167.218831447931,-177.161533740611,-172.242447660318,-171.870509523618,-168.967364605766,-154.630730828687,-203.175238799309,-159.521456291927,-132.626694921065,-192.866274430327,-91.8875969071629,-77.7661455162039,-64.3205263753209,-234.57337274074,127.25258891417,-287.484803760312,-574.619597544672,-504.089356153532,288.712341826164,109.58720971691,-642.798734561358,-562.172830658139,-378.868032396205,192.612092179858,-287.90183951727,-573.102946092702,-407.314182398013,-351.47435986869,-308.722967043482,-427.247399108885,-230.075434545184,-152.932567314091,-206.189782306042,-151.531377438706,-166.156381798622,-217.351438709542,-173.441326029562,-282.634042648743,-158.960100840821,-174.113813144449,-197.192120525763,-192.47581106385,-200.750459526995,-222.984116697708,-161.171519572361,-173.429793066819,-161.827525344836,-169.335630408154,-149.705156015625
-187.664016574967,-181.262889076175,-177.038552993745,-173.489545088898,-180.666572726851,-145.22516730956,-169.910784906573,-161.134093167925,-177.491975996222,-170.209401079082,-175.785303846325,-164.559724205479,-155.877932615769,-173.778420774221,-156.335484248376,-160.085429177768,-148.187912900853,-154.264151752852,-160.835480369967,-139.312257539881,-124.591833876639,-159.81393289971,-113.93348563954,-103.62451421102,-122.232659234158,-40.9973711187021,-26.7669542674424,8.05422018962867,-158.98987413501,182.442316764253,-129.357990376998,-516.962734930822,-542.08006400089,363.244311393598,205.119899703793,-329.307774517055,-495.648738985633,-394.292121088153,295.731291123279,-72.3803313056178,-320.673877988607,-408.595997156858,-136.675737954035,-291.332136566389,-349.215105188335,-222.744223058739,-175.829552949329,-209.366355051553,-181.299956938748,-189.980332417871,-222.627519788803,-203.364487481401,-285.266985687154,-172.54051897227,-201.390523695387,-215.471201240155,-202.130006542736,-215.83900365059,-226.782173617862,-175.654193715401,-190.91168201626,-177.341391139841,-178.973092267325,-168.770941231653
-162.309075235178,-165.346144036996,-147.19531038101,-146.93773334755,-156.003162801552,-107.296721029995,-141.21993737808,-135.519540053523,-136.97861100154,-140.210461134235,-147.629356195516,-125.502287539446,-122.000068734263,-134.377857848464,-114.300114121514,-121.631901911404,-96.6575544842172,-106.197625548965,-112.433831939737,-80.8345075072982,-62.7040030000892,-96.5263840667835,-33.0276156027209,-26.5090434282358,-31.1243939676879,51.1516302713847,8.67131889058956,104.136081611914,-20.9083077090924,219.963344747848,57.7125754927416,-327.499297899393,-438.315076041517,402.599746655354,274.67091092239,11.2026947885189,-314.111120321597,-315.991671081242,355.832449929399,137.343192847441,-83.9352092985726,-314.584445518663,9.24768882329487,-189.15242161289,-231.454646139252,-189.902849598331,-191.10194172864,-176.136683682274,-197.620061065601,-195.963645618139,-205.071966133022,-209.73941491138,-257.909469469904,-171.949632572975,-206.398312658595,-212.296568653094,-186.168662755367,-204.703002954474,-190.732656044487,-168.018239853933,-179.393889680274,-168.652675950961,-165.303010899362,-166.98513582309
-97.5347032466549,-101.111778437488,-79.2370788837164,-85.4898862569221,-85.0781412601129,-39.9660495058938,-68.7339992797841,-73.7172267096896,-66.4959135195983,-65.8910655187092,-70.1398748662418,-55.7099024811005,-51.3497530761755,-53.7120139040086,-39.3478715841851,-38.8758492854073,-23.1762731049042,-19.3572648135697,-17.6841436126335,2.51470545832436,34.0233510957273,-22.3794574002441,80.5180101712026,102.381514806992,76.874043822745,184.886182848521,44.5224675582342,236.741646862266,169.451761155252,276.037395448712,242.121327827693,-33.8824243279532,-106.333708691632,441.586463547747,352.186491395247,286.397737215594,-3.77265838205835,-74.1519138911883,405.487000255826,346.983996183636,160.654146896139,-80.0245492199027,175.150791456378,-49.5167439181992,-50.9336586983869,-120.814742097697,-164.644799565929,-102.561901953345,-161.817880324085,-151.922273505251,-138.791822737514,-163.799993271718,-165.84329094851,-136.351660907384,-161.923008043122,-163.692691801489,-127.501983775077,-144.026771775234,-94.5225581966696,-128.487626840913,-123.359531338028,-120.706247862588,-110.377356680015,-119.2323069945
-41.1129307679761,-38.5887203694996,-21.9005422939502,-32.1103383253985,-22.5179126301431,12.7271146060467,-6.38563972403453,-16.122967017616,-16.5756471538917,-3.23843871563951,9.07300268439369,-2.56339513543689,7.52326730996364,11.1534617305592,18.3669546310945,31.3640418334654,28.7116845920659,54.1133768985318,70.0695840707357,59.7855913486973,114.824421824938,19.7703682122226,172.854226025595,219.558143332949,153.097241753481,309.032700477644,57.6233258999011,353.835378309857,346.62221172763,313.496497632548,386.798171505262,218.94494843136,260.062246898122,451.766215145564,407.519434368929,437.120971062361,276.042432342413,188.794162866251,421.30685470423,494.458126532532,348.73950507239,158.245704090419,352.644335553211,31.2074919004019,91.0798130588203,-60.2712670668756,-112.530204036318,-40.3938680576176,-97.1849288100761,-89.190779687599,-69.3727432062106,-102.601202730779,-55.8666556079856,-91.578095658792,-101.783171792374,-107.142786134038,-68.3199671803467,-71.6812621848334,-4.25910875486801,-93.1961461524301,-67.4386525005442,-77.138761066041,-59.4618264571433,-65.6589983079721
-31.0851797700849,-23.7924587499454,-9.65294209682331,-19.7062045144354,-10.1495695053479,16.3501961884976,4.69083236964335,0.915051117174654,-8.60976157134182,9.96505308731358,37.6045467265563,3.50878176925622,15.6865025953883,26.6953363123551,23.9045475718652,48.6357794999181,27.5182855679911,73.0748921622472,106.398094211779,63.3614869668204,140.190566614937,6.91251273265848,198.642016309212,275.640443779632,160.451926594472,370.853438986778,19.273700928199,398.576631018997,439.778032715881,283.970892821022,443.841529841631,315.077239784814,445.122368332262,390.632211248025,384.761890519369,437.150891887566,386.043040614284,288.07766503254,363.816015185688,506.093438023076,378.382696315396,251.40671148374,421.443961901693,19.5947511180896,93.8630268589093,-44.812488620542,-72.7487646813464,-28.6356369444036,-50.1024296498032,-54.1691144110718,-44.1793146347584,-69.0798406647142,2.98358892377194,-69.9016958535357,-64.6881191882131,-77.3754742495608,-46.165399127814,-27.7590541111372,13.9391282595731,-81.3589399814418,-44.9971814676558,-68.0104645831796,-49.5756496879324,-50.7275054028618
-15.6585734206168,-8.14287681310828,4.23768204394953,0.0279525094379801,8.02553270412657,21.374365305833,16.5884296635571,24.8042467242103,8.87935834737568,28.9407945456388,58.2714259167166,14.4617908422634,26.22035693832,50.1896037857956,29.0323006943601,65.189860897754,21.0539353677919,81.5570060137308,129.186702987113,63.7790264861311,151.853713554925,-12.570112392699,197.852091417575,305.807817418077,143.110190951894,387.009397782557,-30.5380485882573,394.663884017863,466.81474610675,237.607251825079,438.521157638706,312.667667761993,472.337123175634,298.835107414507,331.955681525727,370.158172812839,378.065966227866,257.373144854145,277.722541239907,448.35923983816,312.16912680462,234.162464730955,409.871347104656,-4.23387347590569,24.492975885321,-33.7874356064865,-32.4664472114216,-20.2912406979858,-5.52617516868892,-23.6955642146922,-27.3713180564751,-30.3136600329766,24.2525125965219,-41.2223880043506,-19.897929878461,-28.9024195072349,-25.6345517642917,15.0530369506316,-1.51321693617772,-48.8703066084084,-20.6508233565427,-43.8646695645407,-34.1044320533,-34.1223624899279
62.6602550301685,72.0417904746774,69.6889119479821,79.3064965982294,90.7179732300618,81.7841325978477,83.8697730622032,106.841631795236,78.2570011258529,103.962069664016,136.318272860218,81.0358756322985,99.7147505094241,132.027426412682,89.3758832705223,135.583759111356,68.2135418537737,135.04845543395,191.659127282292,113.522173105918,206.022246553094,16.502743330646,237.907138539476,358.60966424427,168.090390960736,404.708987103394,-22.6343677234962,402.549363969064,474.430267523159,241.73627126281,429.265768446165,311.556237652136,460.445865154468,239.522875049342,321.339070838488,328.490687358101,356.976673975759,237.051813132757,224.654747018751,436.467226849394,283.779646084861,203.385412725743,446.516303094138,15.2580435558279,-24.4636460770672,21.2990118240494,37.3351866068302,36.9897900385041,70.5629585948041,48.8794213397113,28.3460652668212,57.5307030247915,56.8384430527377,33.9625564679186,68.014491729811,84.8689524697399,32.9349756947537,92.3368799524332,20.5469176192397,32.8699610353853,44.9558556197834,42.0217978089107,32.244693293186,40.0032606376967
147.701717995662,168.401500530039,144.543843719096,164.339289774426,182.460388421922,147.634569742079,157.719206984613,191.477540769271,149.312210131749,180.281329864327,227.370799085103,151.567005263704,180.248671466115,213.74046003052,157.968363327218,208.920702446053,127.510367710682,195.301706931126,258.530220040602,169.660026412569,265.289403832158,62.9484089399905,291.016667225289,396.735257557384,213.212393096198,412.15219893919,29.7017543233799,407.837557571538,433.964150879919,244.661606523309,393.04331239468,288.139825774571,407.520437600778,165.707284809468,300.02264298265,274.064845579085,307.775088341149,220.680785541402,160.233221935359,455.39781332063,276.299653860102,157.218786153281,507.305522456705,13.5531775190482,-80.3276888997065,79.9371841568388,97.3606787588128,95.7237963848593,133.452240037948,128.178863174347,85.3103518930014,143.872220602523,82.9945085324853,110.984740768872,144.358792264313,196.099004656825,89.295840685025,163.195023192713,66.2717038112316,108.703400019016,118.861398529298,138.505794977006,99.9559156046874,129.435437515931
175.299803355593,210.096212879561,179.564685968791,193.104706077384,218.126856092135,166.048628801554,187.834805547108,220.264312173644,171.86622585765,207.43656611554,265.079448174278,171.994833573542,202.314782767294,241.988070662196,180.592043004259,231.403435673222,143.347055710499,215.679103052246,282.471180838558,181.364442383392,280.524262050421,83.1558889669771,306.061901523961,386.883746992235,231.910071525457,393.843621615168,77.4327660619872,383.104860653728,347.063824996591,191.063397775282,320.138559659696,231.90389815601,299.510622736623,10.3365681653785,218.418141119079,198.687277770931,216.670602241714,142.402951568083,44.1119954738324,462.949829939118,245.426698123978,97.5172202487333,519.234946611393,-34.5589897282747,-127.376129978649,101.907590210311,116.719874193851,114.492038263935,144.658333899135,164.254167236708,112.121005779482,174.102663923768,89.3558048943459,143.226903956922,163.819334386037,227.387577773506,111.119672309403,188.622854526202,99.8219060251185,139.176555412997,163.889509550572,188.182694265186,128.298823182259,175.03742242412
181.193332540582,218.267772198278,194.356225120615,198.898971682386,226.144622662785,171.902329918946,202.932171186733,228.250330260041,175.647625368632,220.394808690802,271.739752046252,176.362758065725,204.070674603682,252.1036224137,186.461142532792,237.940381556926,146.92491979417,226.455260298897,289.824624849867,182.464575526209,286.458547917577,104.649522423335,313.200068677319,377.657120851783,252.307988285308,390.739897573659,128.056126649387,372.169811904743,304.653685580189,140.813689335375,289.689590158704,217.196246698552,206.669899331769,-162.642189083571,149.977342904409,202.616828198757,155.431388184684,55.2194365624252,-44.6041705315635,501.878440507299,255.750520650134,86.6529927528986,527.863018057068,-41.1673009707117,-61.6009140296184,126.940137835058,140.372078826974,140.190962342697,155.618774506477,180.18382594183,147.954167832687,182.65441723536,120.131204940793,163.555268329656,172.106022414147,215.260125796109,135.403923102941,197.64325199841,132.43064534958,159.466858826878,193.30698660864,208.564085576929,152.103395632151,194.010755510058
181.76682474655,211.152026361673,189.467481192283,198.382933766808,220.133504189664,172.410273975314,200.86150651238,225.5859218637,168.687594324914,223.135618232238,259.305095469916,176.219307857925,204.748595908325,244.464142779147,185.413886635364,238.364692852493,153.503362329296,231.935689538343,285.977014032764,192.036834473755,295.79936864081,135.693100340393,324.345349154976,375.592160398364,288.401488437449,402.592374072693,180.75523874218,382.334786366141,314.097464021672,135.840319916139,305.039476205633,223.906800345556,132.954829904734,-252.635010862051,140.939310554781,270.815555348351,119.215507315203,14.0959453426379,-39.9971872211689,541.449827484155,296.800449784035,97.7940410009874,528.83787644387,7.72339337377416,57.5287840814119,155.1344589382,168.145386853319,172.660664504962,179.219124275343,181.873369402975,178.864823515034,183.130541414973,154.86692066023,176.870368400366,179.751732734444,197.307367306148,155.48004608637,191.513566240101,145.685612118969,171.590690278419,195.183872764296,202.290809047796,165.555490403545,192.89810060634
133.912849976326,156.630280485214,133.918850932131,149.199771997925,162.448983652581,122.21211930002,141.614078623917,167.059187394806,115.412445601838,169.789301791916,193.017031393131,128.955447462344,158.774721361895,174.369484247438,142.691011959896,189.533862856048,123.464451648224,190.000458629577,231.067744641066,174.009372800365,260.021751216915,134.341117090938,295.543044830461,324.389049787123,296.431341218923,374.018527183951,200.148662362346,357.168959445267,285.258583173173,144.622440883875,266.470418375461,170.435317900247,26.9307658817621,-245.645712476168,168.72622653247,266.69103535817,40.7672000991555,-25.5429356813602,41.6764418662833,448.68651119731,248.177451771912,38.920839907904,406.911000709326,26.527594989426,41.0071059568762,120.287247938642,134.882652376102,140.392986747777,149.919135016714,131.071087043377,133.356859492061,132.19333572446,114.12099451161,134.070738698226,135.105059246086,140.793397240317,114.873794014752,131.529371798194,96.7868519423041,131.082788406508,137.449083453228,139.009086545501,119.959720768797,139.043235563866
44.8059057035651,60.2668832380845,46.5329437877732,56.4497628761739,63.304859558557,34.4027788079552,48.4797514883816,64.6018438010455,32.3308245946903,72.6152698573732,85.502437406999,41.9902095667908,71.4694220382048,66.8138024186147,70.2602804776505,102.238134833518,60.0749357320929,113.440123409388,137.54564077668,125.382749621868,177.00746546886,99.5982799801747,230.569320137929,229.360093079966,268.157286557356,300.060576883126,185.319389185244,294.00729393161,202.859876165427,152.256287651868,151.731761686786,91.9733075395063,-66.1007265765434,-166.414682797762,241.933574985046,154.322783185336,-45.8742032355095,-90.5161484619481,175.494051115953,200.23756193851,86.1278832573584,-83.5001890665367,143.457817285145,-5.3471178592072,-115.72743083526,20.8768247051225,39.5353066103226,39.5219272430211,55.214383246162,36.4209313716813,22.4268068688258,35.1449730555383,5.55300309776641,41.3620445545765,41.9019962295285,40.3656662551813,25.7889861669471,32.6835085241424,7.30906709442872,44.2093644159549,45.2398908456783,38.0716351030093,34.137420911605,44.0264333185002
-41.4638044864082,-36.5193315491678,-32.2544773757124,-33.917995402675,-35.6504659815111,-42.9785133709907,-34.5794175240563,-31.0793170787047,-39.4664755484779,-21.4173287531688,-20.6286258417085,-36.8075149245458,-11.4237068168439,-28.4753474724423,3.51667014667755,20.7135996588219,0.567597150609632,42.4231641038685,48.4794324771422,72.6339182766466,89.8740707802096,63.4861172474301,168.106867675447,135.526038367379,230.803634166082,217.907827841657,160.394537275561,237.296886018493,116.11296706919,165.583750245436,39.3644570198336,45.1849643849353,-87.5764095414183,-20.9113616486375,354.557397919722,4.05385632189271,-91.3670321501696,-158.372168933146,321.280581909288,-74.6798615063435,-107.706461695076,-217.929681067547,-140.544378417233,-63.6185453814759,-272.953804036631,-76.6966177253804,-58.6023272738835,-64.1981506457544,-50.8860155648565,-58.6999415865442,-77.9993008542573,-60.7150410100405,-96.1792719381496,-48.8608737561303,-52.5312576508627,-64.8886376147659,-56.812607414051,-60.389757010112,-72.1799179355569,-46.4970771661234,-38.9089842542092,-57.3456904252812,-42.2906581161747,-50.8673257395339
-110.781559199626,-111.913041864554,-92.136616284129,-103.947245021044,-121.408188890576,-99.4053927523203,-103.036307337296,-106.685039674093,-96.0732852982039,-98.4656681046308,-110.259861078669,-89.2900522674731,-78.4055953958191,-109.229179146005,-50.7315629593236,-47.3055494386901,-43.4064993988377,-17.9124083542161,-29.5222016797054,26.0760856087061,17.385479690455,36.3494182253703,114.928461499448,49.8381792558029,193.822996987557,144.982565913695,149.391749095095,208.550009069934,36.7861283096706,202.736470048645,-12.316446958914,-14.6425358715956,-80.3316441618282,181.620988151544,449.006681708864,-120.209222282857,-143.536977033447,-236.637105546985,426.687850785982,-252.850015369061,-270.88932469249,-357.900525357329,-328.568344216423,-164.89197366035,-393.075147554367,-131.593089610152,-124.241237592009,-125.691125992374,-127.139397012308,-131.617048892977,-132.686891901645,-133.044811351909,-155.81174051068,-110.860366137714,-126.710690343017,-147.108639700661,-116.344175480717,-133.353212329361,-127.144881121154,-119.163231659755,-108.131912271828,-134.721548159217,-100.773912614952,-128.452858614206
-158.260551888185,-160.121361732689,-130.307136880892,-152.820919963629,-185.721424620003,-135.729661467539,-151.448806299588,-165.658157060585,-138.757501621957,-154.883622141445,-176.500289415221,-120.368579610203,-130.318843775542,-171.828502754812,-88.1890882512934,-104.248780058054,-70.5199408281151,-65.7170456003558,-99.4739238482849,-7.60412698667269,-41.773477593501,22.4963951162765,64.4082626663951,-31.4003174814692,163.317478474808,79.4663450676316,178.75221482504,200.010285419782,-45.9706007347941,282.470688077632,-20.2721581261636,-116.312096029561,-96.2540930313516,390.293435593105,485.920330827133,-174.986826037866,-229.100923887757,-339.525933959805,480.058667893306,-298.691582755299,-366.119900945078,-470.731768313772,-377.272774125968,-299.435915370159,-495.4706863892,-148.358098824898,-156.493245322545,-145.331615364312,-163.060014233026,-174.940556773035,-153.033847386993,-177.029265735375,-180.156151429797,-145.801875230542,-174.964823162601,-195.36530552052,-155.197825514441,-182.230328169984,-160.029677653,-162.599050817138,-160.636775612021,-190.000498836411,-144.233104536525,-182.003298447922
-173.33604226631,-181.828958825727,-142.383246088033,-176.821174992874,-215.497484491193,-144.169778012037,-167.004031984136,-199.746757679522,-156.606525955809,-181.147816947828,-211.125764319677,-132.856079229857,-157.441572780292,-197.697157488775,-100.671443559718,-137.208847105252,-76.4452189476151,-90.5458394737491,-149.255552496087,-24.1593246343527,-84.6426751503183,28.9446893839382,17.0748543935793,-98.75151753102,147.683287564121,10.9584453456478,241.168016768407,179.655057211663,-129.815868181233,371.618913761028,-35.4483855015338,-192.596611473853,-115.126239849391,536.149745409349,457.985181805757,-144.401496786077,-278.870023612698,-430.253980800302,491.433675333948,-222.833121723456,-355.722513638223,-491.005779497921,-294.545707845095,-379.848541183127,-529.738392821692,-145.864189368873,-166.417081124188,-147.666062294709,-169.700794491237,-190.508704452338,-156.000617131346,-191.081623692468,-179.51704078077,-160.081263105423,-193.393913030309,-213.242906958426,-167.375590823763,-202.058922181888,-169.576124737592,-170.269196155788,-184.938924017606,-217.876532615806,-164.845317692918,-204.87186001392
-162.959235373213,-186.323978703169,-137.183685976202,-177.333157935274,-216.571398162979,-130.69677824799,-160.604617249102,-205.421610504485,-152.574288731878,-181.945207752061,-216.781222596017,-129.034083754146,-160.471159700353,-195.967216919374,-98.3618926063909,-143.322250945164,-66.9767928962355,-100.624209434944,-174.76620184955,-36.7333172722656,-110.433762474797,42.540487750626,-28.4404588742612,-150.093089972113,131.490020134858,-66.4091637099365,285.926477439861,117.809011152349,-198.749328207313,407.438443127827,-69.152196326652,-189.704530399853,-112.179334587695,582.530207162337,356.533761096745,-64.1247945707512,-244.896505357076,-461.213132166174,438.774414418729,-60.6114974800717,-243.532983692827,-421.875246217088,-125.897788089434,-328.532011463926,-457.706325360288,-133.159865269005,-162.620456377319,-145.354513550142,-165.436342513714,-190.300982940791,-149.274909567061,-183.628944191287,-160.634457896477,-158.096403734071,-189.451980327609,-213.910910404436,-156.106568617919,-202.41283715404,-159.658249850636,-155.813364615249,-182.295409312193,-222.836426897411,-161.821020830462,-203.470352874211
-159.22926706601,-192.208597471452,-137.527073779669,-174.572437785622,-216.349836574904,-124.021182286824,-162.133282881512,-203.746030884051,-152.204180303249,-182.707250880183,-215.325701668468,-126.799939014681,-163.219727853726,-202.933966669481,-108.41512404471,-150.856715042252,-65.450270585639,-123.276883474006,-197.550123987575,-71.8171713517085,-140.557057858319,25.0550627577151,-86.4414917911327,-201.475626582295,72.078498354725,-147.056829594001,256.340662828576,9.90887494155996,-238.652191415198,345.63022355877,-96.6295532600187,-152.129339499426,-124.466402180459,490.811196974417,158.394252819693,7.80471259108527,-188.96258085552,-439.206623083136,258.962706198682,106.595370216187,-100.504041963183,-339.470194321882,43.3270115969343,-183.780173879662,-335.908043049528,-122.623046667313,-159.773100063864,-142.883474911975,-165.929145636742,-195.039721955115,-146.326044569506,-178.16362648366,-146.493513854668,-154.591853923292,-186.869913766647,-212.668892205075,-150.440090605649,-208.776959420733,-150.942302718713,-150.917881540167,-178.665069453316,-220.063548039775,-155.333267735014,-203.13840597132
-179.538276730426,-210.506773910851,-154.590489084383,-190.232139989076,-230.32416019536,-141.356547815394,-182.790775835346,-216.755873525238,-168.999529573116,-198.977090806183,-230.316437489211,-143.892642100664,-184.23758352631,-233.795166885744,-140.52084390683,-181.886453787998,-91.0291330025061,-165.670593485301,-234.552640672351,-133.346195944724,-191.542197339111,-39.659120038857,-164.870420826382,-260.80577688561,-43.7630510259702,-221.117622816258,136.818335341107,-129.756039469573,-253.044976819649,169.679022052189,-116.969173753217,-139.25716502961,-182.637487250844,230.000642173959,-145.237431760223,44.9167102804557,-189.618110617297,-398.96840932948,-57.3758259597517,186.518198809015,13.0256744664078,-293.03425598271,140.925183719797,-60.9499020144214,-235.338409820791,-132.573820139517,-172.995013513499,-151.952622675973,-176.745295077047,-213.303702775136,-159.511259991537,-191.333528482531,-161.370988951016,-166.417270271789,-199.741496630333,-221.327389132019,-171.686441523268,-232.540076677039,-162.242650507626,-167.496930749119,-192.549772217189,-224.555502531886,-164.278722989709,-220.20093500022
-188.971226196398,-216.653861593827,-161.407262821734,-202.174743018416,-231.840432331331,-151.021321926706,-191.334029684103,-223.336215386654,-174.198801776226,-203.93828908789,-243.149275984851,-156.347807574666,-198.353211022661,-252.539620301606,-161.539245089103,-205.970779543897,-119.656712641379,-191.26304405643,-259.422860247484,-176.277478297044,-232.066905903064,-101.372810616898,-228.084578594853,-297.03760664663,-152.936195427301,-267.980471180274,-9.20556677609119,-262.163822532825,-247.335721981907,-66.5891270555002,-151.721434710246,-129.379257876043,-238.199595778521,-84.8577549224436,-481.801394114498,52.4520072516628,-226.481635564046,-342.930804220074,-363.009020559912,136.602263981885,103.862146169933,-264.955490475614,162.475500918649,-10.7841007249096,-165.719508806959,-142.295377243902,-179.262804629097,-155.510488558754,-174.528293388334,-211.601114933138,-164.636528795487,-196.345339187165,-178.229155583338,-172.800120200683,-200.015403058532,-223.661763913729,-187.740492561696,-237.976483479495,-172.651993227673,-170.183441404188,-195.739269568638,-221.068459114694,-167.05963049656,-225.542125829232
-146.147497660694,-176.185989820439,-123.278952275943,-164.09215469791,-186.550635897414,-113.030191045721,-152.651672388455,-182.668787856146,-134.638016933889,-163.835599408059,-210.053831308598,-125.563513713517,-165.585662384411,-215.929014837714,-133.022593397132,-180.794002621352,-104.856733345046,-167.040440550121,-234.81863193938,-157.16775887443,-221.717720491473,-100.587843287908,-230.687668504343,-278.109497061686,-188.168638895222,-268.574483434601,-85.0408485872384,-342.013177751062,-224.839227367848,-242.932080866644,-205.641961391542,-85.15743336939,-235.182649411334,-226.293243430071,-701.834678492219,24.9381731224723,-235.006097143205,-259.471325736839,-470.445174850836,-25.1317188723431,173.211138923494,-227.593999823884,144.372910938748,8.51507661835414,-109.84292579838,-103.575565167808,-133.685827283454,-112.982380987552,-125.220272802794,-151.693025564177,-121.503152755369,-149.463735121354,-142.817963324998,-132.725955625021,-150.168036216549,-181.22471978593,-147.472293579997,-181.096859635851,-141.436191685892,-120.509272394475,-147.498052839315,-170.92794029023,-126.348013646027,-176.596669093357
-53.7186530118334,-87.0814413221303,-38.2318872144114,-68.6751827167768,-93.4184097887924,-31.6328796407675,-66.9542536121267,-87.7080379830738,-50.543624982864,-80.0708206297323,-119.334086528205,-51.0909885125253,-81.6047317628205,-122.575798605836,-54.0516955488882,-103.852732232596,-36.0479822083419,-98.0121015599559,-159.036516257882,-84.2253145651206,-158.577919452298,-40.2849314490581,-174.185837776737,-216.730339427706,-152.65553297708,-227.456951873903,-54.4963718848718,-350.118461983965,-198.345344060217,-278.758078771904,-246.410804146093,-39.0497023994585,-182.114280351205,-109.262081528987,-695.188655883082,-35.0283666272903,-212.11316446355,-161.265585785002,-355.462411156672,-215.238343596665,187.292088616945,-178.295848657852,139.803236720991,27.1071624408096,-59.4561403492811,-10.1298552664031,-27.0501046782294,-17.9328419376153,-24.1861880223253,-40.9444326918944,-27.2076109000133,-43.5823384519303,-47.2655515798969,-37.9930322075016,-49.4853488252664,-76.9200352388877,-44.4228838431019,-68.0284697930626,-57.1635261226937,-21.6773809650446,-45.110817226324,-61.0909277246806,-36.3136127889181,-69.8582185394757
55.6949488478634,23.8593973263768,64.3292073222379,43.9717340230629,22.2120102484957,60.7962356934577,38.3665649599204,28.605545332342,51.6391018075997,23.0290142858726,-2.27202294533514,39.6662030674372,22.1958028950699,-7.54283578906808,40.8817062240714,-4.82914071094885,51.1391766434528,-10.2034289915443,-63.9062348475768,2.13651043807375,-72.6746877938584,35.7474549609177,-98.0679879993483,-151.885884701143,-90.4272859989007,-171.239000591051,32.9661030199607,-297.145462961259,-180.488624267986,-211.214949390749,-227.737237723661,-44.7633566322772,-116.359726814009,124.622438965415,-495.443721566187,-71.9472467537149,-202.244489040513,-79.3072189480384,-145.74601206258,-288.49896889119,143.283101629693,-128.107421063706,197.133542328804,11.2743507154381,-19.3616135567785,92.2405479785319,100.147009757698,90.5567005359418,95.1898324299635,81.0286518128722,79.3223937605965,83.4565356403665,63.9779181899845,77.414053371319,67.2488739478387,56.6445154522825,76.6520195637931,55.6610751991045,51.8816727145262,92.1220278034029,75.8011420442056,72.7471220904343,77.1319407911566,57.4076191059272
138.700122988979,114.787530929442,142.059226251776,124.799211151144,120.234035729822,131.368138677328,121.62415253411,118.196333980047,130.317027834767,107.824097913354,90.8452371263164,113.965434596936,100.101849298027,80.704567915194,105.585408095244,71.2796248405548,109.883701739122,56.1885832789688,4.93281212953064,58.5359665775385,-10.063194987952,86.6956956871655,-47.5295793571565,-118.368025076921,-48.1360147117769,-144.30127768618,93.2597519819828,-227.198274524712,-188.271880678155,-150.160435809019,-160.354659902225,-116.040812593782,-68.9351999282425,289.226133130869,-251.169868809086,-36.4393486915001,-232.147444267507,-47.1828822529669,32.9663906312441,-141.659974766175,66.2317127626603,-101.230306560086,297.144202903566,-63.0520999471332,-18.9950280932792,156.335790464938,187.245723600715,162.231157365731,181.449176809584,168.872477602099,151.877535124099,172.310767688082,142.146051270133,162.043499836964,149.713671577272,154.998118308611,158.647961946739,144.351152216173,136.888741326968,175.696278534615,163.076626113455,170.809753460316,168.748641375102,151.482688917282
165.36272011458,151.820345156091,168.882835217673,153.164816828477,164.000622075439,159.300069115486,151.942691494738,152.93043370536,156.557833456354,139.148623525588,128.427289731701,143.045152850475,122.924299081818,114.590940673327,119.148929566785,94.8190359843858,121.505933793701,70.8469051748829,23.5704033125366,62.0905513783675,2.24065539319406,90.7417805906864,-46.4617643893754,-122.957717837955,-51.1729252151089,-176.154445670388,87.8758210731372,-192.525202821899,-235.995260933267,-149.800278399755,-119.536292132257,-220.854077232268,-52.2512252540678,320.018167524434,-87.8171716607808,45.9814045091567,-273.717111087818,-66.2784601322279,133.616835175616,144.565410061334,-16.105582743685,-107.076610699472,380.662627560731,-123.093491601831,-74.6560024336761,175.878711918799,205.633121031701,179.639295714585,207.207360389709,195.857092807712,175.196664471762,191.962133741554,172.142280375238,187.031352628507,172.31612337191,184.708459755375,180.065053424025,175.828189352215,165.965947880704,199.113061741926,186.847280065856,201.343751330975,198.607206310362,179.820742698402
141.316953512106,133.941964622707,145.636904038946,136.158258088146,146.574121228605,141.071364136809,131.510020250269,135.201533643523,134.436126487907,116.755976545069,117.081536028638,117.004522438108,97.3672053030225,104.456364842281,91.5889800087751,72.8082244826658,95.4160837683563,43.1838229464421,7.12401397041917,25.0409028740206,-22.9652574153103,50.405891878723,-84.5660908487335,-139.178367669122,-88.1536269250742,-238.779219834515,47.3220615425331,-211.668865950034,-292.240142337746,-174.461796369723,-150.460501335048,-278.408692549046,-38.9692878580966,258.915622000296,-35.6693583781691,125.426499007188,-246.158542433435,-84.7428599173461,151.317433238088,355.179969646407,-38.7929015836146,-107.524484825487,438.417308309284,-61.9798844939191,-139.556679296371,168.119188191775,176.057269197205,160.796679139366,184.495819971221,169.910927844207,161.160396065747,161.899480503513,159.345983826117,161.306029817432,150.977521960703,161.910017320787,156.998167680517,153.615377686546,142.126122994652,168.835036544571,157.69306580173,176.423450768859,163.918090676419,150.836296401943
92.394515869445,85.0372342774419,88.8106219859983,89.459711151123,93.5064165280004,90.1060853073476,83.6811891778409,84.5742843039623,84.5467582870197,71.2231406795194,82.4204822849873,54.6608112305631,50.6688845451928,73.7139433396216,40.9147341020344,28.6487430421358,46.3154328425608,2.05946267540404,-19.2027268771774,-21.6855620204718,-57.6239674879374,-9.98416336728325,-131.406647255215,-142.992625366832,-133.707695925617,-272.933922081725,8.90753266733695,-268.57054239417,-297.062633178647,-201.59392227685,-213.346816596924,-220.270306759874,16.7218130855702,154.183551845873,-72.4246490971717,182.653700186484,-96.8519562173578,-51.8953781617529,87.134643511856,376.342046822301,63.004097817712,-62.6168555664446,476.602934662544,94.1300882450414,-145.052726223125,135.475881492009,129.109405119464,118.964210249587,134.516275755502,118.231433314469,118.194923942927,114.576155034501,107.381389499154,109.084134516502,108.326595037653,109.91133283761,110.749886063904,100.077710725686,87.7213300225595,114.656553553537,103.296008665017,123.507579836641,98.8084768758387,95.4391110037181
43.6668780916381,35.6393348740301,27.0337152958162,38.3747189715321,43.4412575851645,34.7464134397495,36.4959782271821,34.0822037673222,31.0637393097038,31.7944734886798,47.675206803105,-5.51706391258353,10.2762143485335,40.2228664237591,-9.25434320646009,-13.6949318574543,-5.91512668217739,-33.4221631308152,-40.7173401713239,-54.9171119853344,-80.3766947344069,-60.5569716086763,-160.402196440418,-139.235077053853,-171.071424639451,-257.258112489691,-30.8470948677831,-321.524502932572,-248.07369179674,-253.952430152442,-240.192476909297,-92.9691972439701,108.319970796501,26.4047247562187,-153.831876437912,210.688507831356,106.103651466689,27.6882352665561,-23.9935101281889,288.38873063035,248.789047272457,17.4737955429509,449.42258706971,184.135326608454,-67.1196100044395,82.3879270940748,83.6739809153481,62.7297406000521,78.1633040304049,67.6448140776657,59.0227509771494,69.8001095176402,36.2475979268477,54.8588655774147,61.5308161731999,51.6735454192944,60.012586227545,47.1917920754013,30.9203302937494,65.1362767568005,51.7875752435723,70.7889677822372,43.9445321569513,45.3525215764887
8.59298187681599,4.96749027663249,-16.3351854325344,5.79780047675852,17.945903666702,-6.2055157950027,6.11721727267477,8.9073662653691,-8.16357766836908,6.06791511806935,23.5013136177394,-40.1250028672714,-12.5788718780691,15.1314379317705,-42.6497062112168,-40.0436007085917,-43.0872382406724,-58.8765124883307,-52.4453181430381,-76.357123431313,-88.8861332412524,-94.0195194757796,-168.599704704472,-140.986224920377,-198.6997871345,-227.39270983535,-98.7029460157568,-332.131969435143,-201.494524280872,-332.728943233794,-215.596434009256,3.99685119582969,164.342825071713,-115.970650546208,-234.915153688271,219.144622160736,240.778168753171,116.841999374053,-127.99497572353,203.451271178459,399.357882219148,103.928713711876,334.73929639402,125.683638219468,56.9262129678303,32.0839819079562,52.040025993658,15.0350482996603,39.7353517735722,31.8311230643818,7.09652043145762,35.4402119600068,-23.2779051979315,13.0607263994606,28.3398717151907,14.8822432301422,16.7416956352298,11.0435185272647,-10.3963829161607,30.0330863146969,18.9452898966271,35.6132630921621,11.314519715772,15.8491687654071
-11.7653463810441,-8.69299607047736,-38.0629433699261,-8.21888875235533,11.0783231418108,-33.9275173272592,-7.37615619993461,4.64763642579339,-28.9167976699497,-10.6963007021896,10.8640313201795,-54.1443385026555,-24.0392410215483,4.53788083335086,-61.3217995042881,-50.5910053894373,-61.99330789605,-74.4510410085305,-53.158488914551,-97.7666991201026,-92.3000980964287,-120.025734586714,-164.523247864447,-135.394440531538,-219.681864635678,-211.030933114318,-192.783357965482,-299.782409248067,-157.256310819852,-398.25326264043,-160.421875596598,85.2416136841945,164.433227258542,-270.228769081472,-297.121885543087,261.752297096698,298.480966916617,194.541743551973,-212.100582975018,140.68329620111,459.595088967819,195.358640931735,213.27969257746,28.7394582181633,144.30012935597,-2.68735007447749,35.6571031914937,-9.97956488552966,26.3941222332006,10.5508400009179,-26.2449446991209,10.7802666264234,-60.1050881221215,-16.5005301413434,12.2412865348875,4.55570618723883,-17.1904491266395,-12.780221141345,-37.6994096308698,2.79554862390594,1.70744017605126,16.852541623151,-10.9617872138192,2.55393028130692
-20.3690399135722,-16.4730098356869,-45.7544423691668,-14.9413986390872,8.69748943686514,-49.9707296899648,-8.04155104335674,3.95780739130994,-32.5670871363463,-18.8007155917394,10.0133435665017,-58.3570053924514,-30.1566853913538,9.58901866635434,-69.0471608139562,-48.7884070389733,-69.1452107482779,-78.4580948282723,-43.1402393786896,-112.696090445563,-89.1230498521017,-136.389369359974,-145.745041697213,-98.9344316643134,-223.528553956417,-183.621599224419,-268.832212409814,-240.72773062283,-50.933140221823,-411.589506987851,-69.2579820996688,225.348414567218,199.39479085381,-424.12167978985,-323.759650912042,364.199498529755,364.583455699325,258.401122686175,-286.738145324311,83.3095401580966,449.5693990364,286.511503085204,151.823386331296,19.9612275222273,120.612920317907,-32.3155143351166,24.2870057765981,-26.1450393792394,21.0552788417547,-2.55117234672809,-46.9859549943239,-7.63963126570555,-79.7153505330027,-38.0067029048473,-0.536523857627055,-3.70642251631257,-39.0619079812376,-25.869963545609,-58.3645877998164,-20.6376293972881,-7.34449143346036,7.36210541956093,-27.8080402770403,-4.67677398149351
-21.3753081935683,-23.7608457842501,-48.5347808052532,-17.1254109825163,6.19660854254041,-57.4245905003967,-4.31033335294061,0.327517394099264,-24.8349605818994,-16.3158513712264,19.0570140335284,-59.5150270066697,-31.1124992767188,21.8633162564673,-69.8391757818893,-42.246014927744,-74.1782331416654,-74.2951424254787,-31.2108745408019,-110.162387518339,-75.071363238472,-140.78751245108,-116.865442677684,-44.1702466764873,-206.373292425926,-126.601877235404,-305.893521221422,-175.154681870633,100.018518727126,-385.180397274656,42.1282155555821,371.608270707867,318.719647147406,-550.151322680771,-301.725584832581,428.434591780786,447.133058074405,297.440034150393,-345.226042559372,24.1540620665146,360.753890944407,333.374316748143,85.1977982203985,61.1338111583665,8.78333983986922,-61.7231778421719,11.4334849989625,-45.6598435000564,8.98183191716954,-13.8275954101727,-60.4554379712018,-20.3296770301622,-87.236765638151,-52.4223716814993,-17.4081150928257,-22.9656469482941,-45.153989695234,-26.1843347042164,-71.534653821895,-35.660005322626,-13.4010517317846,2.14921477742642,-36.7134887093693,-10.3384033623631
-19.6991452886699,-24.8292009068451,-49.8885658852796,-12.6966495228627,8.96601115164468,-64.7601365117242,-4.24554856898965,0.346199292176995,-17.2579524313396,-5.28255672089747,31.7934154344672,-60.9030473189487,-27.0599259794891,28.0111741416917,-71.8541879375618,-40.4881357901225,-82.8806348159885,-69.2197146949107,-26.8584967092425,-101.108778960387,-59.8482821735252,-148.268183425454,-100.165258438095,-8.82314895603832,-193.737467308534,-71.3196138595835,-336.524979631201,-140.40170162959,181.323541248909,-377.954618121754,86.1455022254962,401.432060591198,416.422918397477,-625.562109169607,-273.6589449479,335.339717446828,463.097111627855,287.515927541037,-385.14789962044,-55.7207912891474,185.455563145782,302.43820362611,-53.8800408932881,42.0939205338388,-58.9581553233824,-72.7680653472365,2.06236283940927,-55.127896081919,-7.12099686379068,-19.7275766913876,-60.4256882639748,-22.7440365602895,-82.3513497347893,-56.391325409383,-28.3071959104565,-31.1353449794457,-37.9484574837731,-19.6747773998889,-67.9351215347804,-39.6917179000783,-20.5801309416976,2.02469328671843,-39.3459576519003,-11.3451258665042
