34.5808008875031,35.9582332079697,35.1607723908575,31.5359504948928,34.8707866391803,30.0135252985876,29.1435680435561,28.3461072264439,19.7190311140479,25.5912425855107,22.8363779445775,26.9686749059773,20.6614848069987,22.9813708204161,2.46487888925599,26.0987176509458,64.4493333102522,24.5037960167213,50.8924994193442,68.2916445199747,38.5681049730643,44.8027986341235,56.764710890807,27.0411713438966,46.1077345166708,41.1054803002396,34.2908151358259,42.4829126207062,32.7683899395208,35.8132403321311,34.7257937633417,29.7235395469104,23.7063351996091,32.1884184361664,31.8984326844892,32.8408863774401,28.9260787297982,27.9111285989281,29.5785466710719,34.0733258220681,30.3760074881841,27.403653533493,31.6809433707314,35.0157795150189,28.4911001022824,29.361057357314,51.32747804686,31.7534398086507,41.6854518035939,51.5449673606178,20.1540097415637,33.7108436324716,18.4865916694199,16.6741807214376,22.6188886308197,36.3932118354855,22.1839100033039,28.128617912686,30.3035110502648,28.3461072264439,28.7085894160403,32.4784041878436,33.7833400703909,28.3461072264439
158.79287135981,168.808585317527,158.862454709466,147.244983225067,166.548533673043,131.321537848995,134.080772122323,136.314043084704,83.1268657303847,120.704897882349,113.505339478631,111.291566477694,93.3260055990968,113.323370111767,-18.1727383239037,161.463471150241,285.874095862592,118.299853362026,249.820839107467,299.103520682596,184.889685638423,207.368513913529,259.632735536342,124.539926371412,214.865340789583,189.389844137746,161.331703231117,198.245615088753,153.310369588248,168.555576056875,163.830645523135,140.312552695119,111.326076708657,152.080843231883,151.139846083064,154.88680297696,135.513669179328,131.35022190343,139.697061244871,161.024685778059,142.466044498921,129.812221549876,149.527892747459,166.29406786826,133.449705514826,136.127704085444,241.662805025349,147.334511364368,195.984106900138,241.317354537133,91.1355373042688,157.854787299255,82.1362300215546,72.8114170402695,103.193813592711,169.857598851159,98.8099639147911,129.40984978099,137.482278528003,128.629420665259,131.726822706144,149.687004236415,154.718952223212,128.55692422734
282.537974731677,314.121550057116,274.580404022407,271.344775627835,319.435586040234,211.35433024314,239.597063520324,263.066643621864,121.858897209793,226.320356404041,231.797252713342,155.564053406349,161.525456906846,226.741355880654,-127.777446978176,425.960481901138,459.043000921463,233.991254891602,501.443309332179,476.724233657612,352.587441419207,371.333808149826,455.523503397116,225.864272287791,389.907954855105,339.394447425837,303.114579595401,365.401623208017,285.549231894339,317.040986787381,309.281796351187,267.041175281307,211.308725205258,289.670317570413,288.152987398334,292.999292672619,254.750960355393,249.118440414875,266.138245591495,306.532792752335,268.579140769308,248.990879682121,283.349409300022,317.588020721509,250.792700139947,249.581952113667,452.40364428083,268.779488024552,364.208742632081,446.831939320092,156.417043291438,289.249712775032,135.866313990549,114.483694893634,179.117225474332,308.696619466474,164.658634113643,226.989310382304,239.451635337227,224.065910221818,231.870445077207,265.286921443861,276.370067449614,220.024597943851
236.381250297126,292.959232250153,215.369233871642,249.188243022497,316.946722797682,132.561408598125,205.611376103975,262.82276691487,53.466179621304,217.448575515534,255.838739720363,50.51504443197,132.767768788688,236.407948246859,-265.826106905571,621.100198892463,227.755221970601,252.896973570623,538.085061257004,256.357787896473,325.501565141144,293.445215944972,343.882910420136,199.011912150597,322.402728094896,278.386329504703,282.890252697813,324.644928442474,264.028279274323,297.575786065822,292.307264703225,261.359618303283,208.829680688856,282.686781590885,278.726790993003,280.52248121446,244.459774920999,243.751571635576,260.966391483791,298.673445390703,258.797350655923,247.447605638866,273.293358356892,309.072152521537,240.413975398393,227.982397603148,422.056902587818,239.717294826786,333.83014814956,409.085530682081,116.652812144124,254.401460157826,91.3641418703132,60.9692509204308,136.674314157347,263.705090341437,112.83830452549,173.393840559734,190.662966559632,179.983757810699,186.704979027945,213.559702963727,241.126169218437,161.997845940283
105.276722640621,170.385762316623,82.7975076525369,146.640598700561,207.801656789671,12.6084145149348,111.248137947415,177.902594475869,-11.0379480311811,147.118806385201,194.055361308465,-46.8110768860102,79.6838566304684,153.931255150074,-189.167983769328,549.150177338854,-225.544500388209,206.84853850062,386.187474054432,-138.814007436739,136.693159287735,43.7430361886445,32.084886466288,96.1324331300736,85.1964466057588,77.9497919812092,135.456951727378,132.453201581784,130.669991852944,146.13821790523,146.258304518107,149.739481726073,127.272354751825,156.638159661466,147.294825229347,149.074886465075,137.613769903647,142.396189766363,149.514213786935,166.341619073026,144.632606862635,144.579434982189,150.396117536474,170.873329813809,133.442683010602,122.825776927,222.74619742526,120.358662143727,175.434987514905,215.78839875119,29.2009008648453,123.540956099957,11.8206680576849,-17.9772723899589,43.9171656805173,112.009794072167,15.6933040791363,46.4431736289158,70.4566138338686,80.4172982893513,83.9670566612356,80.8037508219637,137.365153302877,51.129155195097
99.5412674862547,155.059248887451,92.3584214554488,151.013969988151,192.804691038707,50.6101671251816,137.414959560916,179.345063214562,68.9390916379744,164.264818680989,174.404470642097,52.56560604137,125.803944465748,118.444504180751,162.90987779662,333.952187222629,-390.11134570278,245.815334818169,333.072061421293,-211.019833246449,61.043688163208,-66.9960179799376,-89.5969415790082,92.6243424796537,-1.56601608152905,10.6569903942592,63.4964102664132,47.1292003060533,80.0131006774292,68.8010420817127,72.2528990078361,91.410335921947,89.9671666251712,82.2944494586172,72.1820285436789,81.6381837532287,89.5508021527104,91.012107429838,87.9426425382062,93.3385619118354,88.3335263106032,86.0393696804983,86.722251134365,97.1960466097868,80.9721950682573,87.2755879859816,149.091468464575,86.8425580819837,135.50102412538,162.521471937365,21.1632811387464,110.851609121122,13.7865970483141,-0.592080636928821,56.3012164299552,86.5980316128788,17.423197004033,49.408517013825,55.1104780327805,106.103703979718,125.359665979364,86.1853797206924,160.717761505071,92.9540581569683
167.986927621652,209.941771208739,179.121501814433,220.260734731769,246.906524148106,162.995905457602,223.429086836554,238.750851575137,190.114988955389,220.445862207312,196.549580117557,217.657828217938,199.258591820469,137.752600221935,510.0790259143,217.697162835203,-204.969172224701,386.18872476401,416.530590579624,13.9233405937113,192.769127695545,29.585210382984,49.5899051025689,215.043953840065,121.073977950802,132.156851384706,114.803730140265,115.849027216395,152.290953348267,110.863864455744,119.72892053293,122.752737879312,124.274526991072,97.5337953640123,98.9283311505057,119.196747097481,124.944813693954,118.058711089355,107.821318065819,119.366202705197,119.848709746733,111.431014093016,112.063932725528,126.746452372576,109.57191062373,95.6254452542382,190.985161452651,106.425416148837,183.449154386147,201.400094698408,53.6509304282188,166.294335516239,47.9016381839872,59.5901578319791,117.110322619776,123.246517808322,70.7353614930833,121.619310440967,97.0579072399943,199.878189437393,239.954689598684,158.087142762913,247.629947234155,215.298300487732
135.425477309421,162.393181112488,157.077568345915,187.850416286445,198.85479704117,162.721439427997,196.694081230312,197.885196114082,185.964731256857,171.503165020507,148.361889092069,247.187597514671,172.750934790869,99.5340061964345,629.216902085866,199.02369519176,49.1965794144441,508.549504078193,441.965513305783,199.243896419876,374.690158325387,156.668472591168,236.627980526755,348.993644806418,254.51589343152,294.24046567717,180.612119713452,202.656263551165,248.44998169623,167.857182694367,192.220985431439,176.494826483038,177.634789036887,124.459728682981,145.15661151357,177.296032332204,169.703080315813,159.791707954771,136.951489298029,157.46721466581,162.988751446456,158.399078685879,143.0979009742,165.052816990265,149.80658352759,45.8145963652246,142.901264907472,54.788104543229,132.111848666309,96.6416110244292,17.9934605504091,90.3455468304891,10.9612336420499,38.6739514572839,62.4923716209916,-7.96059684430132,47.2024061237008,44.9494084606374,63.8359780830077,185.276181101483,203.216126201408,67.7476287752636,222.586411190407,201.879840546532
17.4558786566098,27.7980335384868,41.2604115594846,61.339835410841,55.2560113606471,66.4929328705059,74.6385218984434,62.0070051188289,87.9710021555336,43.6681064590054,28.3746036785605,174.7900282177,86.8948355660244,-1.10939623986237,569.016834800488,153.103775451045,216.964847713256,522.387108497104,355.433726442063,242.511752934596,464.210912468265,203.159421491275,335.343667184269,408.350024448009,285.343071545573,382.374672295054,195.572559071086,237.613109048101,302.017198041896,183.394813032741,229.541158588134,216.320667437864,217.302160769768,130.984053870237,166.935002740851,208.202820510539,195.776722058069,186.689617974934,144.236758859403,168.478210418979,183.479807146652,188.753693868,150.084417205631,174.476634783245,173.463472426701,-38.6300639265481,13.8048363322887,-34.2753145852976,9.65553375229875,-101.504053924305,-63.8534217171057,-76.4777417131979,-70.7047000287147,-40.0395803497899,-69.5217688430319,-244.248864825908,-40.5771444774503,-145.460663434505,-22.824956285103,65.7247539644378,34.646684141003,-139.383185048935,100.187769121057,66.5191645961996
-64.6103207779468,-63.2663894247359,-43.5056583496401,-35.1467552876522,-49.2067119101477,-9.09021420420738,-17.1327268847292,-43.401455622947,14.2619362387011,-42.0253154687217,-62.4970534627085,113.827170488764,43.0118499167954,-63.7424475550776,433.69184631761,102.828702945783,270.470589317613,427.796374954051,270.143154797926,229.014682502674,449.328318098571,192.916430175712,336.051470451402,387.502161606805,251.687509716668,366.907641009162,181.094758382785,228.941133484757,290.071455404433,169.592371845006,224.927117481161,223.738530985288,223.554939442045,127.917054909745,166.310072848815,203.138325085377,200.083511538536,188.782782424359,134.609860250556,160.740224196367,177.857133367404,191.014989403397,143.22888657735,165.136091028998,178.828359846674,-83.466639283997,-35.1859658097795,-62.4676741910101,-21.5610074777311,-159.14117861921,-99.7363688164791,-120.27482876643,-113.963720242648,-63.0325886828408,-93.4080385281331,-312.612502709011,-92.5022750995311,-209.284520527478,-73.4004933363235,-15.3329023782191,-43.7420287515734,-219.109371292998,8.54496549786492,-12.3545522573433
-96.3807593683236,-97.8755768248855,-78.3694114504074,-76.3400686074869,-94.5728199726064,-46.1554661644097,-61.0550173805893,-94.1462750410823,-20.0668664097882,-74.5488130918532,-99.5557245628927,69.3543570414226,37.5828143720186,-62.7351242073231,278.824869919591,138.786113447745,223.700371748614,307.707447465634,247.004444347985,227.274803645779,384.105093531054,168.089919746732,273.363637444054,318.07000091009,206.047464473754,269.857737138704,165.531813373674,182.273658400112,205.03816017002,138.151778500982,174.11518505268,174.133612111422,178.60774484324,106.605911352035,136.099159040193,153.500246458586,159.615609511622,145.063203764617,103.963033575483,125.663141454274,133.392620928187,147.642413004989,111.385600893653,125.345038456909,143.590714127241,-86.208840726307,25.605138400201,-36.1515205269059,56.9142540053821,-50.3030218433151,-73.469755623406,-6.46333171538149,-103.691545254979,-8.78853339792003,24.0222682205222,-176.108608890649,-74.2795355793724,-97.5097814606161,-74.4418234865466,-3.10285533265157,30.7219159514705,-132.598929264515,-17.1853785491909,5.36474916097399
-145.074780401238,-154.162298798823,-124.068279458733,-128.361684779982,-152.185018281465,-88.1504958139537,-112.223162504549,-150.941936937185,-56.0343226033174,-110.587252487301,-134.423787266794,12.7158829679478,25.0913096137151,-55.5804069778295,165.067642606148,202.692491044326,141.487497487361,237.72122692231,212.682834471649,245.535315881512,305.517128807932,132.09630830659,193.484719219984,222.736410025721,158.257009504162,143.910304289179,140.637830242323,104.940539064711,85.4169958181284,92.0920925680435,88.58425818561,84.3686826704692,103.866737500483,60.3555453308738,77.7987734321658,74.8738892684476,81.8714427197741,63.6586459926357,55.893727157203,60.6253801124822,61.640942641899,68.7445204336312,52.057078868771,55.1696273909384,65.4072505896135,-87.9674179725637,83.0219044391138,-25.0950849913408,119.305402049439,40.7164977187137,-46.2335615556909,88.7955652407394,-86.3647641146695,37.7014890301534,125.025112283919,-55.4594105607494,-39.4258834808026,3.78176760243506,-72.868493291753,26.0984530975031,107.114319481066,-59.5870373700084,-35.0491964859122,17.9536802338944
-235.513017318786,-258.797404329187,-195.299504664691,-214.81235906745,-236.264270399241,-135.986839001855,-172.667718177254,-221.89614439889,-85.7421810318322,-148.405704311922,-173.976669729271,-35.6216952237736,6.00367918834162,-64.2001105451205,99.5344311417757,122.568352097056,58.2206250766319,151.145212085175,52.6915940406536,210.873791984847,174.804734612792,66.5677078985526,98.2243470075711,97.0599878084728,91.1576322164905,17.1705836050345,79.4965011533121,8.21664072441193,-15.4979254639725,30.9631187578426,-4.00909868228139,-3.34468090580055,34.7251514764048,3.17645944497214,7.90963315909624,-3.2728160791813,5.44479206495122,-18.9188006613622,1.6421366511858,-13.4333414222399,-10.731604196077,-9.6447084077867,-13.9024635676195,-19.2744193976446,-19.4843906840837,-118.091847281091,43.5993163969683,-66.9231256389405,78.3120216771386,1.28207240471005,-70.1527519200281,52.0727834673795,-101.647206673379,18.1968923855903,106.841155652028,-63.6378576287474,-40.6770152560945,-3.64507767717073,-93.469530456477,18.2685041418267,103.415439799259,-71.9070408033891,-69.4555051824014,0.505039508943497
-334.576960589919,-382.53154220169,-257.741130208834,-301.929206778083,-328.318652618111,-165.266300769166,-213.934222942268,-278.303203171259,-88.63611376281,-166.103760213746,-197.168333361995,-60.7580168218537,-24.3980194628335,-80.4259919927627,15.6418472948421,-143.93735361075,-53.2654737166703,-66.9153667136166,-254.761378362826,41.1047086975289,-63.8987519500039,-48.0620378037707,-55.4853689618725,-70.6072571795633,-24.4256162366206,-131.834903370164,-33.0491876444379,-115.868627455336,-107.273312425757,-60.4299313189953,-102.341193082671,-91.1976053654979,-42.8064003242234,-66.8590663539433,-77.278821483925,-86.874314734322,-73.8640838403428,-97.4026914758841,-68.4310337987282,-95.745481202706,-92.3381128171667,-88.3334508691757,-88.1081556973262,-101.00371443011,-97.693043175788,-183.232948197722,-107.905149805073,-158.981523246647,-57.5903364018337,-136.650575085121,-136.939758067822,-73.5394226171167,-136.768804987324,-30.4919780408551,20.0437733332114,-127.339726479326,-57.5179907849016,-45.8276760131797,-104.033280225555,11.4756886421226,93.2694150494662,-78.9645809064411,-80.1844404203787,22.5942017904204
-401.112724325918,-483.319137717206,-289.256774052129,-357.585870598683,-414.258088537015,-179.906937463482,-234.727994354481,-311.775040285537,-89.0570239565937,-179.428045937168,-214.477527360807,-90.4799219845444,-92.4464374603997,-118.902049959108,-109.077751458452,-416.187758515458,-178.043276125438,-350.725241376724,-570.459324592158,-203.86979004039,-339.073045328847,-194.911599532252,-244.300025987189,-247.418979172652,-179.976041450718,-291.285967937126,-172.259459194426,-252.250838420009,-217.252712301816,-178.299463957015,-209.895364967173,-194.592713693014,-148.968914078781,-154.739800784116,-177.934550839579,-188.242574519864,-175.027840580592,-185.819930218458,-159.327711105299,-193.967803055731,-191.609088694486,-184.46075517849,-181.177644818933,-203.092947873792,-183.881182144381,-259.512203822869,-347.306496416505,-276.769271205727,-267.302714471441,-325.773754330205,-198.923184764516,-241.105915130101,-146.855300651772,-54.8875420871994,-82.3213117917715,-202.519097093785,-39.6703173978898,-87.9293750264914,-69.4728489970337,27.8938659536121,104.476828619391,-53.3905667694608,-63.117076134238,72.3467261282687
-423.126718928575,-511.37736865567,-297.080325657794,-365.88813782938,-434.269864877515,-199.509914467109,-243.366384087241,-306.66752330029,-120.748365295068,-196.870338842364,-216.996330529878,-150.434728513922,-185.039056617276,-175.081050879527,-225.625567547363,-517.705360307435,-228.199201629303,-519.327272704326,-707.669578032175,-355.403438831469,-491.748940333815,-294.358913865435,-359.792549439972,-353.800247087796,-297.171258151928,-375.913036161933,-271.475388760995,-329.723552161227,-298.856779955924,-265.371664035524,-280.998323054154,-272.183512690189,-235.611129373623,-221.841664482811,-248.77245876963,-266.785592435811,-254.144462826192,-252.843609961934,-229.992534358007,-269.415517648022,-263.149281695686,-258.702663610315,-256.275480781765,-284.572897966447,-254.275858457396,-309.791416097813,-623.839691893676,-384.035781611857,-532.807450982516,-531.178247501773,-224.125298592418,-441.76521159201,-114.278905004763,-66.5084098361622,-208.636046905985,-291.888837530815,1.04776743632886,-170.144015182453,-18.3610459606072,0.776834389278767,51.8311519210589,-70.0408247844148,-111.806685252367,43.2017451709167
-422.745215880041,-458.94754521596,-304.278897681477,-336.811568627998,-351.556070974844,-230.505524406718,-249.23457050965,-255.576440551619,-186.72019713886,-208.951498094508,-172.107601906761,-238.658142588466,-271.275017202662,-213.122792308388,-306.513127744129,-505.478552551486,-162.18525156197,-539.36072820087,-661.472366502059,-348.885800809655,-489.577125368455,-282.037855545131,-360.317373913333,-361.971899997736,-316.447993711882,-351.367276537778,-285.270751756956,-311.783706965802,-300.168366149705,-274.593332659347,-276.51864156416,-280.76887987722,-249.392812642264,-227.449828864721,-252.699496578451,-278.592744788052,-263.780836405365,-256.112380416075,-236.994451032946,-277.268435628898,-266.942630296452,-262.350249883231,-267.321295460052,-299.204358443985,-264.676650238949,-318.728471113632,-849.430132137417,-447.189154258808,-768.701697763957,-690.124116288345,-219.779096278465,-611.638988763955,-64.9336268405009,-100.565822463674,-337.510287548675,-346.931251787676,4.31842708889547,-272.932161052039,-13.7776648025914,-131.361043045609,-108.60634315406,-145.880971314848,-297.159068770927,-84.3722424399661
-413.195034586513,-383.509026723377,-320.466750352963,-306.129591060599,-241.261234427075,-267.195637287219,-269.59634860642,-202.365108912793,-268.38076840779,-225.515517409857,-105.307841390721,-338.056979509718,-358.079481480101,-229.970812563594,-354.642524682179,-544.947749219624,-56.0548658833715,-525.763582466015,-605.366745658501,-284.566972747324,-450.820775890483,-198.084734543067,-326.513614316098,-337.724417298012,-280.937219259785,-297.985238626441,-244.560626906686,-258.315489949982,-262.806214900208,-236.654812606285,-236.186056185329,-249.968939452698,-219.679193375994,-191.3895407973,-218.89136121783,-247.314260877639,-233.527777202136,-218.236412467446,-197.252568080847,-238.649954388224,-232.029938417228,-222.587094451409,-231.509888783519,-270.6134890966,-228.59043287804,-277.933246029291,-927.790539425308,-428.52945436698,-840.057827824035,-745.71923438572,-184.013598426953,-652.454278786754,-12.7388643536915,-122.990160548141,-397.217186805624,-332.718315523438,-24.2856031892874,-324.086540107466,-54.3631515256319,-294.275240662436,-286.175383906851,-201.062131140223,-495.383749752041,-178.716291786528
-364.503096292715,-316.874849289663,-312.982750364899,-280.437809402638,-179.247309770371,-283.4990133365,-293.96979024322,-183.571452429972,-326.719793568932,-252.746988262535,-82.1884818170124,-401.746365376561,-442.712867265234,-254.653258988725,-335.170737242797,-635.529892471642,10.4956315988207,-519.669828779934,-614.402060511354,-246.752408113541,-442.643557593115,-124.635502655881,-315.50541597374,-333.186097905523,-262.160003767953,-279.416085684578,-214.148636465378,-233.23490363784,-249.574944308157,-206.883577034318,-217.337477878251,-226.683186814113,-201.841423301728,-157.24272559333,-193.291712465431,-221.392414626984,-211.437930660074,-192.005347982972,-159.670062562227,-205.647443777776,-205.847545708096,-196.881112250288,-198.68703690093,-246.924397563407,-198.773017376578,-174.507826625862,-836.801420093905,-299.534063112523,-704.462007319557,-688.152807631237,-72.8660039031492,-545.649528143811,78.614657224473,-48.5890814791703,-342.792246365313,-280.031875249428,15.8224430668661,-293.075771974568,-49.8419661316055,-314.391916577316,-353.135201467385,-181.793343171425,-469.524624905004,-142.799867321642
-251.27191631982,-235.52802512589,-238.642856501779,-226.323115896368,-151.065254211127,-233.49545098553,-271.996249097481,-176.179624425027,-300.445543045231,-256.666589866848,-117.942916215318,-353.455804782318,-451.977578829997,-278.785065538447,-214.234492048821,-623.537769331457,49.3717610760388,-458.031534701723,-579.591516299498,-210.41968102288,-418.503576356359,-88.9358307155698,-296.033257965574,-330.782849270049,-273.741113319108,-275.597029515351,-227.512090951258,-236.135020214798,-258.960416904975,-201.67003442311,-225.900458722336,-217.002438267623,-203.776527776235,-139.76483768386,-185.364133826982,-215.817267516565,-205.11234214093,-191.892270707249,-146.51736341873,-194.899289997457,-198.074368718237,-197.089897560761,-187.17805138175,-238.62583165617,-195.801647303354,-36.0435157872952,-667.363542874834,-104.830082788986,-487.091656083668,-561.745762200646,123.97324673891,-379.049605962239,235.32576249675,133.103874458785,-205.525246929548,-205.658656090745,182.294330002118,-200.123969661113,59.757985530045,-123.276252073267,-303.366353808782,-125.832204733335,-169.629545595225,-78.5539479193795
-110.057220460833,-148.753935138126,-112.891594533902,-141.924448938573,-136.13724742219,-112.824356931695,-182.500181014084,-153.345413678375,-168.266049996779,-199.225442346416,-169.406440095636,-184.840168803776,-324.582110435953,-253.227674005853,-75.4830780097847,-469.842463734461,72.9833448051268,-360.465996557326,-449.855597344316,-174.59677898649,-367.652494571764,-86.3498553091252,-266.012385215264,-322.718905231987,-308.328505069706,-279.067526356083,-278.641607065334,-255.61471377663,-276.761452016329,-220.546129639962,-252.674632200978,-228.151249557787,-222.117803303066,-143.048812514643,-193.25203578243,-230.982261205834,-220.284800983293,-208.846546595368,-155.139735424713,-200.810451045938,-204.710731888131,-212.942789152329,-191.220279082275,-241.340717139293,-210.923987912439,86.2249507195459,-498.115496283925,75.6421226650056,-302.632623735721,-413.803435809961,345.183958432439,-206.768880490545,419.936854459566,346.1846097139,-22.2335794699582,-51.7881802592273,409.925770378909,-45.4188327692176,221.870831153728,164.991383511896,-211.17403812221,-64.6884719245147,204.700200734793,-117.720546197446
2.58794992835849,-91.3654894425543,-0.45420249204478,-63.6707779539725,-132.244801225074,11.6971443755245,-71.7401019950225,-115.683586393585,-3.01269617713074,-94.6593572080739,-182.925516227265,-9.82674070090469,-126.555004328409,-157.777751633747,-66.6177039569954,-331.034173790052,43.8067775429798,-348.860312300513,-344.784016569934,-208.295309235938,-355.373724286642,-114.31686511779,-281.356038224121,-338.9261386895,-364.697149989976,-316.471549954982,-332.480972162566,-295.668488385419,-313.921435207036,-258.098924591163,-295.391908023441,-274.409631583943,-259.774210965822,-168.629848266581,-217.303726172748,-264.177754117336,-262.503113679464,-235.755359841677,-177.056786105705,-220.559990747618,-225.694953548511,-241.094905946549,-205.233233292431,-254.247469305062,-235.489899903447,181.041793052898,-301.423468607649,224.711300009105,-95.0040207847697,-232.098623489173,522.96267035807,44.116545459592,569.507287679717,528.050848370053,214.77057853782,229.705636876245,604.869522947971,196.782286595469,362.158206289452,409.213875168149,-59.2966052594664,48.9427723307527,468.386947094422,-163.888536270243
81.9821116394308,-31.5460770007836,68.3480728348037,8.32126435550082,-88.6250565552077,87.6181077108542,21.7329022268623,-46.7696582041245,108.649462242762,16.1347595431314,-116.163852594716,75.97417375465,29.0201149444225,-18.3327366705149,-185.949648722711,-315.673347589837,-15.7582687325978,-433.265132158875,-345.415148653948,-293.601599578126,-384.80520241302,-145.491691940558,-328.822718469297,-373.897542315827,-404.996955033871,-361.361618112297,-338.600033856827,-325.026314795218,-345.339215950887,-276.27330124002,-316.578050258335,-309.940228016546,-273.27539524046,-183.806264821084,-227.34207258059,-279.22864294471,-281.08584841045,-240.016871981036,-185.27389921112,-228.590491634173,-232.178768711796,-248.938099784967,-206.227089323559,-251.394164398187,-238.693321594575,239.462830779014,-71.1068574556666,323.649476833464,168.71523326222,-8.45866441480358,596.147101396344,384.711923401833,630.524513558769,612.72333015282,421.35801370458,546.065713499367,689.5160728269,465.635267915564,452.605044709297,513.972165037534,168.753213231319,248.424170256038,571.553726947414,-54.2924353731606
153.080112420756,83.2727244516164,113.585334756802,99.2788884877533,37.9734136237015,129.827261140946,103.541370601448,66.3445112962531,155.882873676745,111.333986219364,26.6414339038916,100.938281433268,116.453813191983,120.652740711219,-275.169880523921,-343.75291245645,-12.1393919622116,-473.2905058821,-366.253804735883,-298.716036088275,-376.190785363869,-137.215471744322,-316.152483354456,-372.066495793058,-367.540311448553,-344.217318138632,-268.543838549751,-280.82012741315,-305.942377482142,-226.95637543266,-260.609722350733,-258.044009686133,-204.91089719331,-144.505165663578,-177.763731789388,-225.248973133063,-211.897544437341,-175.165890820721,-144.801509405217,-180.813799877579,-177.547034468792,-185.812173807805,-156.391253203599,-191.667571352616,-172.77860638267,244.315051012118,135.176948781257,332.93290779926,378.632904795006,218.124896296067,540.022823705939,659.87656778625,580.005401878929,535.308793928476,453.119635469914,747.285655363031,587.564513326354,619.023253365394,452.355108796116,382.985275616603,287.865186549695,446.979034082093,455.136306318606,50.5073343858399
218.756275134372,223.525967965893,151.422494713985,190.007038226258,185.715427163836,160.097837565456,163.057017908156,171.126970439454,166.047854180762,165.908099131974,159.014804978115,116.567385436491,157.463785311509,207.682170107684,-245.954454206588,-307.750787685361,79.3052738835866,-393.952754349393,-315.471922130162,-166.68604092513,-298.937526305389,-75.1723940519705,-213.179996826205,-301.228326724623,-240.094744994775,-245.045763090051,-139.198373052666,-150.305232909424,-182.609828447358,-112.191086292735,-130.490856859961,-123.478102731934,-77.6588084295446,-57.5076269170928,-70.7328195042752,-103.000196920548,-75.9187614688877,-49.3009060603357,-56.8993646236884,-73.4750273656193,-63.4011267086609,-59.7030504277777,-51.6525003546925,-74.7449459527677,-43.0335346172554,270.205629173637,326.894027990336,348.338111201703,513.096143670775,432.366881634474,461.471470882672,779.819269826097,483.379885730572,374.36252775039,385.152908150942,799.503164208229,336.37935980757,605.689578065519,323.677595788962,46.6087206614507,107.696488502503,483.44582810248,70.3712918825156,-191.586561166078
279.589751259771,323.427299964063,190.176914326179,247.273795767711,253.074404485162,186.070086444691,188.707921029166,206.839188223574,169.441128442221,164.74082039521,189.313082925204,137.508503698344,173.153517635118,229.885231455625,-138.737155176533,-181.093928544192,175.808948618589,-256.015387456548,-215.478858392833,10.7950783061138,-198.821496917244,15.188554128083,-88.5242815541022,-187.053057605454,-76.1017916736738,-109.920774030065,5.79442583398625,5.92731242069434,-34.3554635453417,15.5891147564428,11.3779521325041,16.262805449992,37.2559448009882,29.3092487850714,43.2278236478971,29.9230659118198,52.444482125676,78.0323191464464,38.8297292357935,43.8253179357854,57.8485612164384,67.3852925163232,67.2460765528891,54.3677569116924,86.9199664035004,406.833994925347,526.867031406441,492.225088202264,638.389203319968,587.008027645371,493.21261839551,771.158543145785,460.724521270538,282.36761071916,394.453323195606,701.463528044082,142.808108263693,483.70250798864,163.003085029196,-230.119088458253,-250.528434745025,309.888141803442,-373.506033839455,-684.858797179196
354.346600079912,368.283897312847,253.440999744503,282.9880652803,218.289955436119,235.71826798353,223.203811855233,193.829089183074,214.31094012027,159.066262610912,141.660762976754,197.352388611341,224.446181529185,253.049174598878,3.97241523351809,24.1574534169168,190.650043451903,-128.370668193904,-115.005750349798,119.930762492718,-116.584214051492,78.373813605585,-15.9436935183632,-71.6260487418364,58.8423697485757,2.42521681202167,123.171498988652,125.927889073135,83.7616442939876,110.778621365158,115.800790657398,116.335107186278,118.579639891825,86.7503044700232,126.990737943477,124.90591344215,142.186926131037,169.306938456884,107.892646834019,128.808104868994,149.848695365302,160.649691959368,160.062735307741,158.552795717187,178.491372367067,566.179993912605,658.02445355578,642.439907332876,676.068191950299,553.379010444918,593.175532628504,582.059247160003,532.853855583771,272.069885809476,392.12661461974,367.890766265611,169.614695827364,264.411944104526,172.370736632829,-203.301735477596,-491.231752446772,75.0788885294872,-472.00603313607,-894.860836878008
455.557926063788,400.352382899853,354.707667171071,335.760694701388,163.723974882792,323.660747095161,306.839739182704,208.343620429622,320.98031797525,224.27279633139,144.074605746296,306.747406110391,354.049741991494,354.548592788394,143.340766835762,228.404107172513,100.823455037447,-56.0278006638226,-41.1320131322891,104.845167721926,-83.1605620555708,48.59384584087,-26.6269760870465,14.431997342587,122.842070037131,58.8443802211681,177.156547339782,186.091153032558,152.521082553745,156.526088741803,171.35749320063,177.658064292104,177.287055543017,110.561114057192,170.507806156355,173.84175710591,199.029643079163,221.774462958955,137.46243764447,174.926109165294,207.349985606991,221.117160947918,209.716771032715,223.441381885997,238.003505360482,604.127183050651,669.599276605989,624.068062300872,554.117023863726,346.731840695673,638.603154449119,212.254479760953,586.760351817034,276.786462166,203.842692828674,-158.466392756859,318.452378419906,-60.8183890155619,372.596243493253,63.0071813187912,-477.712469827568,-51.6368433553058,-124.057244343353,-586.550687557621
572.190423679074,483.314840494196,461.434962210413,428.530782864563,208.643622357852,402.542895113119,408.134935534772,297.16709167398,424.601268834668,348.928008181289,278.575743973177,380.709370383791,473.806641471276,500.435837388335,197.50702442395,279.01778906686,-75.4384562952393,-94.6013113516507,-62.8644271554664,-53.0582661134438,-153.179045571684,-109.07680903098,-127.531881308575,30.3520859910936,88.4823971736114,42.5265646012468,143.59026781233,165.099786083691,156.767535314817,140.618004329887,166.551501027224,187.272926123869,192.801132921245,90.7706253068142,156.974873633933,173.882095982316,209.419610396651,226.535144582895,119.40032113329,173.788277404492,214.359792174127,235.377031135951,204.655348318249,231.857169266183,256.569835388444,548.436448412011,620.3410521456,519.985670083963,432.524934281468,214.387171717564,610.126536142858,-42.6273358238497,533.644010012069,277.769737074941,-29.5772382790469,-508.623127331455,361.074333188727,-315.749624907517,499.638031805926,310.150604769807,-281.805892061257,-34.4791798653792,289.567936233697,-65.3283809786336
650.666598201411,611.501712230955,505.488144118833,525.064689136566,360.91544016238,405.260173942099,454.610834666756,410.11928283377,434.637602933513,421.909189696125,451.435221434558,338.478008904511,445.01897703515,540.639169078871,130.233809132023,135.433924624796,-307.437138669433,-242.499176494688,-227.891702535234,-319.352027836571,-340.899788145892,-358.650802040453,-307.696372709923,-60.2275478544749,-50.217103521923,-65.2959553527872,26.3113945743839,39.72360017672,80.298796817711,52.2249051247452,82.047560944524,121.129894652942,131.478364972,15.0119089789109,71.0714570644044,108.050271316626,147.518343625162,166.117342924389,48.3449426940535,105.212610134892,147.305689631066,178.205214667166,134.280202908834,170.480563384912,203.132705398414,477.599650287764,545.810176267526,458.795710756919,430.890382203698,285.005258044571,535.60437610284,79.7325452277029,414.252928592127,260.894587749227,-50.4815249858375,-351.956444781814,263.360356346354,-269.75145367529,375.38207851472,386.354476587142,-67.3994670912179,30.4292403294968,418.915794518729,267.492828985446
611.00997541612,663.97709006875,443.757222169486,532.84502458864,462.690729893238,322.968087062355,407.318461885779,430.7226245905,347.599990664293,363.468107621803,475.060611556635,229.613925919768,280.253244574267,385.677702820914,20.2834442677505,-23.2976565699455,-535.039473873224,-382.625709099437,-406.617228213946,-573.460020328537,-547.255850254184,-597.27889972532,-504.654463868782,-217.911267648956,-232.190134047532,-245.380905949315,-130.363840015595,-154.210494601579,-57.4787652172016,-86.7153686160098,-64.3234698135689,-8.10906989454466,-1.66456907975959,-100.970147122059,-63.9988198315907,-20.3626053276979,17.6596902883211,41.2067844425849,-62.1632276833879,-20.7873168274979,16.9421570993991,51.0815596174742,12.8367173027228,53.4705049995847,76.8728751051273,348.115615906391,413.315105193091,362.102570608571,381.1139026125,352.025752134085,388.476814061411,317.769393964029,273.36524127814,208.322744741942,55.8189389916116,83.8610411428901,173.700188134714,-38.2388781009715,140.274131894746,328.546431518046,14.5519696507752,-1.52340038968192,315.76283240814,244.813162553223
442.072709141509,541.31026072077,303.206290335559,403.994695646427,378.532907993448,205.858819199375,288.80216408695,305.964029900417,232.226842474529,212.876231437815,291.621443294024,149.949387232978,121.457159676693,114.562209509595,-29.2929720034056,-18.165561371223,-647.974127576075,-363.254485149928,-389.633934569407,-649.103400507218,-609.469128068219,-693.973936033267,-573.807374042165,-328.67745295291,-327.788347113148,-388.143932968962,-239.42338682444,-302.532198679583,-184.130973211432,-199.479654218164,-195.00920138208,-138.706874506889,-151.247642533209,-195.261250133288,-180.819699165817,-152.617637978088,-125.246651139423,-110.587278212926,-164.078522010977,-140.650819803155,-119.347719228907,-99.3207271628286,-104.914535610387,-72.4242817718809,-70.2024472842552,117.085666458945,230.524765104272,141.753462462811,149.659979033659,203.848427897738,104.661436615246,235.158321811177,5.42207934558122,114.470506603648,34.2926849945804,296.127748597305,82.5893163149599,80.5515925400365,-83.4055357709558,205.118675437208,-30.6239888917024,-87.5734257476017,128.535242453906,66.4213439572339
237.846321026637,302.594404492491,147.164026168412,202.400203837481,167.267637609285,93.7938165973298,145.473842324005,104.585294703834,118.855303593964,47.4861416965699,28.9580932465444,91.6495669237638,23.4584497585881,-156.17583492389,-0.0539123959868566,109.413088685342,-552.794323588734,-138.667813900486,-177.95251468384,-450.349232824474,-421.669065199851,-559.359948772011,-395.445445615762,-306.595664367875,-254.322414326211,-360.284494500927,-219.70783925878,-308.719917187931,-219.625515094895,-208.616143611982,-229.857865928389,-198.299967455966,-246.37395972619,-203.955572273921,-214.010702545112,-207.666110749465,-206.148943471985,-219.874887793624,-196.234680390803,-186.313784341968,-192.96441490024,-201.039591086244,-160.921973163201,-147.950816636805,-167.765866651486,-150.627964140561,69.2933735744374,-140.357779289803,-113.934290351442,-1.37789542693718,-333.903133598323,-59.0121314636527,-493.182168519701,-67.2492349924381,-35.7835745286687,241.704979498638,-197.249361198692,126.720169276842,-409.664149810192,-3.50097826074737,-33.7137740398084,22.7962198467232,-163.084247227356,130.965768275811
89.9740858909508,87.8512682087571,14.7841431400644,29.7071147083312,-16.0883998320113,-12.4805833253925,11.6502714778059,-66.3930655968318,-5.97051767536326,-95.75654215774,-161.039590189239,-13.1868452969681,-69.2900663685147,-385.347391018086,52.8504906372168,203.536806212957,-307.414787439954,171.390016176497,20.968493183041,-82.3238822658894,-43.2226768483515,-261.373619937775,-60.6676331168667,-146.128157223877,-98.7263778619352,-158.966323100978,-103.066093133401,-208.007404607548,-150.162476523956,-138.781181301443,-174.46909532242,-168.37580418667,-253.956157168156,-147.236318330624,-173.461018163791,-173.195955497878,-202.206520312132,-242.497476819669,-158.27203901304,-164.62476053457,-190.110830778896,-220.442464426472,-159.691277577878,-161.278215819856,-192.038082001404,-379.957491795039,-28.2725133483848,-410.081080651571,-282.231253906171,52.8501336185633,-792.003873420823,-146.054234402212,-1036.9124963409,-382.439628461104,51.4078781823388,258.95365871193,-660.784464543731,295.543446236252,-866.896595558069,-332.014167275003,83.117748472772,349.997343556781,-544.673256419205,460.514670757705
-13.6999296754089,-56.9363120586506,-95.4337535011547,-92.0741566562076,-121.127321141383,-119.646376332475,-103.737450513592,-175.74133164784,-132.755121343956,-208.406784554096,-253.771179842019,-162.700205028937,-176.11602114782,-563.322046666067,70.1454736920792,161.76520629033,-118.614476400847,364.747714351256,77.3764342004727,180.51562913961,299.178115699778,-25.9879000862005,177.563604965671,92.5816982208018,-45.721910855567,55.1060080930918,-36.1710684327429,-142.319346310948,-53.4669891292821,-109.918190711349,-127.716686352026,-114.701908882162,-213.8414035928,-125.326262308731,-149.194386173074,-136.259073115937,-176.110630003312,-224.522426442035,-134.967975850076,-158.271261942976,-177.29887220994,-209.742838653166,-173.123490160492,-180.145445980562,-198.132585699393,-538.736603727966,-121.739562566766,-622.084134545624,-430.756064234567,270.818719945583,-1036.79146146223,-62.8748315558163,-1269.42546881225,-733.852622236573,128.799247173286,363.441098792303,-1031.27420805668,434.872375319055,-1195.59502921961,-727.844424516704,172.716378305564,537.442821055663,-843.557576833647,627.264384845111
-126.653871856359,-186.870423008149,-190.539440293965,-213.429872217764,-205.990539502137,-214.463534941111,-213.422625429775,-267.637942019647,-232.512235968102,-296.746611229652,-323.560189217625,-286.851591969543,-264.513642434826,-667.731398821246,25.0919964792238,-43.5445957700315,-97.6317700377513,338.74284180651,37.8578411976001,201.595423924146,419.796323247531,14.4052667297605,207.082922038376,295.873202657798,-140.797966620003,138.377182675589,-95.4189186960373,-190.119308863513,-25.3433440156804,-181.705334326463,-165.893464511922,-118.165677326246,-200.729930462598,-189.445296100794,-202.007663070297,-175.969128838815,-200.147441866582,-247.690609163179,-189.069979739559,-221.462868129653,-218.77392264231,-243.902980281926,-249.543060208149,-260.334752689456,-250.033559573529,-601.910640815518,-299.196372611551,-703.442043625938,-576.391186937939,211.837549093779,-984.970351490176,-141.904521930615,-1092.80957531516,-908.596058817932,-23.3780223941578,244.247947899781,-1092.20974359411,289.001332855801,-1133.99311189549,-1039.97803649219,105.277617321539,335.675112616245,-882.664140355563,440.00592003301
-227.143826429865,-310.311892635835,-253.977528612322,-344.98366458466,-283.907921727786,-268.375551476638,-319.829832831262,-355.233605873508,-292.036859065717,-363.721298054092,-400.150314705303,-337.492457774768,-317.95087794033,-663.191410130366,-74.7520569804647,-321.888885340446,-89.0978024137484,202.136075829195,2.97620617557874,178.537084769445,383.538680125573,-3.15642498049334,184.018090341661,371.372156935574,-216.78710521447,130.050946159994,-175.708137577013,-257.21152474779,-71.137565416859,-264.489745952453,-236.502327451069,-167.435402666047,-218.230685025489,-264.681514188629,-273.871948189408,-245.812701444209,-251.602384498928,-294.329021646012,-263.481955712201,-296.899309094448,-279.17520993057,-299.657538266682,-331.678758223961,-343.404232433856,-316.468177402197,-577.757156351315,-500.358300512633,-661.38943696524,-599.926870607545,-143.021138743244,-802.059108589718,-318.225459843112,-754.657060720502,-837.0803922304,-210.018079320991,-65.5082927363545,-884.636057439054,-7.53505723507623,-720.735524371238,-1074.59680693862,-33.6411995772007,-92.2259633116933,-617.853488253966,168.901461959064
-272.073869946109,-376.251985607344,-285.246180659089,-446.209487608574,-310.895651054544,-282.015115736962,-412.247451714218,-402.503747006165,-330.010989506366,-399.692358259499,-438.65316044046,-345.02529862842,-349.110551534852,-544.89090136754,-233.851808518562,-505.871744113035,79.5844123148127,120.18464970749,15.0025995348648,309.401138609107,362.157012737495,99.6957753190446,260.356004573027,321.39839484568,-138.288137281602,141.223313994844,-150.231265629122,-213.471515821125,-121.515876079857,-249.683789944848,-236.466089909064,-186.743004939746,-196.035353658473,-256.355203105225,-267.96704868021,-242.810095793262,-248.346732648061,-272.605918774047,-263.311784374302,-290.926296364884,-275.34450518939,-282.732413275143,-326.113714101741,-334.860022672451,-309.361077262265,-511.696705087276,-554.943753678031,-593.98489657025,-486.558222419212,-321.788872117965,-696.057042725737,-305.555678195699,-521.417134944695,-702.363863097623,-228.565750417111,-192.22490809231,-608.388277429224,-173.28369253674,-278.278557051797,-815.470186722136,-131.309271623767,-444.036986707918,-254.844377698052,12.0273701162044
-302.867013428989,-393.980332636293,-325.408808976199,-505.034579416934,-302.599407029069,-309.237427921354,-488.731170866088,-407.157584383448,-386.66252091851,-414.134066685032,-422.212799346368,-393.060091982292,-389.460119833442,-401.827117318208,-497.899642492581,-580.931496886314,275.058050311284,63.1706243248322,20.639853859068,436.845233433081,341.062832636637,268.742481538437,337.450411973747,184.238321862782,5.41776140025252,153.30015942831,-47.4414649220597,-90.3019014084427,-150.33466513735,-161.613336370111,-170.104571301938,-166.795654872521,-129.898636278496,-182.295221180044,-192.04963173612,-174.086964212294,-187.431570579941,-186.434549562942,-196.312415495734,-213.299476334346,-210.682026811733,-192.743767914105,-244.355334889902,-254.153203356235,-229.697420987667,-431.407211517965,-451.310257618509,-515.362079581614,-370.636490777193,-184.597259760257,-695.232005166498,-205.553198368784,-460.458794932609,-668.402266935032,-270.400637837304,-118.039279484096,-459.561265526031,-250.492336204099,-151.488903905607,-568.067293160424,-232.255155468077,-582.531552745504,-172.105697404518,-117.080081994164
-361.340103900737,-406.83295113233,-382.464869020384,-527.713771064632,-313.638702173086,-373.597425292617,-534.540205142194,-399.44243033822,-459.129202226202,-425.217816790752,-390.651958571264,-504.920429679987,-442.513983847005,-335.356659047224,-829.064726517653,-652.296849296881,243.418233609216,-96.4112053170944,-32.958928425612,335.817964880966,198.276067760989,339.262183770073,258.498885722142,-8.36122956718759,68.3557357198177,79.4963863956403,25.5827621950098,-13.6840079432852,-182.764066723226,-94.8907329703072,-122.423296928449,-160.273081914063,-101.772175841499,-123.072204998839,-130.98178866319,-133.322715411113,-147.155688377409,-132.812568146644,-140.931711065056,-152.568829255716,-161.836371067005,-131.805892253297,-178.180837484922,-196.928975210478,-167.723437133713,-362.560377054096,-338.50980311235,-396.250943047779,-331.516519549058,-76.094503265641,-685.706856202631,-291.81666777865,-499.112796746982,-665.28323911704,-478.453902222531,-183.909886538652,-512.94610840633,-398.448540226129,-383.877200378181,-594.497043972875,-349.918713212084,-548.014471134884,-461.920877912035,-250.543424427165
-379.183834023544,-378.419547589356,-379.998752567342,-484.150059601038,-320.264031572671,-388.122725809881,-503.647861725821,-368.047490302834,-463.524208570515,-401.888992409678,-359.660201455721,-564.63773286085,-435.351307547703,-298.039426424269,-1003.60225498796,-619.260738977837,29.6545662295256,-264.772381345155,-58.3116007288638,137.05646531101,9.64633299302542,310.366723105736,104.415114174112,-162.161032297506,79.9729167823895,-28.4282437652938,62.7051829130199,15.9833250714443,-188.472474921951,-51.7740916463209,-93.1964005152996,-148.603643711156,-108.681337464321,-76.1283371085483,-89.5551088208003,-117.978564390265,-128.393611318154,-113.324900996691,-99.2843433663851,-116.178389844947,-129.341489332442,-114.904872889984,-135.834579183642,-161.819943839908,-134.146671418864,-316.320653247835,-258.875695887492,-281.656288101102,-311.161134718462,-155.895981684853,-571.746558095548,-504.607391423803,-518.832400592636,-576.736483674193,-626.65216640379,-449.443802350262,-689.884665133127,-524.642859459909,-667.683565221806,-731.963217484891,-334.36567631332,-439.172570167664,-748.922295429965,-253.205739057122
-286.389529091295,-255.124155115149,-261.47570225459,-352.357076902266,-259.058157903432,-269.821593750112,-374.336302309962,-280.048812228465,-343.637061771418,-302.746095611075,-303.130103249381,-447.915739085155,-312.315059142776,-172.62537039078,-819.810920018707,-275.630114157124,-77.1715610927679,-206.542968266452,71.713712678347,119.484593056906,-13.563647389469,313.47069023032,89.3259255529489,-153.542357187697,167.3774955919,-13.6746171681428,142.910652950719,109.828689633051,-93.1703926044246,46.0657419222912,3.69946335897188,-51.7174934144644,-39.0654402883552,26.5531660496562,7.95315573615793,-30.3386965106164,-37.3012842853141,-26.6227986122951,-3.32157525942061,-23.1123943268186,-32.510983247315,-38.7554530735475,-38.3293666094129,-57.9259863313037,-40.5393732928877,-250.88060258053,-167.47139411883,-202.84903564347,-272.077279142684,-279.756517480105,-362.565744895195,-674.734326279241,-437.431807163197,-445.263007012277,-580.695196656212,-697.846170039844,-823.420775669087,-528.896046017266,-723.267085221152,-691.480140456787,-183.752811985311,-339.293924387053,-709.062961383073,-134.750129819811
-161.934224077249,-112.909180227379,-114.139288038825,-205.95079818279,-176.659624920987,-103.776467825813,-220.513623431225,-182.078110811545,-190.277414177596,-184.433443519259,-236.329002309052,-221.477816803904,-166.141767434704,5.05830138127762,-377.993303028796,216.052570743153,24.0220482203369,47.5037377334343,268.148944883674,259.807861923094,123.165916361198,362.594722864916,232.290804316198,-3.94701909348656,321.157320897584,142.436509731701,253.389163653214,266.997225902908,74.4207680814135,186.283397210986,157.644147192829,101.675421903337,103.949434666989,156.831813501888,145.226198129848,116.58763762581,111.058492202155,111.96088050866,125.892555939891,115.492378011566,110.676884907137,98.6549122042827,97.3590211512963,90.9766963113412,96.3047846581211,-176.217491194382,-131.932274577779,-159.701622692861,-297.599830453876,-407.581680708226,-171.111909230049,-824.998720549271,-293.702229740918,-361.104432390238,-549.084097468084,-881.655436810037,-768.94044031142,-555.281909375909,-603.005448714278,-507.027615222267,-193.403860869681,-350.24566548108,-462.63455460516,-163.001669526315
-147.920086000962,-99.0650225428789,-84.7340184226113,-167.819927843499,-198.7408710911,-51.2013886904232,-165.147486328918,-177.05299711866,-144.774711709578,-157.147516850129,-218.758645975487,-78.3111723084906,-140.264497189962,93.0025351061506,1.4643630739287,395.864498238688,119.814727186954,179.135658524921,271.541987831942,284.436144922391,166.773768939684,320.715094806608,310.906973985202,96.5131713067239,374.013219954928,258.668669093459,261.287099885273,333.701357887458,164.695430275611,231.311044774699,220.921655360771,154.667293491831,144.945452962202,186.636766413356,185.781526426984,165.701837273324,146.87534928284,134.573113533053,161.918114325296,155.825235444633,147.911224994333,132.587942259595,129.220358701547,120.525430667324,112.604622056142,-172.451322461575,-205.517877285637,-171.577038662183,-398.751635421916,-581.56361199181,-93.5050689590875,-920.095326603394,-180.127382400268,-316.677453843058,-637.584341185244,-1029.34970368424,-535.627630653449,-684.27628911727,-480.891190716318,-380.517552530169,-500.262543364777,-522.305067218396,-267.29230867729,-468.55440919162
-244.935632120954,-218.61237509138,-177.343530743528,-241.70851915881,-318.995047865652,-125.480559463835,-219.197145505522,-254.743917605445,-205.129731179726,-211.947873919023,-235.150813571738,-84.7605472802189,-211.933680559378,81.2597521177148,137.710819817712,155.733499796905,22.4466992622359,33.0574720292563,31.9021787230413,73.620504293209,-18.593748855226,126.40797119385,156.154887393797,20.6627675757385,217.393841126318,181.05040113755,96.5954534496474,214.212216220621,86.3729617347048,102.374302837524,106.632415519518,29.9561003125888,-7.19305495126734,68.1127049368344,61.7531548251056,37.6641331752754,-8.01308519308045,-29.9390203323543,49.132438080642,26.4168457847701,5.19984941834217,-25.7979676640604,-3.8078644337979,-37.677914122891,-60.0238667383684,-213.66483569218,-259.294279765439,-199.695926500901,-416.719429844192,-705.056847784371,-86.0052290503723,-832.753522502687,-86.9663437355589,-279.98905836261,-716.716327278476,-1063.3221557896,-287.167164527369,-807.700304397158,-329.301006595366,-331.260861467278,-840.010387872896,-706.709691799499,-152.16714081459,-801.897034305023
-322.071984096329,-322.072732795845,-254.534323747452,-297.853884524835,-381.531810158773,-202.351971328228,-257.687475619604,-280.9427995014,-246.83693604863,-226.359729347203,-192.886917899401,-132.460766033044,-230.312943033973,87.575452805543,139.801039418924,-94.4876186829843,-172.420749296439,-178.538239179633,-180.860544777808,-207.551367821614,-261.080650479285,-105.324926297531,-131.405049630198,-145.500426861238,-55.4990320214339,-32.997445999745,-142.889585349083,-8.37688793572686,-89.2502856917518,-108.386622013314,-93.7245360438318,-169.23856631947,-227.650834043495,-104.190329833345,-129.779658196266,-161.154396664039,-223.647693132028,-249.495360594521,-119.208548831475,-163.010410931025,-201.208592717093,-251.213684220786,-191.114806159623,-251.685286593328,-285.59695613585,-182.940004584766,-192.071352423923,-169.56888260717,-306.576595011409,-667.109662854645,-39.4587922593819,-669.060062461373,69.919478887117,-266.618413203019,-797.053240649806,-1020.69303340626,-133.749157940244,-902.358775213258,-32.5229325158844,-273.103601717686,-956.94677434711,-720.39084777304,-32.7826295627444,-886.407830932374
-295.145164587143,-303.062198294358,-223.466393263521,-244.79547742387,-294.724381792922,-195.250066718673,-195.579531179087,-187.286631963787,-199.226872250556,-137.528013070056,-57.3715600738547,-113.030020944836,-138.577708664124,170.080943970406,172.855604736841,-41.7871183100343,-270.908177215889,-217.279984653658,-164.355711541489,-357.146543360733,-337.842569669759,-235.483192363612,-321.851060602481,-252.82480634251,-256.97519684374,-205.480688575932,-302.529399232614,-179.663860729119,-227.824274230724,-248.801538966298,-230.784813128554,-297.307379602295,-352.177987059692,-211.128156437888,-245.543975794569,-281.257474165686,-339.632249921592,-365.43458996642,-216.829438602603,-266.212891406514,-312.808804945219,-368.385082969204,-290.450321423396,-355.05167577878,-396.002617174858,-49.7640924375301,-64.5573140036578,-63.404910182996,-193.630797088922,-456.855705349317,100.302404049794,-554.770858470314,296.195748560491,-207.636040714757,-867.070509310276,-919.465788314903,3.82016333437274,-877.189607674561,320.360612364856,-153.24073304706,-792.059553426709,-524.46222677689,106.330333255167,-693.043015847771
-142.001359112043,-137.88171795648,-79.0183770347377,-67.7202839068635,-77.7823494850915,-82.0089467473788,-36.5820250889026,2.22580814789868,-55.4362902262396,45.6631590435653,152.030868492538,13.7490603738053,36.5224704192875,330.367325412875,261.967138971654,182.091217645263,-219.338353971641,-91.6511590750416,-2.60931207387977,-332.427577108318,-224.62834587169,-222.294316305709,-302.53960548328,-235.80045182229,-275.357970114167,-213.622144163537,-302.89274215294,-194.531803572694,-229.964849577624,-233.711151506938,-217.982449500993,-274.040665218624,-307.564880668455,-192.079316541645,-210.969766827692,-245.190217998911,-287.804098228867,-304.041021809248,-181.027520815143,-218.697001192867,-255.957205443441,-298.008722798272,-230.516129388936,-274.578881558348,-312.524847708362,158.902261300206,134.881168023086,160.460434564336,8.32337858609959,-65.9330423893551,346.787455194756,-227.337807480109,524.926450374502,75.4928079368989,-531.669663977008,-456.993165984747,268.164289934548,-380.341205951853,558.505420479173,159.690715591645,-261.128615167935,-52.3290261707693,327.900800883745,-245.792481309295
148.225507267861,167.487386142027,160.242492319215,221.198543405242,226.642052931142,131.191771515946,206.19206786728,262.578074956024,183.511267913827,304.234524078497,416.000241020771,240.927710181271,289.704978867966,544.663897562712,356.084499929903,346.918921810541,-76.249617829959,74.4350920064264,170.36765940606,-211.142184000377,-28.9568784419236,-111.643957773973,-137.01703122846,-96.4090731776884,-140.763545233657,-67.5053656291807,-177.821738807562,-55.2957472321149,-75.5705464218565,-86.546376052662,-62.8110027143439,-100.94607418421,-109.036972096977,-64.9882263854416,-50.9534886890892,-64.3865995821628,-87.6702652917987,-79.5885153905686,-33.7727162934893,-41.7985186412189,-55.5718304570347,-72.2445428583655,-31.3723403246928,-41.9530382647508,-61.9403071340975,422.460767784888,520.226834422846,534.83243837325,541.140728620873,459.743697372679,645.843429893803,536.096783190238,696.291381813037,544.766598930202,395.557423713947,476.170631648069,622.331339418619,613.383317658537,673.903230016405,721.278383017066,602.352240461095,744.47786004031,734.568025440339,456.600318607715
485.636654205593,505.616099391176,420.473037538812,524.951099602712,521.798797472022,364.13150032857,469.248835656959,519.341436096918,437.270524001601,547.499824017768,642.534701302905,471.784752794209,543.020654073154,668.256040942486,396.512449048633,407.607905371294,76.6321402825925,197.10488872912,335.214674554861,-90.6779844157352,150.660729017691,7.85952416565403,40.494886484193,101.442896841162,23.6130022401599,116.430338423385,-32.827805227004,126.94120635794,139.218531314093,86.0103198147267,133.456260530882,125.236904043109,133.794072015298,82.5912699691054,130.715159679429,155.427608805101,152.28110974058,183.035575027721,129.602524982551,165.384826189449,172.943365059229,181.301371340878,193.920213545498,217.167996350569,216.176557851435,649.503745132053,1019.07957872697,887.306244194338,1245.1706801747,958.065551083517,840.898392691817,1381.30366391023,761.105202265019,855.651772680041,1330.36566742169,1376.75476752662,838.590066150558,1513.65578344825,705.404895027144,1235.87982879549,1418.18033427432,1590.14932606714,1202.37026624963,1239.28996296471
681.054235087043,695.231124854137,573.898175417463,688.578408913115,677.912620727158,497.543917440298,626.755192664711,649.896173044009,572.374884713738,647.685229107459,702.928000045387,578.671894413303,652.826066084029,556.949481683855,354.000426974727,434.721035142121,183.600269350605,251.02414415596,503.541714340495,-8.1612209741092,277.506900495352,89.835121590193,158.020041371442,265.54020427424,136.383930722901,242.065739260411,67.1613806105637,254.577436314818,297.199701053062,208.670923257337,274.220215841287,296.080470018705,303.658805428876,183.540428325269,255.379995293419,306.903590120606,321.97700466627,353.473379815666,233.212223275388,307.735231550478,323.858171661847,352.101238624894,343.207728992333,391.13864194991,392.661087401378,692.48290086542,1348.15112593396,933.874955632259,1577.39793808186,1296.56156487955,801.682723057184,1792.30070870188,682.052990713832,787.713959912925,1653.58316350528,1758.37935277361,770.469649799831,1847.82732118971,640.518636083051,1337.95350883282,1779.40906303458,2005.0393914223,1405.63455380091,1739.29381664904
627.017594759276,653.129502753018,542.328689344152,641.498251370458,644.624384968927,476.934406469383,604.346579238549,598.900084426775,538.512724580308,572.477958938653,565.847847795281,533.932129026763,588.670186154155,281.748887079771,280.180299118868,483.649472760642,247.880515486657,256.684368430267,631.544655201285,54.677760352333,351.987141811143,157.620681835069,215.453424611148,350.982782285507,205.335487417531,300.88477602472,139.472675930368,322.597146249576,376.242865158179,285.516127755098,349.651809987307,385.448511909316,385.292154967923,238.193980054221,324.070916063484,377.747917794978,406.762745513918,427.342041304739,281.084464959418,372.752286284998,393.470335748164,438.035399530045,409.156854630284,473.345237621359,469.121434599829,498.056121165298,1294.51177347212,611.501424535779,1291.21112875724,1382.56311908685,518.038460154721,1686.08671776511,436.084659305963,448.996916819433,1442.21353931026,1642.38191915923,458.424100297718,1674.35941728978,497.095851498259,1001.43672394976,1616.97035913912,1708.51791439052,1176.44802816531,1671.14484593413
387.969110012534,441.706125660564,351.282578438855,431.118795120833,450.427353208726,322.286067877763,424.383030172546,391.938968966422,369.174449446082,370.463558975039,276.469472363967,383.106778743207,421.332289166898,14.7863693579162,235.35603729586,512.693886985715,279.281091095581,232.525214309576,633.680350962085,86.3393307569934,350.441665987947,207.070584870671,198.706257748418,340.925399268419,233.094313568212,288.473137455297,197.588293672604,334.221970888852,387.538807472796,314.426244863877,367.526459836686,396.729432997332,397.426050024576,249.137999690828,340.142939429736,386.63948585198,421.355115473142,438.510155077538,288.305414335284,375.366295683848,403.319100029196,455.384013137028,407.445694404284,482.47740049434,481.397249234481,202.226736451197,905.488196813462,181.245673449868,717.323653044021,1105.81842733441,96.5191831472125,1282.85908702408,60.4556254798742,42.5285177577682,1027.54781963534,1229.44746361877,25.0251678859071,1178.06973211951,288.578552288623,479.983621585303,1158.95529907666,808.968787435902,692.70702785695,1108.98608017564
110.901242602284,188.599877184318,101.809732359842,169.954634679551,179.94973404889,104.046339915956,177.817500783322,116.933698951473,134.654414661431,115.395767533177,-68.1505118564271,176.623856488159,203.262234670376,-168.353893723974,203.160041068425,428.95250107162,243.074962896264,176.983967335693,485.289492832336,56.3496398923102,255.129642988973,176.718053453982,99.1631497192494,228.719911498869,192.600356232696,184.859942894741,207.594020301977,264.409652939497,313.84753077382,270.185797107405,309.213285163296,318.258887822016,321.245403523214,203.553448574116,282.253838668691,321.408524850436,348.828393397411,363.277116184496,240.002115962649,308.149167770827,334.662260137911,377.000446037635,328.439281318751,403.276279012352,407.999219294509,-16.5252435746112,423.735907000634,-89.9254512151366,279.587835175352,540.825402853509,-286.692392342141,743.129453125089,-321.798276118315,-300.73099699863,529.970916585353,650.519664448479,-379.458541235026,505.787245654466,-27.3234595791175,42.2033567090526,718.016668355383,-215.306003723698,254.808644638198,490.498012004592
-73.9498077506317,28.5286325823148,-77.0694556819024,-5.55052604311479,-0.876768191687596,-63.0670488018898,-4.02251143364233,-64.2529865491412,-51.2811737969182,-77.3364195289814,-277.319641443855,-3.95557340651082,-8.35614684090138,-256.472152925068,166.494128430614,235.433844595135,136.960550683194,119.484358266525,283.645471154917,5.26421555836879,133.45511626658,67.5963537600253,-8.37382172584537,81.4861654279813,108.885943534987,47.2810013138727,155.952197454443,145.673293845557,189.338208023998,181.334362807588,204.449847433001,195.045869987994,190.451086985361,130.297967699197,181.08349049463,209.552803775165,222.877180542564,225.063039362156,155.766718906453,200.037851433296,213.060301934273,235.455197314888,208.508624791269,271.098256694027,269.101794513539,-154.612521497933,61.5726395828523,-240.638724230956,40.8896989739693,44.8102539684479,-557.48190095567,162.170837867263,-624.704208579437,-539.652110170593,82.8304859804187,110.538522731367,-669.962772259661,-55.3357268311268,-442.642101921704,-208.700656195257,454.590252269317,-814.46518138388,-71.1576603330272,182.550232710841
-115.511798828336,15.363511459073,-123.034894122653,-36.6611123862729,6.83285207153749,-112.522870600722,-59.9763153166268,-67.6152251862792,-122.669248851758,-139.683726934923,-252.404535496415,-93.6190638320068,-147.906640458605,-261.899874026303,163.658338470919,58.2947403200693,52.337717960253,112.585776389729,157.888144361381,11.5146738774456,77.0109280158606,-18.6216390416166,-33.6262186019703,0.918519027674759,50.5880314919648,-25.3385746820948,83.3830939432042,61.8820527418013,108.628036754617,112.258181109292,131.740785229683,120.479056930927,102.843205793683,84.1257496271683,110.811835570973,131.800803913874,136.26134866189,128.579996502119,98.1620626721896,123.937194084412,128.325526941625,135.730832780948,131.693746531243,182.344040724389,162.626020065772,-277.585946450029,-101.655948077143,-394.464491717811,-114.600097826655,-65.2770601083315,-786.810583392466,-280.623180855474,-853.691707760422,-681.438774438758,-132.236485698819,-124.613498127197,-857.143829281239,-284.124415595354,-811.734677557914,-339.082490630956,279.455879564138,-899.83555313772,-436.005743966359,76.5509270465166
-78.1557259030661,50.6075390536984,-101.49225907731,-9.45871267097887,75.8754097128684,-103.064106483049,-65.3869699873166,-16.6042231883957,-135.562590780232,-142.63920697768,-163.350105446594,-121.457711143215,-204.655947450304,-240.806991927792,212.73458158343,39.2490517951971,75.0751448812436,165.08653196653,166.639504496991,80.5254950197504,84.3343875921165,-12.9093851042691,20.8732114683937,-4.52584922152614,39.7865884106002,-23.2535417337793,19.7202697270733,40.1027491191181,102.215763155776,77.9347934054755,114.313644995344,115.122837814681,87.3430924513075,73.8708663455489,92.1928593768978,118.913607605724,119.238941369876,114.386461777433,89.1486030650903,108.224284123003,118.222339554947,117.9224709542,125.934637546847,175.471182174047,137.071313618419,-332.111629788217,-46.6889874396479,-457.39026826454,-148.23626173219,176.374797129025,-966.587514970676,-344.981634317626,-1014.76589523579,-685.010995638864,-99.7643537290829,36.6491221349509,-889.098866593445,-245.793041229093,-961.971095961224,-377.381064505923,121.73031796301,-798.872329735069,-812.121313804738,-59.7064659842805
-47.886615382945,25.0088567928486,-82.1250134285806,-12.6814751126429,51.0673814290404,-95.1674413030295,-78.338319865851,-34.5191483974026,-128.425918691798,-148.63287264961,-182.046962708654,-114.520911850841,-179.070861554083,-215.672445875899,271.272449464924,210.910639933775,172.220980513051,230.561723644126,276.726388707148,146.095343258027,83.3174304089388,54.9342339426891,93.7122163270258,-6.21081287517221,52.6801898786839,-11.7197961291864,-47.3287091084961,41.3108386384415,110.653073081394,54.3240666011137,109.814294638443,125.509236237913,98.1687003408396,75.1200309976721,92.1005126595529,131.794927031123,130.716325883218,131.284258296999,99.7765958396307,122.395784953583,141.067709558845,138.875866624937,151.190846136892,207.748771585033,156.055678493217,-285.748662572956,111.392545802997,-356.174025474325,-50.8139802395048,432.791361497435,-969.869966795704,-39.071738199867,-1113.23341895616,-494.841357546254,85.8767177423474,369.127627841477,-676.357676096906,-83.4952937777774,-844.628837601298,-214.326449879473,133.590867210581,-616.458329666752,-856.820012838171,-43.7436669491343
-31.2887460803608,-29.6921346537118,-45.7125508861509,-22.4833389968031,-22.8986737346556,-58.3175395566248,-54.3664681414567,-63.7869885373558,-63.1682610979762,-109.153491701564,-226.797208504875,-47.8426983276009,-75.1743609989249,-148.154429602264,276.008935530026,392.112630929434,232.400441629047,229.689361052372,342.812626644801,147.038503590154,17.9767761076971,129.246753268412,128.077354314381,-49.3549616946391,58.2384270186639,-31.8488147377335,-119.926544388067,22.9230953768964,85.0505038610647,29.2775759809604,86.7521226186422,122.917348842966,110.294411095307,81.4015587217489,86.2266626660117,133.201309901103,142.283536629925,139.321893911388,108.363967385515,132.658102559893,154.302114090149,157.108829606183,170.667067493788,230.145624804823,173.899939905332,-254.027394879051,81.883319494064,-268.218190016276,-69.7829037400586,386.088760676813,-796.546048702508,212.402860111592,-1169.19339964097,-205.556953415933,224.933534833539,485.953433933822,-323.791324696818,59.5455149410849,-546.356808007878,150.993774761943,366.32748190401,-274.160077283627,-387.56299333459,307.745842612568
-28.1090550081591,-45.4577588359405,-0.713964018304847,-7.44446555989112,-28.3380305121654,0.0429258815504889,8.01176980961774,-22.2306316794122,21.34630705182,-11.4666036455144,-152.64890080035,30.6941234934599,11.0423962331594,-43.4867326163975,194.407152114482,292.602786715437,200.230971774469,93.3929929554641,180.841436855754,69.9318395411294,-124.310394266792,159.61153986636,84.0455411624794,-120.484489629349,6.84237183424129,-73.94752036939,-173.184747737338,-34.5473363634352,38.2739764534771,0.467342369847654,46.7048513968643,115.128734671188,121.216041485712,93.1750205562811,68.7236917135005,116.399099179269,145.549160875247,134.712113611273,110.439686599634,123.405707412734,146.489477836783,153.86283061039,171.945487043942,220.770602150214,168.100726214771,-307.663131387303,-186.76710839914,-308.872335857416,-288.799788299782,123.303971797122,-603.631110821546,141.064957361799,-1131.84409274716,-13.1098587299438,104.458710431532,327.239159289213,-67.0040642124488,59.0436417105794,-242.355063742026,466.543699884788,566.595950947907,43.3319910239512,226.400121521365,632.239859883203
-83.395024570569,-42.6904883353306,-16.5807666573545,3.50305841665598,46.3961542874771,1.26268128592764,36.7458217242184,66.5564945202576,27.3001519849873,68.0233432057017,29.9809849699432,36.1903436238366,-19.0149422243966,28.3822567060337,56.2103703581547,-141.172235191077,118.323066102204,-167.904327271859,-239.328567544613,-44.3404465325208,-334.62814242511,83.4251916226821,-39.6760559225057,-203.233756253299,-140.217143065767,-117.558215751691,-210.692855775574,-120.674323860906,-2.51623155331289,-38.471538082418,-1.5863558265756,97.0919474094306,114.900183684216,94.0539923298688,40.1699570057221,87.7216338931499,128.278234975518,122.257913327114,99.6219975439688,97.6286569063282,119.795618534529,128.971232568099,154.400927675253,183.331751464699,139.41416775752,-359.686655703629,-316.396285336248,-328.223184722139,-385.049241605786,30.7333404627013,-474.691239963594,24.0652528149834,-921.959217224751,28.7680762655569,-145.608015197991,210.912294486877,8.7245740125031,-26.2529204025847,-91.8073861267,487.59142672199,484.504774403195,143.793941216006,459.976240823401,476.60877756909
-201.668335810829,-82.2311690782495,-96.4138996986027,-16.1326707980203,121.107345107453,-54.8790082020831,13.4860169778228,136.972272330594,-33.3976025974471,81.5075360675009,195.906289183937,3.32879187547238,-116.324244332225,14.7229690937836,-89.4563664252091,-626.262605111635,43.4245811273606,-463.449218056058,-772.732550076363,-128.783486651273,-593.366235046866,-98.0791191602996,-198.210768268289,-351.820914199424,-336.071388611891,-177.226468577174,-270.379618690756,-206.050271548796,-56.2380412711451,-94.5861330779286,-58.1906560455803,41.9345816148865,68.4484879250848,66.4212518024007,0.510941070040253,42.9898845572633,78.8428728455588,96.1133149991898,66.9807401235672,60.3858411214569,72.0821141761181,88.9094497876787,117.755526944739,129.947300733959,97.5086024854626,-353.484985544123,-102.394674488323,-243.907932253098,-218.410905410956,160.44606817743,-389.229525378185,8.76264293803655,-603.901912603824,-7.41165679367911,-235.178973499935,139.359820850935,-28.3402307425782,-145.099747512464,-87.0838485796459,198.629223560189,83.2393819833056,94.3306167277177,214.378828687513,-130.777762864726
-330.450254076744,-213.142354948592,-184.559202274891,-90.8090718727181,81.175579714083,-101.608277988509,-48.5866310851658,109.902643945402,-97.466585816548,17.3987408117913,204.02303257386,1.06458731529511,-193.259564575189,-91.6108494295589,-214.62482393722,-874.711113015617,22.2855669697511,-661.829533540422,-1226.66420834445,-115.318299139818,-802.571962956039,-234.382533605472,-306.60019169977,-593.314025160248,-450.055887471067,-260.440371489839,-332.326548030763,-249.992417104439,-143.35227975296,-146.596896047364,-110.560167156202,-47.4387832596026,-8.48436821909869,22.9673026029475,-40.3035985520506,-16.630068211344,8.12920414006193,45.9761255662124,22.0665478520893,14.1659687571532,9.64683640961439,34.6359346666492,64.4566136393358,70.5071727603708,46.721444481939,-358.576460242511,143.943002437304,-222.716969124436,-99.5365999949733,171.394771074282,-376.508781487437,-186.830393640163,-368.492428974175,-150.750687231584,-244.351423627725,-200.4887983502,-136.17114214027,-381.4040686493,-80.5580803278777,-238.158755706791,-461.671517232177,-13.0766231007425,-184.41891382792,-780.834976303978
-439.446316164205,-451.182666022844,-269.578070025579,-253.057435492602,-136.610069986024,-142.65958660772,-176.411261297209,-71.3655246080397,-185.825669323613,-139.147917876787,5.1576702040411,-21.71015283734,-262.82352502083,-250.791162229848,-266.458952770162,-857.870910775905,125.900013685144,-652.201622875559,-1413.13961286513,26.0771091013764,-789.573405353352,-161.823640628168,-287.204524487158,-750.309334913873,-392.106359253968,-294.57385551488,-299.949827849077,-208.19356054184,-198.192283517419,-134.835744584469,-111.537452960404,-101.703251951746,-47.4715779180209,8.74676910360813,-42.487723436784,-44.2269305869589,-30.5353936062999,5.82588050942923,5.54941665389156,-7.77579571470182,-23.449821059011,-3.05088051299934,23.5782725264584,32.3295989319484,9.81924353053794,-388.207638419965,124.687531822913,-341.726801624654,-231.953816290327,-13.5508899614593,-437.385406233353,-551.648354704775,-285.62747576178,-428.794722332692,-431.232638305941,-637.552614305009,-270.709895563059,-654.763568402997,38.2524215376118,-594.014165036449,-871.838472102253,-156.202149790932,-370.554354719294,-1111.42901725543
-513.858562998863,-695.213947072658,-349.892071829763,-442.479546344807,-413.623460937002,-216.979428013565,-342.558727219521,-311.319405900369,-320.625604345668,-328.143939978436,-246.800779276815,-147.524025548891,-345.201866475716,-348.722042008609,-222.076069312848,-745.296788498073,345.134829435996,-526.120088561692,-1273.57651018678,189.858082380839,-561.212262039635,73.3659675748987,-194.864633727015,-638.157404707733,-215.883761754257,-215.981474477073,-134.426957221844,-83.7527442762298,-141.018720639965,-33.3095046738848,-32.8379106932706,-59.3064430423908,8.78030529089491,52.5124861158153,22.2599315217436,7.28125550165776,10.6881322168612,34.2142180261511,45.641141863633,33.0576028430583,14.7522226887833,25.1635528734189,35.2992499348454,47.8574279372539,22.9502754645489,-305.4951616629,-64.3126055266727,-381.382990983679,-417.605102862897,-146.071861162097,-368.295661764515,-673.440143276764,-149.672618893,-571.251726957271,-672.438821593002,-730.808394668259,-240.693797174916,-770.180011001534,288.338597102993,-653.854062659067,-1019.67245173136,-360.94072417732,-223.125014010923,-1147.98661661296
-520.361119514004,-769.188824570075,-383.873011085179,-523.618360581528,-542.222319973847,-295.610448381672,-444.329464314116,-431.538766066543,-442.067806679482,-437.955834763474,-342.896553229879,-337.838556625514,-402.459971656207,-282.513711293135,-205.048305543646,-713.910696672739,486.121412468783,-573.365943766434,-1030.24399540091,171.217554426067,-424.423639019768,264.477645075278,-200.80873372584,-411.457255112608,-50.6216177477435,-105.22116925101,71.6133901082058,48.8619565645021,-20.2503859408539,93.6798347618023,72.7924356759049,36.0837354515623,108.486543871833,122.37392678373,113.262853346758,97.1498455312006,89.8994740155905,109.036227337265,108.323188824641,104.205465997782,89.3331472746893,95.794325786174,87.0099859207966,97.3076027862809,71.0640357983353,-32.3133351573826,-218.832362418236,-148.590162505014,-412.875615064384,-230.355746821253,32.5587287291895,-490.135241778381,281.910952179303,-257.809961494402,-641.229043331578,-617.441231026439,146.61189468305,-768.752724167506,647.693375709489,-339.469035019274,-957.485384132645,-786.699094960447,138.012178285534,-1177.44293531834
-480.820080736725,-668.962375071218,-372.784160265552,-497.284568877848,-513.727278929902,-334.204639280791,-466.656816900751,-440.089385067232,-499.036047594837,-471.112630170539,-310.838320628909,-462.135767922534,-424.511189531191,-118.440314612145,-319.964614436789,-770.915958190979,332.523313812925,-858.606465648701,-1003.83462909404,-116.327882805883,-595.465731076818,259.787174487428,-384.941831268179,-349.181183634452,6.48864212801074,-107.286544235934,189.037722122634,90.9078170097752,31.8377762719677,144.589218263706,109.22047167572,72.7665613983205,134.892732806437,145.868793433778,145.71497733578,120.237412883277,100.124752703153,121.651068155142,121.913077934385,116.510502163921,106.903903749613,105.785652552007,100.759212347729,98.4236397211716,70.8724961084651,276.158368791233,-299.113454484238,206.558873722908,-239.438606317151,-468.057854393116,599.275889185483,-360.894428314258,874.11126531574,341.259847709348,-397.941396415208,-712.007429592695,733.38154796679,-828.239380562167,999.755727426671,138.896447053479,-796.381510665232,-1488.85703551339,478.541097077254,-1319.65303202884
-464.755357587214,-569.041626425942,-369.433327704299,-483.533596794813,-486.011268038746,-339.02111687619,-472.046840488189,-474.601084790138,-478.816756534406,-491.405447585627,-309.484005052231,-434.688454051566,-407.91916176777,-4.73568753490641,-422.062294644542,-745.174204548427,-92.9225645526477,-1039.44045982383,-1226.07402059406,-557.911860858894,-861.575495574131,32.6396193371135,-652.149886915686,-420.503984113558,-74.4884574448269,-243.257231390861,177.788716852828,3.43774152280174,-32.5078527052608,80.4923967110136,35.6174925790153,0.915562637265506,47.5110101069842,81.6902327529948,73.8028956897666,25.897063489624,-0.632348725021297,11.3951153704042,49.455159074151,26.7304363856488,17.4182387558077,-1.51197770513757,20.0664953986789,-5.01030035873267,-37.2823342035273,397.222537827677,-340.178538169767,380.907240380781,-80.0592845179885,-726.526003320827,914.105962525236,-392.562669139911,1174.08811383077,735.203233100742,-259.492856718454,-897.303615279601,1077.42058213666,-908.116283007113,1092.79389499878,430.856710153793,-669.443308618673,-1953.56704751059,563.687238413094,-1388.71881121369
-442.558970080985,-496.862272911552,-349.51563078551,-452.914759903803,-460.036959396196,-299.978309893347,-417.216694723861,-478.473666238377,-349.962765829053,-435.153553263956,-297.836156730589,-276.69313672479,-288.399999710277,63.1690336350374,-301.366996629853,-510.842007793417,-527.315700790541,-817.611858856062,-1364.8740000567,-950.605196958301,-858.986167167534,-339.377712763555,-825.754109664839,-404.390728818994,-205.410161183053,-369.766805274968,120.672355959786,-115.469157977597,-121.932651191086,-22.5649743150195,-76.797297970312,-108.372221985011,-76.8618258840741,-28.5307268301992,-48.558024349649,-113.910655072926,-133.258511561196,-148.970773931322,-67.3338034103845,-104.914101865214,-122.407240968569,-156.01855529693,-109.417161104042,-158.391557441593,-198.18288379933,287.519270153358,-389.125565018867,274.716003082308,-87.2917502720988,-736.613094586726,778.962926280766,-400.762400425432,959.667277254437,712.992996941701,-304.965936301846,-802.823388512282,929.914026765143,-817.503387366646,737.174405642477,422.021889125517,-611.272450214068,-1521.56197272293,313.246567046905,-1148.55046822841
-316.144307375149,-291.586586165047,-226.550509884355,-254.074933260323,-281.508398997527,-171.205270839634,-200.480272374712,-265.37007888738,-109.073441122111,-193.574239280385,-111.31666367261,-54.6267414212327,-37.8360487954207,206.371865607272,12.9907212984352,-130.438145078763,-731.607575487094,-275.173291005678,-1052.24188991679,-1093.61543227625,-467.038370538096,-682.566534840973,-741.371004082086,-187.892599739437,-201.083012437568,-302.34502691117,129.989349111885,-98.1899820540213,-99.2304096856587,-39.174339020856,-99.6717596703502,-131.007650297282,-126.767555328636,-98.0642455946924,-105.043029779877,-169.31557384054,-181.695319088302,-225.671554393627,-140.883290880116,-170.006840346842,-194.374359371954,-232.937515711326,-181.324806628758,-243.14894606737,-283.594019272493,72.3145707735165,-555.316673281464,20.7170985135457,-337.746014609129,-648.675836516015,399.814244219597,-447.099587724994,490.686029769307,414.644553996779,-452.248182364244,-555.413479615863,443.254330698471,-576.617257528056,68.5028821182145,206.975321727241,-541.830175397884,-447.936792934077,-162.660673996133,-629.208773314619
-102.749226872498,75.7902527267096,-7.99093332804166,98.6619235063908,59.3328076209505,30.0798294398501,137.732983139249,134.772059928951,169.82720401642,181.899337304865,232.577141002239,187.177002040266,271.555225437098,447.346882004011,326.81023999615,285.529201802181,-694.690843212268,356.631413624248,-229.068229408189,-887.306035247755,163.815915807748,-814.443374495633,-370.791616443585,234.566247730144,20.3070930999084,-1.51335471661111,223.881572984845,88.1007967297294,74.097472168995,62.1831057113903,12.5584403405863,-17.0763988404052,-47.8430796926403,-85.9945983055176,-44.0562295711943,-88.6932227072342,-102.057773416166,-154.782727130482,-124.3432652578,-119.573418283479,-134.943630813649,-170.072448009877,-141.782079914047,-193.585893960843,-222.02276894265,-84.5387775007929,-830.393360808434,-174.61482675948,-712.430980195702,-777.35865023921,161.281571799452,-710.569796544908,189.174897318607,87.7310815396731,-662.911916018979,-577.311146188994,-14.5310333570251,-419.263341406263,-453.676201449162,-149.833017476912,-451.180152050208,325.591941153886,-648.028017957723,-108.777853219561
60.2566440974217,413.699385359616,180.469078745331,403.4660988336,373.014279708491,198.210105938552,422.348580815389,473.744832441056,387.110324962986,500.678503399454,533.013706925398,390.569238449753,537.743049500808,670.775528761978,498.826415319169,694.549874469056,-592.892004534486,929.296804706159,845.489027174145,-477.885433152065,723.368199158005,-725.052630409366,81.1657345829987,720.581515791146,295.557947161523,332.439915283148,306.868441548826,280.254904793494,260.313244063972,170.253537962824,152.703192125681,136.626346991622,97.4656878492054,-39.7227654296014,51.4696766896437,34.9883919613687,30.001860886828,-10.8688846865442,-64.4140073589291,-20.9441103656555,-15.8580739332807,-29.6832804770508,-51.8342013532976,-66.7427235426009,-80.1029870567176,-80.5028946632056,-980.500134125595,-179.373110029959,-888.015748826481,-1054.00800918848,244.082430070019,-1022.13389720404,236.325102592225,-51.0534448492965,-844.456933766301,-946.188834913872,-139.299782459007,-506.777925201805,-415.546453900525,-479.631092188674,-411.31542185973,396.560580348152,-837.987078072299,177.272899670355
63.2508124224386,522.464599012692,208.000753352206,486.563419827648,472.12268087799,221.56276647266,500.016933134208,555.352549791385,453.012558900582,602.727463697318,618.634055167314,446.967457366785,653.389699116932,740.742702062652,471.667545706817,998.638363699431,-612.766298212563,1281.93529277112,1840.91330386472,-164.003835253407,939.038799083778,-614.302384178854,355.575176010431,970.643517920518,380.924614626347,451.426947976935,257.185200591481,305.611936993956,278.922106272289,148.664362828982,169.625295293096,169.522292494026,146.428955841085,-48.7676557772528,52.6155490455208,51.8042044814504,63.9398168184406,37.6842153415548,-59.4563924050277,-3.36223745388247,9.43513157405523,24.1759004644655,-40.8075823295164,-18.6948711695286,-24.6485363116893,16.7939681671511,-896.065376430662,-76.0002416021766,-733.663640888905,-1209.39302532359,442.704906162495,-1070.08218113193,480.337968269874,33.97922979244,-822.033342941032,-1334.92307703825,100.347544392137,-697.803306591892,124.105618773738,-453.732234084312,-366.257350373545,120.813604170255,-537.36130560321,206.593330765784
-91.2961967424317,335.565374448594,41.2338430254439,316.252074720217,292.771791990987,65.2356860324663,335.032696274293,357.892674109806,322.43929700827,460.457710340479,446.020170992156,298.047489891978,540.468004852025,594.889558549614,263.019362836565,1049.69961362489,-788.890036801935,1266.81313336294,2458.42816420492,-46.4575872404862,872.135334694427,-614.577799038693,427.433157800435,852.632308881533,231.828165991557,344.459722768219,43.3982168473501,141.642822723881,103.945359048623,-35.3064043028112,7.76825115450155,2.59938128697578,-37.265778885504,-162.932751750188,-95.819030785859,-109.059388399084,-109.702112819699,-144.753979978217,-171.215357585727,-145.296547577046,-155.770248647664,-151.255327488077,-196.064282371387,-177.588337312196,-194.770976470355,34.6075044254612,-770.404919931335,-49.0789852797218,-487.37690057184,-1160.2387093465,496.020788599472,-773.662635343721,684.175893100246,231.436115890421,-469.236092826253,-1283.12341236904,524.318329698841,-557.248412518683,708.907924917502,9.0780238463055,-127.952496426563,-56.2656166495044,35.7740062392479,135.70083233555
-314.68713574199,-63.0667654847021,-222.332781340482,-8.43517014468601,-90.1532424293926,-184.397448565495,35.9250024026819,3.75380557924137,72.2970728382052,182.202358610412,103.027354130849,32.843565292989,270.075812404806,293.564446835614,-18.2552512590085,938.175404282797,-971.129430154722,1023.3388766784,2483.05605989206,75.4093903802716,850.65395646444,-581.81306428914,468.314351657374,582.129482321437,24.8025326821192,201.870356126935,-229.616003918867,-119.264403306332,-149.207811883602,-302.310981961006,-271.829164325236,-308.69520327237,-418.772867469426,-352.88828998577,-351.069489450727,-395.379649717527,-455.152778603608,-532.002151584318,-374.956267680001,-411.011161841467,-467.194566893533,-526.922275422553,-485.940523596971,-512.361520610417,-568.436419261719,-51.292605308664,-765.515420941168,-79.225446882439,-344.176641339428,-947.484833222716,463.889387512837,-236.857657083847,773.771599340653,492.473879976461,135.319055879827,-604.993293981147,954.239310105358,98.9058125659672,1010.7847267644,577.826526068986,304.452242833857,48.0899254869518,463.99775932632,118.973518741539
-517.924522542974,-464.755324265004,-438.934481408439,-319.052810562097,-474.683934599658,-386.584922273401,-218.633352798011,-310.788130876541,-141.761758218168,-66.6233796695304,-213.501617093992,-210.49714372004,32.7058000885594,-8.05605556316331,-255.881047095435,946.175824208484,-997.130184889149,902.731502057931,2029.26266801848,354.067473793332,1002.99544468784,-365.991241176944,573.837277465709,444.632367469486,-67.6577868591334,164.054373893224,-408.938408722326,-335.714220917344,-338.042480283595,-515.451554318623,-517.991986687976,-590.362712211982,-767.266893312155,-525.440893099069,-584.85556290303,-654.908995533901,-773.838139707903,-895.272829976047,-564.802879325989,-659.266388510319,-752.485968082195,-876.798002476425,-759.368612609666,-829.639017083156,-925.670149080393,-88.2816290150631,-833.867937497894,11.2033934973766,-241.462213924793,-659.395165370968,532.380858989268,325.140802491041,766.763474426783,785.036877792138,688.100788719586,276.391736489961,1228.54723938586,810.219096726407,1058.91811527082,905.265712539394,650.851003956722,376.575725866508,603.82311536948,149.823752438593
-660.861731881525,-677.779859781493,-550.549102563401,-493.466830668392,-661.515978056853,-485.576737768287,-336.715687215483,-451.323620210366,-240.132511363555,-194.589016521317,-348.171446668815,-367.426133211703,-74.1203724585348,-203.332527313569,-382.065890872482,1073.94842372926,-867.305246980931,997.698879892433,1496.13866027628,634.105056639766,1143.51787105179,-102.52503799778,666.094609321964,507.075217348743,-31.1920171772401,212.774057137343,-426.603472407403,-381.105140921257,-370.864995638109,-559.718240823023,-575.855834648478,-659.381900649766,-839.876579128513,-577.863556825878,-647.391005176717,-723.121193493627,-849.566822620988,-974.712524668602,-620.766904834426,-732.367817461929,-827.985430844722,-959.919149916849,-844.645602059192,-923.651405852593,-1013.20665228435,1.68064628296423,-893.393619908012,226.470454136865,-129.505249914078,-457.495511551327,690.743860469367,641.744630248519,663.535197522716,998.916680335331,936.656693099071,759.80076966391,1249.31562563073,1090.27507511562,1005.79005246082,978.675446013397,745.845913860336,708.855414216508,605.668279990026,188.723300548104
-708.827454172633,-680.711466604366,-570.107041318154,-520.193227179182,-617.228813165721,-500.749087160893,-342.908032610297,-433.639204739354,-242.622280415165,-220.591674519457,-329.007843778789,-404.567282635152,-106.536925221852,-307.522647814332,-336.84480211735,1031.44034417916,-649.912435528237,1058.86360929808,1126.90871167039,693.80845058071,1132.63157038908,25.8973933631549,637.550242224715,621.251552949688,51.5117841194673,240.399196825523,-315.301128670011,-263.967323780532,-275.101321491618,-429.574553778745,-436.729262100612,-499.786039030131,-619.087299965277,-472.519403512618,-505.983201977798,-566.868468961714,-652.904581463694,-733.402913435806,-506.859666685005,-590.934860850783,-654.780643905321,-738.16393971713,-694.66805992601,-748.164410008137,-782.747055645968,131.829796041321,-890.275489680953,389.40865814574,-41.8433412882852,-388.633113766702,819.216138219948,663.776331226908,556.152973913205,1109.11151703117,985.878392695413,802.444170216814,1172.92766066082,1087.24029271183,943.749904691309,1025.12125883511,801.003612853868,844.804951496487,629.973279275264,334.681594414405
-588.321392412959,-535.321586698764,-464.724464782826,-411.097192883311,-415.669267182347,-406.813749673876,-254.864478903554,-315.310529116923,-166.34553708308,-168.321956473653,-244.376876115707,-286.55797522358,-105.326264847845,-336.336488133945,-115.585935842145,787.897096068543,-321.402109863358,955.725883957875,917.098303088954,577.384293198661,1030.65082209177,107.163721339165,531.269736322426,633.053851424753,161.575322582503,211.743195055705,-107.948710392242,-88.4786290151507,-133.965019870378,-197.519825121711,-209.394034592564,-235.540709915725,-271.42839089444,-248.225616881035,-252.188688007042,-285.386561332169,-317.953864347965,-335.605058845211,-276.104205141378,-317.698218043679,-336.876306409049,-354.547742862738,-396.731161931564,-409.137942066993,-383.263096852213,214.688366550298,-725.589736457508,410.346664635872,95.0381255528773,-314.773677986166,855.063268113297,672.150887088573,592.893036527501,1197.86901309661,1206.05795581418,865.177323742104,1217.74546044767,1270.9763643829,872.8465964711,1150.82735832547,1088.22969556519,877.574754250491,705.537587397606,698.250909896059
-256.228004540136,-240.07955613123,-184.895273731119,-148.897380269229,-98.4406422416105,-162.919548031714,-53.7451757729396,-91.0033587992688,-5.83234682691845,-19.8389640440003,-81.9311618850611,-48.2985205196633,-16.7613165602944,-241.027073431599,178.564758588256,661.068865411461,154.650778224667,894.305861143084,880.169193455248,527.396604855686,950.637049011657,336.385067162431,543.805847935604,582.786449007733,380.163904356307,258.944464910979,206.830794816824,131.274199549575,59.1060549155346,97.9224706921177,58.3931031514729,62.5935099449059,87.7106628241408,41.7865973485789,43.9023030462978,39.1786087387085,47.7387752636662,77.2676937094237,11.3286501004411,7.10201357822703,23.128705056114,54.7317087006486,-47.7299441184493,-21.274642211324,41.5620496212836,242.320511308058,-319.332695650928,355.398826741955,399.655022835677,-141.2574342642,788.446354222014,943.396904881345,736.540682737279,1265.57297456697,1755.58397242632,1270.75956519407,1323.78133174697,1771.85795293799,756.388687981163,1242.67627022969,1543.4303455204,1115.04230902837,803.716201330669,1228.45781360042
162.878666791862,145.556872097136,175.84805842605,181.186671508891,254.827240908527,147.619723852806,194.083546684576,190.453649975074,185.159883445473,172.412565756027,147.051812185768,182.853572232084,149.484416491485,-55.5815535184653,416.638229217235,754.495831242524,665.46442002961,1010.99639899277,1008.63567023664,657.646965851592,940.430992628602,684.950912988682,765.614264934153,615.745966214035,711.847037322392,488.562413191836,585.058503341624,419.156118391316,343.571699010696,420.136498743148,361.189133441619,381.248100809891,423.386558482381,334.336160941892,346.255635756678,363.761686162038,391.013073934034,434.344841460957,297.051364743103,323.607840196799,359.167421135338,414.197590172244,282.036600666074,335.437824516613,411.520427382514,232.770829107883,225.556754859512,329.858173365649,798.874207619958,99.9384651787744,682.058455718463,1380.33748006734,793.556908733007,1244.40709913398,2257.11453860801,1815.16832096522,1296.97250527172,2178.79411925448,631.009437288193,1206.03378464648,1810.48417262757,1509.14988401546,865.437611917872,1648.43409222251
429.053904663301,422.039676323824,405.482295581106,382.472510248707,482.79764694318,346.75662253129,341.03452320667,373.070255616505,294.725332548622,272.84116865205,305.353709078724,286.98157686858,251.260798942042,76.4951810504993,509.068178017305,787.786470138273,989.004650018385,1076.12164453534,1135.18368795961,834.309593928511,948.535328255517,929.044378802548,1006.23941600787,745.277280471757,984.494047601483,762.120026686172,872.196134151468,663.827177285695,638.622543610725,657.127184407211,611.794664501322,653.584291141619,676.305740595323,534.095203981865,569.071826335107,609.882411767628,643.436337638672,671.352844388417,498.353188968802,549.046952981848,596.988235188609,662.311170382127,515.051500682469,584.018396942188,659.493130289204,216.479874775407,639.192034693545,368.680529795923,1041.64752972835,325.497745301248,592.695321285549,1537.88773216257,651.973731731638,1058.76026853999,2094.1360949735,1960.04304100355,1019.04638359287,1931.57133307936,479.56735690197,976.764924360907,1536.68705877412,1552.72308549492,680.697335896466,1532.48256310132
490.219786046689,508.166931245729,435.882024309868,406.142805862616,530.987200812631,377.228820357508,357.674772523128,401.670792898735,298.652188780511,257.146000500285,327.551949903056,283.146479475095,236.514860781142,130.817400811404,439.12219830751,626.35944834858,1015.03155199114,875.644119742199,1159.2256319689,911.163231879356,924.997942741051,947.537954886107,1057.36284306599,881.240585359328,1045.88394963997,869.75160384336,954.164221233141,727.320621351531,805.02796488302,724.00079721952,714.534011756931,806.065630479696,808.306209406331,586.574095389547,643.67752285418,716.727473026794,767.986562825258,777.961199927657,567.715325196269,641.140412487932,700.199750075594,782.316824356949,613.66199014832,691.08895052617,769.680751990621,173.002624329877,757.393588960335,340.014509782214,976.529135585473,407.153094282695,369.600993112084,1096.52482569954,302.394432734846,598.880838740101,1048.44950948019,1438.2452311515,437.196281493788,914.858484026412,123.68512929539,424.783566252544,572.097453260828,1058.00152177152,84.723261584249,728.495725342484
561.13972878026,538.097673463919,432.995432408506,412.043641125085,497.563034014541,369.272192985297,366.190322757475,388.341970924993,306.366252717114,251.179771285352,308.095157046913,303.655328229963,244.189529221938,235.489286789359,301.106256921959,509.070084817906,849.115936304718,582.028351886662,1176.81341605996,915.090495650169,929.021521874443,824.582339686902,968.245517377257,982.411108108609,936.122720205992,804.828727297997,881.077939916001,625.133990806832,799.673922061595,659.573761793137,674.644480732455,827.690533305626,844.256446907757,531.200041870646,600.783887825397,702.092302880965,786.843203261562,803.405844365365,533.239818595892,628.538946804054,695.231623483863,805.113480091801,605.87799443428,687.299936098798,783.773476258202,26.1699450787848,667.404442962748,85.9194721210837,679.020144392748,264.996365754772,-137.404256100096,288.586472389078,-207.758072922115,-43.4754582295476,-340.493472015943,582.916463170326,-278.960484626039,-351.513103663838,-471.2082039226,-358.093852330264,-868.864766415072,424.031322770856,-621.31439964447,-384.610568967403
782.216000622502,604.018890206209,554.208831402335,502.454584398329,457.811922113185,451.512380760177,445.021434101659,416.818574184492,402.976085924623,332.083517447605,329.395518684223,409.090699045483,369.085883105488,428.281255227541,204.951816918551,608.181250841141,663.81941480373,470.49429445553,1219.9682775814,918.045394452209,1006.51449540099,698.369945243089,890.704130191771,1028.73734878813,795.324454692131,703.742303391802,780.709714670997,484.359178147835,687.053558521774,561.323208511401,568.55558918886,744.156959328975,801.7792298102,454.105448450948,517.833853787729,623.006081451648,730.168943671601,770.646816504898,464.430322566724,563.072838680787,630.146747521569,756.832010025218,547.105322347545,626.878915436801,738.851866381609,-114.819438559949,546.052912136001,-238.82068409669,312.493240768072,-0.0482814739658117,-650.333229599066,-409.157521509964,-673.372302729404,-481.168277817436,-1147.54385611311,-160.300161790661,-732.008056901289,-1147.05513320822,-1030.55353890159,-897.443110653819,-2071.58682839903,-72.1352971017225,-902.060255674002,-1270.74898621568
1071.01987654472,713.923874982543,797.604697237876,660.13715909303,483.081717174882,644.348029305664,595.056142685006,519.849644537956,579.232949745475,494.885683538711,449.913251346083,556.658008443215,559.553081166416,637.629443247126,179.406976964698,781.505491763803,566.035405948767,548.248173350058,1187.99323321328,934.653385558478,1090.69669975915,676.954223958041,888.802425538051,998.279330011691,756.138499519731,677.747221037198,766.173278876274,454.708173696027,591.700825925743,536.182344268011,516.217736061053,643.494534947429,727.886030253085,453.460975047685,490.424136720622,575.852541452685,672.135347669323,725.238027178402,456.132386281584,538.014426436672,596.804145919976,709.868224128178,533.886747473943,604.730437385442,709.117067189997,19.6417041141292,556.995822718417,-260.431812118208,92.4961486787631,-143.25909366019,-691.241143963123,-853.324431712836,-771.599573379546,-516.898619016348,-1066.1650285815,-762.613221160241,-734.753045433084,-1250.00604781176,-1245.24760064563,-868.105845708772,-2275.46002476433,-370.229316897461,-653.108898584671,-1541.38077616664
1364.24176575072,949.471896393168,1110.39245969935,909.735257238859,707.69306271309,925.8183949876,839.674479955987,769.541066902009,812.442523297804,755.835058613764,755.037615736996,738.066425526453,776.221786107065,856.623524641974,264.51319990877,887.294599976586,627.429467506235,675.797997092236,1094.16409905901,1017.6782546821,1136.82352298958,837.480452726333,992.510888795078,946.705445027652,910.017649941787,785.478227219482,908.517524988804,635.611228096539,636.734152695982,669.329065451849,630.708846580437,666.814723546693,745.266997907282,592.39778206376,609.247894683406,669.497224219571,734.835585093281,786.692584186668,579.53276408685,655.57671001966,702.403584239187,788.803819473306,664.223516018062,727.766791828912,812.424174305618,407.98941852641,818.595256547542,104.713779806611,245.22139291808,93.3865182165832,-228.859370839679,-1079.82850230823,-397.547407445151,-366.729705071804,-759.688931595612,-1262.85490061619,-498.035780187821,-1092.35902119129,-1005.3325980164,-608.770465821189,-1605.91952415978,-181.487815261019,-263.213411771919,-1054.13568583686
1640.2804386441,1295.07098998276,1404.56026123881,1216.73385808093,1075.87180029694,1199.99055409393,1122.2450928153,1104.25662613082,1033.8605393586,1047.89376703745,1133.76421744201,938.495682538689,984.747089553219,1054.32968445797,513.15243446739,972.701010060619,839.57838763371,791.132127645406,1035.91829841663,1209.76623813992,1166.43609269462,1127.90374538219,1162.37684029877,935.397736984568,1186.11954318217,969.259061176934,1139.55511033898,932.338033903664,794.992162716549,896.358565661631,852.823918584417,815.671032118405,864.82955287978,788.778631489194,816.21713300753,858.239518609217,899.181996791985,948.935352257076,764.215376532096,856.021444667729,892.960718631462,964.576189534457,871.991397237317,936.861154812822,1009.77708197021,679.936487968842,1192.34881969366,508.245942064688,643.916729900808,705.625474070575,268.286151128453,-976.822775554264,119.054213930615,-263.525028906687,-842.209804633824,-1408.15583189659,-290.574137095476,-1091.12994072572,-470.751534162803,-642.649880684733,-981.879387145017,424.707529211848,-121.414314655361,-275.014894302768
1737.31857362674,1474.65939257482,1496.6336455099,1353.68749064801,1244.57139223433,1272.57746014065,1225.29051570846,1239.70691739291,1084.19505927025,1149.3915654366,1236.8880365088,1021.39211553602,1043.02881215808,1044.80756087714,792.19778710554,1024.27203999623,1020.43104737035,827.964248083453,923.035710596121,1335.85351195313,1100.96125087384,1332.38219440605,1169.51793768862,874.651721840578,1309.36698950254,1004.72140214533,1235.88704924657,1060.89140678367,850.79161656365,989.992242453606,933.773931927898,871.460634954919,875.064792687827,843.471402426705,886.760446475046,912.831059996576,938.080866776989,976.213477301413,816.419332216697,909.633026520078,934.660432475093,991.782300959667,927.503540206109,984.387236976224,1047.41049092442,611.794417896591,1305.87804299372,605.278917214709,799.643928759743,1195.03874441187,452.03592490638,-619.103815383394,367.621758090991,-221.458807014235,-1108.80309464204,-1170.66264041739,-157.790790896503,-1164.29650243474,12.1393860373554,-824.86229158396,-851.912157024184,672.886116830909,-223.310997990009,27.3250213332212
1499.48335217969,1282.52625551773,1268.58180054806,1153.58919405369,1007.04995498646,1050.95586226076,1007.26076014151,1001.26597505295,876.659065382008,926.92963942147,912.129061077092,869.080464612348,830.114438452979,711.325253250205,821.454534748357,838.848653237189,978.065203099263,618.233624225842,553.597973836933,1108.01520101789,748.343044652321,1275.72138963045,770.998876613362,610.945942190916,1051.33341806044,705.462673747566,1039.83874174954,828.528026094189,632.984803934217,800.484243264222,709.6957123866,652.498743985958,608.313222338895,665.318801764096,685.47673697738,684.589778809228,687.095312644636,698.717981555768,635.112358521377,687.91243091829,692.022061512315,711.98922571686,705.76476370705,728.118697336089,766.06925539912,337.490893966973,1018.21028579393,394.420488977187,498.954515371524,1050.33073337669,398.220613010771,-435.331612289857,315.032756838042,-196.825275340322,-1195.13591889127,-1022.21931783798,-51.4591679427901,-1167.01626047012,223.986956421385,-632.301379245282,-866.768689493516,283.14003498741,-214.474616860603,-145.239386906936
1029.1546222272,866.150977495229,832.510466126731,736.86724315132,566.998790856157,669.169258303145,591.624065020115,551.51041094227,518.561802011209,510.573826907117,418.494124711789,546.378599005925,415.838773097937,210.01246523912,525.314916265631,282.795023625188,748.794647391358,89.6793997133673,-56.1561266568557,520.725990139934,81.0928576005567,973.666647893866,42.7832216346104,150.107133399158,477.549099129818,148.039837145638,622.397946189502,331.066359635924,206.130220437055,418.739925427595,282.736816955549,235.856812105667,174.220372595594,365.821648323406,319.617449659675,281.703959674928,254.548642121526,247.509553873725,323.941151769036,316.004959727201,291.620904904507,262.74904945978,331.895433234375,309.489500673311,310.333006275594,55.8946734422137,597.124186253081,27.6642170784917,-1.45890996933543,483.374479406026,197.696891647429,-618.391770271789,129.593071845133,-258.925307854019,-1207.57173297801,-1193.98628619301,-51.26456580509,-1225.2392179162,241.574477958794,-103.870904288179,-782.810969949829,-108.891632310229,167.976612502331,-134.432490493863
583.999845376782,497.714212158491,403.066245936539,341.019089444338,235.272592735248,318.707084820154,198.538980559487,159.756189203755,175.553971026558,121.74250883743,59.2208634077192,199.726982161664,-19.8864362548213,-229.170995785136,139.587857274872,-476.546662562548,531.181557510824,-539.677217300188,-708.687972990012,-95.8056539515031,-617.204052015653,523.44521821892,-645.958500564859,-362.723967766353,-153.731830658199,-425.818840852102,154.638078559262,-182.864448220051,-241.950992111432,34.9367261309249,-137.961352343558,-178.148290517008,-217.586483400494,91.8406564572431,-23.552338743488,-93.0204628757414,-144.445386219253,-146.286342157344,42.5161279490613,-16.3988078843571,-67.7416935349739,-129.015754455373,-3.18261821935831,-56.3269558807257,-85.9539813379472,-153.762170335827,349.411424266177,-360.855552908189,-390.074196589206,131.928202978352,-199.703524826928,-800.611435244496,-141.224102029367,-521.399681106,-1240.67656958525,-1271.58207225668,-278.83265427047,-1277.29458242429,218.563288888618,255.852207239863,-664.327237991677,-191.258573989101,753.948127888515,219.975221233831
290.17157290412,251.157773347248,82.3252075779519,60.9397401698914,64.3106637491184,63.2090717678898,-97.566965065248,-98.3518522930538,-100.890928833139,-169.422531169837,-173.731208678469,-90.337316613324,-377.020016794432,-569.763379779761,-105.650657961933,-1115.73880924058,451.038831922638,-965.670198596606,-1360.55442108991,-464.208208161592,-1058.41163784254,16.86852983777,-1035.5030164147,-843.416944656603,-661.213387066011,-864.870512313279,-279.825484854893,-553.578341882003,-604.538268049108,-261.865038827527,-452.483667225771,-502.713285546263,-517.355011978176,-118.564120941279,-272.026821659853,-365.971332848014,-439.471675656348,-428.884321591488,-159.023489931205,-262.240128579582,-332.918831424503,-410.787528266779,-250.622352650094,-320.321600098006,-365.945460634835,-265.198580958372,297.801452513654,-589.563343087675,-518.797071143618,182.084847642675,-641.257507571654,-639.135419986532,-443.502643159432,-921.368968012978,-1066.8284560007,-933.908381792968,-696.812433888935,-1049.38535283038,137.75806915873,204.866265000777,-472.92228918578,-421.355373115996,1069.47586994126,480.785113941474
65.5490851247274,7.58775215829242,-168.342327082741,-181.810719345978,-117.576735105268,-147.549386476407,-361.30649456007,-339.423760063064,-351.365161790806,-443.565784165036,-473.089546764349,-315.466190920847,-673.128817133643,-901.594647629036,-213.793681403816,-1446.92407402435,458.142749949889,-1126.16850559651,-1995.34215733815,-603.42317574915,-1242.78277560392,-421.175530475629,-1185.84143661217,-1241.66234283533,-1029.462301541,-1168.17827041576,-687.740935923421,-791.235127967602,-879.166451581485,-498.735388863896,-681.995480728367,-766.728412106405,-783.453429346082,-294.970852023641,-465.324085108229,-585.32187222872,-686.466371768478,-679.276083519654,-320.42292892684,-469.679255816417,-557.519968549758,-658.27288830334,-462.824226499342,-548.902778984317,-606.722303924704,-324.096057819842,207.044062212087,-643.015084533752,-505.244657108174,330.011293891282,-899.076523004536,-316.653649765571,-666.058355394006,-1237.08201672147,-673.474259488434,-415.673134309747,-1134.73711499618,-631.810953142255,-113.070144315193,-123.992399977341,-226.670353127144,-1000.25952725325,805.704954689441,415.500039834841
-189.167151849512,-294.955016938918,-402.451120465851,-448.663732817625,-397.236565907675,-357.373807505947,-607.214603358766,-620.533065323379,-575.973818034067,-719.564870851281,-853.732720178635,-508.34603720653,-904.113648484717,-1182.3645403619,-287.866547315769,-1455.9856276774,416.576186920826,-1149.41273448819,-2265.26529055064,-667.787664030833,-1270.41132009782,-671.588882607563,-1214.51661648142,-1388.45494747614,-1279.70878391116,-1321.63035953761,-1033.70023588435,-952.282656757997,-1038.20388268448,-690.743498229461,-837.430677828187,-949.993700958909,-982.675809866192,-433.539172860477,-620.85524495794,-755.848162604419,-876.657436147554,-884.32945979361,-450.78767841566,-629.111061293884,-733.102032956837,-861.839275723344,-629.675232977163,-735.314356153484,-810.430996921865,-450.705956549154,-77.4184006370928,-773.817708213123,-611.999424308422,385.564101243814,-1078.50584974234,-93.3576846754174,-849.864456142997,-1387.05263422576,-386.708014247027,93.3445147102641,-1473.70831336729,-304.951958642668,-536.801264564077,-519.555057644942,-158.588642545795,-1364.70216707645,122.535688613518,143.753484118153
-433.945665999859,-541.520688598824,-600.313645888177,-653.584564212177,-636.559152125402,-542.94186368423,-746.341074233362,-818.256288308672,-720.016799472124,-878.408648731748,-1106.51014737165,-714.83048544408,-992.695105482553,-1247.25745883752,-354.504777602027,-1229.61233707547,281.88954419642,-1089.1065636949,-1968.26910419676,-672.797307452742,-1134.66522297098,-693.7506925676,-1065.04199026036,-1190.96006802167,-1341.69387991747,-1248.82568999849,-1183.53414488585,-991.897446168306,-1017.20660680069,-764.726257861343,-858.919611949232,-965.571346003018,-1006.07284404111,-476.662526208704,-671.674441978293,-794.430154827978,-910.148278723158,-922.986877032979,-489.451628821183,-662.978971168936,-766.813763016633,-907.009826841034,-663.059130268223,-779.141152934191,-868.667347412747,-658.5622275669,-348.787915383132,-1034.11108557278,-769.262797696353,393.903883440964,-1353.10075192472,103.001600134003,-1084.5891982092,-1465.52072989125,-341.541795396709,624.048067048337,-1689.71560163488,-108.957069524595,-1025.66608464951,-833.949301648522,-397.83366514999,-1209.21531465945,-616.86781580581,-330.086363579773
-573.736425333176,-616.019532429923,-701.040280444511,-702.702798222637,-697.299384453981,-654.592905230781,-737.792238135112,-827.02417810202,-766.552762982347,-848.198363154623,-1106.93048268918,-916.538829353005,-924.492355633191,-1085.52028988543,-389.824935703629,-989.868140293954,141.785612631737,-921.435525905075,-1570.77383780037,-487.591843192287,-855.018237383901,-526.657976999694,-693.469493849573,-868.409948318957,-1131.12645109638,-996.059830651546,-1059.93428212033,-839.186543892595,-872.184655870453,-670.061880166068,-729.919294926923,-834.074105215422,-859.94461379325,-405.902107935026,-580.015977110045,-680.750890713503,-777.453211291069,-780.131273340347,-410.988055401085,-560.78287507395,-643.815030688897,-774.880002279587,-550.135491961186,-660.449673822549,-752.185479996306,-799.093529777655,-394.112109908426,-1131.14269829012,-716.082049946921,297.499167281828,-1521.79006462264,237.731777296307,-1238.14852998434,-1432.22084473821,-398.186382907687,838.254669403689,-1694.46759997861,-72.8684838816213,-1451.09564325671,-971.565567397238,-709.058960902191,-1126.1985522941,-1239.9372923979,-1032.41288159621
-564.509327877201,-542.739691590651,-657.977538155415,-619.401803143178,-613.194455407765,-656.657181024627,-630.725811927118,-693.364428927514,-728.73172383096,-689.093725750138,-923.600775250358,-989.604177276315,-776.273100928123,-859.871934915428,-420.609007261159,-956.315123420869,53.7048254697289,-711.70630877509,-1483.13022496734,-145.48810756166,-566.879621126604,-296.82688061829,-264.028113629579,-679.822678472955,-747.906367211483,-742.815045098394,-808.266917658694,-570.238624440919,-749.031768279318,-507.628113123196,-553.528631217583,-696.361795866989,-675.850762086819,-313.940478353533,-437.931212197639,-525.822387496891,-605.406705876757,-593.021876128412,-304.938413901958,-427.947777359962,-486.657522221161,-597.227261611616,-407.947792571157,-502.012156692451,-583.833360514656,-778.370544792824,-376.331661050633,-940.398681649814,-523.099803385835,44.4377941429174,-1339.63669728857,125.035144206638,-1143.25638768845,-1147.09240221056,-406.37125312847,436.952071126382,-1408.94215625066,-202.353541321562,-1680.89202681812,-891.867309396642,-664.258372024523,-1331.9578717422,-1659.06902406505,-1510.91444208505
-385.495544163399,-382.969860282019,-461.745013381037,-444.3333747882,-446.276128772653,-539.250621285726,-453.548117507675,-486.032634569071,-592.484211357258,-467.510873953461,-636.630642064328,-842.125575971334,-593.196570795436,-665.406324756063,-518.612021172545,-1078.15583645949,-66.6175556479752,-558.424777648002,-1468.99183365944,32.7202628574551,-415.975902935598,-187.106328707394,-1.28002749532211,-633.282475284137,-443.162053399862,-562.033407790523,-662.101957100795,-346.591445767282,-658.768571374418,-426.873772703988,-426.21501919662,-600.323387359519,-520.951769359691,-314.012958995143,-361.870758595153,-424.932476264452,-471.831367546891,-448.999148465995,-278.211543314822,-355.734160687707,-388.207908129571,-463.940300240516,-332.396644951865,-399.623890556117,-455.486948529213,-680.746900711687,-396.896975059245,-663.150852407218,-323.175811916051,-73.8391269650676,-991.415157605443,49.1765956413166,-885.698984328658,-702.872665004327,-209.116709201199,33.1365037009194,-968.445854420152,-161.39496603077,-1564.12742821139,-588.971807231519,-136.648224550419,-1002.16198365069,-1588.15520653458,-1173.22073647312
-60.414188250958,-143.793964278474,-168.455581716679,-187.434921425612,-193.702454588073,-340.006528709017,-218.815472001472,-221.983675425517,-365.231680374118,-214.250203264897,-292.928507881963,-559.803402127192,-387.479781460955,-490.555991383057,-667.378039732918,-1111.64988900106,-324.413542324309,-414.926103455208,-1226.23870194652,-147.27357095555,-410.98002092229,-277.489118118999,47.3979297467677,-621.805559817651,-311.998342101715,-368.442186734705,-652.067064265374,-203.967678010608,-481.518653166529,-424.33236869518,-318.274782779456,-444.268004422391,-329.928201722318,-394.872372844197,-338.045390475621,-340.682888541282,-314.452192644601,-286.248465828084,-315.624016231281,-309.310150762622,-294.292556301139,-311.378270231041,-278.027794408585,-301.546706149833,-310.613103396165,-590.672978597561,-224.55615725245,-415.713700114954,-13.2666714156988,203.628163904226,-726.958674969213,435.706898663157,-569.145451321718,-270.027180462773,271.907882945606,369.30902392426,-469.162610112683,351.493313926128,-970.947888750401,-18.0243815788786,585.112576493203,128.141145464427,-785.022646369447,-120.739851274349
263.15376824466,144.612169712633,100.5774959299,85.988894738169,112.013833755087,-128.42162894924,13.3239904117411,68.3203157010686,-116.643397016018,27.9380839847358,34.5501633505854,-296.588222933444,-194.747012419722,-306.199567841646,-715.807666295265,-929.436246057761,-682.85291386634,-174.291690670327,-781.613069159328,-409.645602070282,-406.021343116844,-466.303085003114,10.0889643501595,-564.71604770663,-209.498446217546,-85.4254547056498,-605.676005804022,-48.4841443706088,-160.28024455062,-368.620678751873,-140.566118368539,-144.894112645797,-22.3716870580536,-432.364994178548,-253.588605915355,-170.168283945024,-45.670110705231,-6.96972385710448,-299.688710584167,-184.347115125685,-99.637942793287,-36.4334805153602,-134.274369445981,-99.2883419062559,-47.3281347509532,-436.630607178578,152.657671055345,-102.915446204455,360.210934559325,610.810119710553,-415.539959731865,1006.69325044114,-115.963444459065,200.449719648195,825.979542186405,1095.00566348655,169.120424964301,1047.81639412127,-37.5272948832902,723.616294611064,1164.80271871911,1027.7402358831,386.379314403118,892.414479996135
395.431813371723,355.110628243124,235.208661140056,264.494462487433,367.060032361735,38.4130429502282,176.856225690199,316.833794699217,80.1780439969152,220.26047529364,294.722366655508,-99.3270847179317,-28.6649578743146,-65.9873709883127,-552.783005830042,-585.098713002804,-983.508730011217,117.845229375978,-289.700664198418,-379.947774456395,-330.122544654796,-603.113099654318,-3.45711953150865,-422.917731213501,-33.8491869708468,271.18726480148,-404.91390975412,159.354881328309,251.039922332902,-194.854000659114,129.658091155541,259.033067685093,382.673012649692,-330.999808051003,-50.3353726209179,123.369424737217,325.542192658764,382.236775716265,-153.724725782906,60.159061433943,210.182499994933,353.112124619443,130.789464002472,225.777519124555,338.982361242467,-108.116154482288,447.777601388026,314.425670356354,602.164701725045,748.892477253282,72.2378003274226,1215.99901812962,392.883412769561,708.718711148134,1149.88549330554,1382.48680936051,765.707747990291,1357.15593732478,689.887281782929,1168.62730395392,1321.26334889082,944.483417861125,1073.33692750279,1151.84197750457
304.555644129327,362.503923229955,224.692940010486,296.418083766042,467.436042178647,131.217112359074,248.2475902352,442.771167087224,196.105759044307,334.484365190131,463.299251378372,60.1701913325314,120.289635280899,224.20027937482,-224.994613740964,-169.382145377803,-1092.31120183336,323.134900803518,122.696260332043,-125.507856501605,-274.23307107513,-571.290803519314,35.5683911076894,-201.583589316361,165.459495125179,636.037988265428,-66.1389970606183,375.085715756965,666.127138961372,56.6933430489276,433.976420593457,651.440202052538,752.824357729954,-92.9444428863087,222.257505070283,459.225023138616,680.948412699385,734.734128446014,87.9469776199875,355.039712107939,532.154718037897,713.047412025646,431.879319543286,560.181913709987,707.143323892913,347.128699272536,663.215163644895,728.033245843195,790.39302752907,650.907384993542,518.59276659244,1115.08368322993,630.148125437298,996.886150897284,1175.9267985564,1150.58128637065,913.178001262513,1119.97028771356,739.729728535698,909.881126303687,870.963495028317,329.585109752423,860.877646690603,481.008904497224
148.462070390788,200.574413828145,156.071464459231,225.707930142415,376.187537433999,154.656443991841,241.851378799665,400.368705948744,235.043103760592,342.789452430302,492.252579045795,173.477068931871,224.741926780434,440.864653549943,149.016304888056,249.85030753229,-1009.17703888732,376.975719594966,479.776980028935,-16.1485124654451,-261.155280841474,-285.9089198432,126.394615659005,97.2002702683782,350.609206682315,893.661144681554,332.58738280187,556.044335219734,980.003899708271,318.363325874941,676.002819804019,897.095761685061,913.771247309435,200.066101008187,461.428713562284,689.540159670963,860.475056013619,858.390882053517,324.36659900829,571.805124018084,717.681797327342,857.319391955408,630.00400483363,734.830102491296,852.608005605285,725.266992998252,945.306547138617,1004.15310296365,1027.55822855241,552.014540408679,734.2380217788,1005.17880614466,515.404367871286,902.922044565885,975.427818345232,826.482962964515,594.060597647701,613.940207781908,286.137592453865,199.07605613608,116.741427987678,-157.138364987247,202.081354511339,-558.501349395042
96.0667645048474,30.795513609429,133.556462163738,140.561611839938,169.09497892986,157.926968913712,208.053599299815,250.108746031171,230.291000687275,275.016169404201,393.153335710216,223.37643857012,269.068507883659,505.341148693115,488.777646857112,595.359842501927,-769.507059378266,289.866568656121,809.683559390332,-140.927948959569,-197.817043173638,207.960555786173,202.362370946936,377.251118024342,512.980013553856,877.082896532809,653.276856199415,625.180310417532,1057.40178631131,496.215225239541,742.957544086723,896.651143704623,792.849615837784,422.471673183882,564.263796462275,711.323188408743,782.629569630816,697.55186460689,456.221077817352,612.36328690929,687.340470659519,721.950246191485,638.517336047322,673.553605668306,706.932030936609,914.446899968397,1078.24809804244,1103.24509071171,1083.70779500033,454.441874482431,835.344221979983,824.798364348459,369.266474280978,602.12343388596,608.36191405387,549.585338808161,197.311969693419,118.956371997545,-70.7042349172754,-356.518951810331,-299.09077077652,-440.619118894263,-251.768025116908,-1046.15585293193
179.006129237834,-22.8369256292887,201.675309860273,114.088369950334,21.9546986953712,204.82348872856,206.789361760847,143.225230052956,235.100270121281,227.022995266399,317.099282741108,261.931186887943,297.36130730188,507.060967091981,784.342445909248,760.91141680387,-280.599987590945,138.124563700685,804.076920106928,-176.099855919534,-47.7865763988941,716.765095214433,201.813781198048,425.3535019771,591.895604394765,574.003087215858,762.520396658972,492.119841999663,851.136995258816,507.934221174952,587.926499599705,688.863987030403,531.041071607936,490.906214426251,497.299307812555,562.379307130732,546.73926471615,428.639715312452,452.410288889872,497.437491395054,511.898462909016,462.566883998524,507.450071386431,483.523419769052,445.066008355403,1004.1581736697,877.690527648539,1106.49896735344,835.482170122377,297.932269463661,954.319431459716,481.662766315609,454.692068473193,365.152579030268,235.57103158137,288.218656185913,39.7495662879908,-200.956511029413,66.0206648145567,-503.633499397794,-256.660562501196,-592.963101211626,-277.035119525717,-756.907824529953
296.92223165462,38.8912075899125,303.535387718901,149.552478512217,51.9538297287222,288.060899597387,232.22668129824,156.865963146812,253.898236848686,234.194907482292,378.060119311195,328.983733805156,319.210638308526,526.2592359371,984.022481300299,623.30552544735,429.767773355407,-0.831124108233446,187.462886354645,47.0629247891868,86.0068366017176,1040.9775810504,146.081540595152,248.010340315505,515.6289451138,209.345563121196,650.48281692318,201.022450280484,480.446628871426,371.647692030268,299.266814460647,422.354986173735,334.117715702152,417.430497730786,326.966555906376,357.631287624201,326.780292049043,257.461528429334,354.440969032605,326.734831726508,321.155759787134,278.249145724957,351.370646750507,315.01940744024,271.565609056105,1031.73722798928,610.04135783821,1053.26725028337,563.788039175045,256.869924991059,972.927289295543,224.891721436087,650.709655789545,265.356726177807,73.891078882859,165.822337734439,158.295991552311,-255.194126635103,570.718157064339,-407.311077215437,-224.013493717163,-477.537636223075,-14.4972477683256,-419.346424526952
