2.39238245133669,11.7444229429256,10.8744656878941,16.8191735972762,18.7040809831778,20.4439954932408,17.1091593489533,21.3864491861917,25.8087318992686,22.9813708204161,23.9963209512862,27.3311570955737,26.8236820301387,21.8214278137074,32.4059077499243,32.6233970636822,34.7257937633417,34.2183186979067,31.4634540569735,34.0733258220681,36.2482189596469,32.6233970636822,36.3932118354855,32.7683899395208,36.7556940250819,32.333411312005,26.4611998405422,37.5531548421942,35.2332688287768,36.2482189596469,34.7257937633417,26.896178468058,19.3565489244514,41.467962489836,50.095038602232,48.7901027196847,29.5060502331526,29.361057357314,54.9522999428247,60.462029224691,46.7602024579445,35.1607723908575,56.9097037666456,16.0942092180832,27.6211428472509,27.8386321610088,-0.724964379192938,30.1585181744262,25.0112710821563,-17.3266486627112,57.1996895183228,10.5119834982976,51.7624566743757,41.6854518035939,24.8662782063178,16.3841949697604,13.6293303288272,21.2414563103531,36.9731833388398,10.0770048707818,25.8812283371879,3.69731833388398,24.3588031408827,15.1517555251324
-5.03239481499872,40.2127812268284,36.8098182770172,67.5546970190548,77.3684968202622,83.5944512165304,69.7281336125018,91.0387264443094,111.514881967979,99.1865647175048,103.712494182999,119.39122273501,117.200754440182,93.9001509259238,145.718188396367,146.025205849425,156.725994607044,155.115497815571,141.608749312875,155.369963620354,164.892321125753,150.012509934986,168.117684341096,150.99048357483,172.592518702447,150.883923734149,122.440442760016,176.08646633569,166.456092445479,169.894575342184,163.540659771458,128.41921407216,90.0339721223621,191.979771113196,233.495021962509,217.878594039494,137.105677725289,137.795122157588,257.267580595309,279.568809135946,208.971727984344,167.054552194346,263.220580941281,70.7844298667929,130.264231878773,121.001719526484,-19.3166593451622,129.472150409987,108.528409400171,-104.398462639305,260.536756194135,41.0345564659808,240.681918297241,192.431781442092,114.655086676417,63.6783224065703,62.9309469776701,93.3955889487524,174.49445778973,46.1477401554887,118.238562448961,4.42183588487587,111.014689623203,64.7175869594806
-65.541729983307,21.8038845918848,19.7921824910856,85.8556970405244,107.063588865209,113.699777920165,92.85844207243,136.814738721912,174.866582617452,154.297800378308,161.940275790923,191.888935306185,188.520436200841,145.499386015229,249.674903779267,248.431583759912,271.293099993747,271.256523944427,243.47111097416,275.278982400731,290.27139996217,270.686086828801,305.877997652413,272.729014735678,325.075678785984,279.508519768878,224.624991190234,329.361591770409,316.889152258613,320.386668640843,309.935720836593,245.419009876136,160.9455551346,351.750682712892,433.660596479846,363.437272773801,246.332640052435,255.463912565852,479.488697378515,506.392726854631,351.522678039754,315.916598593119,480.462196789303,122.86795179383,242.635832517389,191.925511355506,-89.8338858466072,202.808855409605,172.771137927854,-274.894757728225,456.080257206882,58.4754589310756,442.711619661873,350.32539332667,214.081642784445,87.5793864930869,118.452000295647,161.687487244537,332.705161419016,87.4126561732057,215.729771727667,-29.777635054565,199.628471398108,103.244025537063
-172.141026702956,-88.9747719420584,-77.9760157122402,-0.420874510039007,23.644334297895,22.83964354406,11.1493095919511,59.8355776517427,97.5147945153422,81.5114785655579,87.3291864343767,117.485250265245,116.223324129348,76.3350732216163,188.545895992419,185.112421883776,211.999810510168,219.057501965882,186.621554070231,230.727211151798,239.535951093959,237.510181038224,275.99148129935,240.624899622162,316.9898515699,264.460993219186,206.515868751941,315.952441030925,317.561792058268,320.402161305302,312.63959957109,239.017602124343,126.768397883848,321.560103711669,412.797374532152,248.414398860618,199.243389542482,229.826579660797,449.145973054194,443.384136513809,248.50629311248,294.942589739476,435.633074838177,118.963857433936,217.669043199503,113.037430574632,-178.806990457611,128.872928882794,117.652431188147,-407.4031446009,364.240843781843,58.4669733215848,408.196018334523,325.90260228205,233.857552550361,66.7439024819523,136.180838391766,161.375029102231,341.149050847066,110.893728104209,219.525370851466,-78.1614809972183,188.937793441159,80.7071362982573
-213.720817396013,-174.838178033229,-147.516744326889,-87.831429767392,-74.6500474211426,-80.4487193402984,-79.6177888635392,-46.6623525684624,-20.1288567252492,-27.0786067652124,-25.6595478638455,-6.14860278960187,-1.737949924463,-26.5255429234582,51.6395299757997,49.453029762528,67.208605745243,83.0631770548166,57.6692655903401,100.558756217569,102.552573844357,115.567711871851,155.225208316708,127.698529208182,202.261123619659,174.449508918821,111.697884249866,204.321153432216,218.377116610685,230.452115001921,235.235718068833,142.260503087132,29.4054171152047,170.332416718997,254.913787697955,32.1690414010428,54.4438426526903,101.461228427936,240.451005091548,209.456846829026,38.2571080442469,140.001160647352,232.745330805106,123.98711923814,87.4252172908326,-3.74718064067011,-161.721506776931,55.5697578542202,73.0037779507828,-348.261745169544,140.674405508147,146.86297003889,235.782427734449,237.078203106426,271.989639885033,136.374764572162,181.569739739627,199.164980385663,265.069818189329,182.887252171697,222.984187807315,-27.4668988125823,160.731846889673,80.9983639686293
-129.128829657092,-117.052564179082,-86.3832462490005,-43.6789721216668,-45.3256814519304,-49.5967132252864,-46.6295205512074,-28.9454394135191,-6.59886917389944,-12.5767280382018,-13.7114661096486,-0.876953352193647,11.7838365330034,-15.7807039224941,40.9607324268361,43.7696481939584,44.6701936649362,66.7299546855117,54.4397880806055,83.5434052427154,94.7816867289812,88.6910032559141,151.117518739735,129.452072295768,173.807839251272,199.754221087975,76.3814801551148,209.8550366618,204.131765979521,221.553146881026,256.268414897033,113.653545064293,16.3281603797589,108.551108452845,210.001066878814,35.1834098584119,21.3340682337185,45.9919163803291,136.136850895846,145.788502179244,14.3828933504365,54.5281657438121,167.534753186505,209.901217386012,14.0743343828953,28.7488528287044,-14.2355886407352,171.977830250129,195.359866326028,-115.548096211411,158.659392796962,364.831916709089,204.805793061572,346.144434947955,464.052801241397,359.837084749518,337.305085740622,381.3500629742,289.045500777202,365.222508913636,365.016044823394,159.751999295044,257.338491050991,193.054096671409
-8.59390229609777,5.12642124432421,28.295644030911,63.36675712366,57.5079730323422,49.6406422199204,53.5258231845042,64.6489691682911,84.3251338810346,78.0131902603887,78.054861837664,84.3244941690598,103.865192140099,65.5052922213771,122.085555725526,130.545079674021,115.552349099982,141.487439731954,148.711247664844,152.374660670953,181.860726509527,140.527704266721,234.566632317018,226.206795498929,220.593126491679,314.530990459626,96.8878212748521,310.569870241957,273.859767417889,249.82305790417,333.62043138307,171.030008545291,103.640086095999,119.138274744653,237.866512295183,177.024319733206,114.980312153895,76.7966622143646,123.20325829759,203.47273037286,120.351665661943,51.986869989286,192.649119273811,303.954268985008,8.73214628266797,137.677146970235,100.920824269064,339.076021279842,335.504056906003,117.473384946728,352.608246503753,548.073283157391,260.167396036035,581.722012424544,678.535737104094,567.61890824787,523.638391512022,574.236363654077,355.851400095928,561.935288891791,546.144802240618,356.288940427149,402.381106113192,333.021273644912
52.1535553031552,70.1774856480767,83.3272718886237,107.103132077334,114.05787791891,89.64464030522,100.251310658484,110.758260901173,114.928911440086,117.035372325689,124.881937048742,112.590444464645,133.034694320166,103.776285884184,149.016433802928,164.627664892718,141.089201173298,168.675627263758,199.72517782543,171.533141907294,210.398484869843,153.447221835449,258.614670936048,279.872533320447,224.393238864805,370.256205595598,113.093436850934,350.345339822268,316.60505510423,212.392030303749,337.125757335549,231.812305643527,195.622840740983,99.5228056531648,190.879427136589,223.90454317714,192.866140672096,92.6802875297618,52.9203766364656,147.647917996139,155.929675168964,8.65821355827448,113.545034156485,296.251456465557,-22.0897068892675,165.247980683209,69.8502822172717,351.448680018783,284.893650451147,218.803906372021,427.827323730458,509.265866782842,215.90035508346,687.745983398844,663.779384032643,598.749849269897,597.005661024061,582.85884961003,310.847495681799,625.592304837607,581.408505116763,445.791509607612,428.061889590482,367.696231200622
73.7283580251971,101.877911409546,93.0150587642002,106.722294951652,136.026261956355,82.0033475561186,101.990148259957,122.537868138767,95.2191563686942,111.387119028025,132.818127721682,92.3649292957544,114.051320857853,106.074930407506,122.849603050729,148.271550121521,119.854739942092,149.327261599027,199.523277648891,144.440873232473,180.243716105152,129.318752576758,222.175133767546,271.078099556792,194.339547167222,341.923474754281,140.72007865853,318.69395658244,308.952892122433,169.519191079327,287.11205766172,274.09351585215,261.181733282475,80.095683165771,113.110785559798,196.221906698325,207.733991121105,84.279566822636,-32.0407202648582,1.73632219937578,127.529642909709,-70.2580845339386,-50.3071817438406,166.699369082181,-70.068864894784,126.821865266241,-11.5917518039626,253.218738091829,107.821632719842,197.129491195362,344.694984742902,225.462373078121,118.51172698464,604.875922529679,375.661918460551,438.897516915744,536.114383384037,392.394909794368,187.590607266595,541.953613656362,454.00804829673,459.68002092642,331.06467566127,293.984879009826
132.923059697766,182.765253244464,131.074106746524,147.841781223761,195.56817538107,100.413651603066,133.888414040165,172.217556100506,106.977755021483,134.760452145344,170.6452276381,99.7255933670056,130.381702272625,133.489513365944,122.053664870602,153.730315610527,115.524663654673,152.063456889391,211.025746012052,138.527448230736,171.860104399536,126.287546241054,195.86607766871,253.812943238079,189.243249218366,285.87776457164,191.760322003611,278.551117634804,280.649389679584,187.514707912964,246.985511557722,305.702859028947,330.113133759604,98.3073343920217,89.3401019457636,197.409652727015,210.772769021606,105.885653627272,-41.5748530313745,-77.5407934286461,117.663262546294,-76.375363630507,-178.983101524433,-16.1784098323902,-46.6315424087157,76.5724513417539,12.5833942834958,132.153816339655,-6.44430683453919,191.692111090081,162.93113936409,-138.044881930333,43.5536379856363,392.929738264864,8.42038152893205,140.820508999294,393.259717736976,130.037188791585,74.4448963895218,386.65058984254,261.314923681747,496.397862049171,191.674632570261,234.015734604596
249.842175035455,303.423025344736,203.960048285726,230.996136952863,282.012053197757,151.59536002722,198.263411884264,244.30132118147,149.552249258911,182.388455829522,228.053860220442,131.938727688574,169.412904628318,174.879740978985,143.720851256054,172.627689959257,122.284084886191,165.056168685953,222.123483950992,139.936207835907,180.329214278167,129.254837143207,170.958964254332,228.486551343614,180.897067509597,213.027543083411,215.924216459691,217.613557172386,233.238528193586,202.993249566015,196.672821386964,298.407539768655,373.378629251893,109.470076240928,88.2629077433128,198.833136883495,211.164935386309,150.985577457943,-12.5043447717145,-67.0510195395535,110.463416266081,18.927748227935,-242.020066167958,-133.454243183181,77.2971071114641,-5.31380283869,170.378960583945,-47.7532310353521,-16.0151860713996,356.549324287412,-145.322133723536,-309.052999417149,-87.2132042054259,67.6516739739511,-208.950689521894,-139.371225900693,182.855212329191,-78.0736993662933,-96.1468469435509,191.759136322041,61.0043110782143,548.072551754722,-20.6963743187858,280.604683105534
355.71105934682,378.952145672656,255.792969405759,283.198016484778,317.22098862984,186.861798258477,231.2567686651,265.755911416945,158.646976562619,189.502146448879,230.655512894622,132.954642515031,162.926940240682,170.479744030958,129.253889540504,149.867999910304,98.6475799102015,132.794150607344,178.462765550092,99.5731559281438,143.21246670644,87.722226213884,102.410751373302,160.222677542909,117.306765359789,109.086940004188,173.664991210522,112.927521994069,159.464941356885,153.17074690283,115.225946806182,224.553782445121,322.295904709062,86.6666233600735,63.3592358341883,143.337232836329,169.409352855629,165.019844754295,-5.8019026514523,-43.2155418232935,70.3073990923576,131.962335476279,-265.894243501711,-111.535179241077,226.562439877607,-86.9425790929989,350.629868610592,-240.769586525218,-17.6432515915749,625.664693546199,-472.078835929958,-171.194986153255,-297.560519303727,-261.278072688888,-199.224774080147,-204.090023933223,-73.4958091944326,-186.551555153285,-399.878860614557,-50.4518089289394,-122.154661005031,481.478386847895,-342.475111818781,372.387421068684
404.522317176293,388.460935948198,279.666124932621,286.610040751123,290.045007006997,198.262807522701,224.474875404267,236.538982320829,137.270744714816,159.437586370476,178.635428902713,111.572803731135,124.651745950744,129.387841045701,89.7949855516666,100.408492870048,62.4087949867822,76.9147486548883,106.517844689089,45.5783426014961,76.5143202445243,27.8049553510248,23.8937499554849,78.9655818108018,38.3021268078411,17.6910778048582,107.214548859448,23.0686319539916,104.154362720288,88.2896390321441,60.3022999081825,124.729044668496,209.985006973371,68.1407771005109,46.2269571402995,79.0230015582458,105.213485522199,147.99166547176,-1.6947426462555,-21.623256136491,46.0018191097506,197.119660967636,-225.716900446197,17.612690490453,311.43627105397,-78.9844162873569,471.998626876074,-271.699579416628,-19.9085763800169,783.086792766035,-587.158662740983,107.652137078597,-477.302567076784,-395.287063617943,-34.1582847811044,-69.4697422749754,-297.138752082861,-184.793881562213,-678.61658198544,-282.794317619483,-190.970613871594,293.857595547242,-602.233321267157,406.200935462135
454.622787388946,406.050251842761,335.712928985573,307.678038473981,280.241312534364,238.973696088714,246.215289613247,236.483620425436,163.069899042316,169.634072573245,164.128315878784,138.956280676839,136.258891910689,131.747029449783,102.092596869452,102.040236995038,75.2395368359093,78.3900730477727,94.1015293820889,53.5969727352716,67.6455272980876,34.1583247591179,20.1913958843377,64.815179368399,31.7399914235574,15.0217103136097,98.5475941779724,20.3328908874394,125.447811775143,83.047475476314,86.699583461467,78.1723196014915,147.748780037554,91.4511434897977,79.7302740897333,89.3974546001712,92.8839464249918,154.287652304545,40.1554048399386,39.9312244132316,100.75480364715,237.603032009793,-79.9907807856533,182.649293221681,334.970745232122,21.763310620199,594.407821890973,-106.41748994467,99.6419267878536,814.213549630697,-472.799404712557,335.930158386664,-537.301481262619,-353.376859408365,160.405906732524,85.6077106322411,-406.075535073004,-42.5311721587215,-672.963515178795,-377.262981378792,-81.5798716462202,198.10756964094,-579.152290798681,348.752207633284
523.758482576468,440.054656976925,411.780890025197,347.496164159313,301.104876593538,306.238605735935,294.846429317722,268.748404439395,226.158357343195,212.910552858243,194.665630533413,203.939146392458,184.250384219615,174.440874960351,155.615995182179,148.115467211882,125.071516378144,124.389362592023,128.9931075175,106.996297556926,108.16777153707,99.1561055199471,73.2870160391336,98.9127041800494,80.964074824607,71.8794598915085,139.764247380759,61.6677885422535,164.921997147055,103.081497584192,129.850586597541,78.2047629406818,136.757730299671,125.127009409783,119.454910590336,135.209957526374,120.762532364446,171.348270783028,85.6456114583113,105.690957906463,172.117407915448,257.062598097501,87.2247692523311,300.870017856566,331.861697833391,126.589341695285,726.682788963066,73.7174854296949,307.810285648481,816.5898419287,-311.185869520422,444.805425932196,-455.340988480743,-366.897417483807,195.415980494412,177.421189383721,-385.139519698297,153.742805571869,-381.803253716437,-321.106803116624,6.91597317845388,249.834289555004,-321.278328232143,139.115799996334
503.036787729738,382.594439770004,396.414873913596,297.100896743018,247.564371891108,302.219984589946,262.11472269549,222.369062719604,206.121902423983,175.869249932689,151.548621746753,196.637385025823,150.20280210826,142.6333792428,135.958909779056,123.335598515436,115.79504479632,99.8569363978314,90.8066342741236,93.9140704281529,76.3298079355031,103.763623797812,53.4822948261842,54.9027755995858,64.1011188746911,48.5299637735893,122.510279262315,21.6436153011152,88.0796073136562,45.1764103998832,69.8471478337435,31.7234868802864,73.5393960639948,94.0995649089362,73.1388593775284,92.321255092581,87.3974744438201,115.455210441519,58.0041601440776,73.8557454508128,127.460729874082,191.903421334458,120.215785008775,274.407111296183,263.970880360798,150.863042100728,689.959704288191,98.7657275019882,346.799141936393,693.877642332535,-220.978228270997,355.457599548542,-284.825268884021,-519.237789775881,-95.1697690313649,158.205295572392,-332.483113977276,140.142643561132,-83.2904908928215,-297.965578673958,-189.242038724982,187.648268016416,-63.9411678554128,-251.492066255352
349.765075730783,202.959400097082,257.185635549492,127.86310627478,74.5902513612474,184.529709767932,111.164605603471,56.1229253504373,67.6166603435018,25.4019948021413,-10.7592828385796,78.4553108287058,3.32348599559908,-4.93434300178581,5.92887869350331,-17.7802607883532,9.58609364485087,-33.1931576872735,-60.3555027250608,-26.9665344379605,-71.5436894360148,-5.00187050921197,-90.3265272766005,-110.221151843253,-68.0826382775061,-108.356537937846,0.0254597156177327,-134.055297324656,-111.931903652546,-107.188536414512,-100.368173828442,-91.1550795549051,-63.622174040048,-16.6355798763583,-69.4194526249936,-55.7700980857456,-39.0802782988139,-25.276250486554,-47.9444747346775,-61.0694213299756,-37.4318761634499,33.5584800920644,9.9777432873098,98.808819685806,96.7932526578548,64.3639248975165,388.31737868538,-35.2568269129492,102.434531844815,340.184365017827,-223.200570939019,17.1168929031136,-168.065269154559,-678.647328993807,-602.055387244194,-84.1226261807937,-373.618058774147,-230.511642151988,23.8335842138983,-422.058515442749,-583.867549688075,-169.799780396709,70.6410644824358,-638.543380787043
183.097906788621,22.0152941162752,101.123445306881,-39.3434507546978,-112.812872630744,40.4310479024506,-52.195413690179,-122.082359807585,-79.7781725981772,-133.671974038143,-186.088918774501,-60.2564078464855,-147.036365534709,-166.66743439874,-138.404984063252,-177.423305077073,-119.049248305344,-182.979605134805,-226.097651481835,-169.82824039233,-237.805384208067,-141.933967421726,-257.967122382466,-291.998847877965,-227.398830253298,-289.145434762627,-145.978871146453,-309.006428149632,-301.616766315367,-259.521095901827,-273.842096226258,-221.37457879667,-196.568710165727,-135.290762237214,-220.27344015722,-203.598027967462,-183.845578757203,-172.888615311956,-158.648352236748,-198.038624342906,-192.99809833385,-140.982218307684,-106.801676717979,-86.4279768362349,-111.457001591535,-72.857884117082,13.4280584661396,-201.184708137245,-216.621149107986,-100.899615471715,-284.619129643381,-416.537111518585,-172.778796498162,-723.21081980308,-968.83878727124,-503.776502407678,-461.671556675101,-726.951782775379,10.5953898829761,-531.668698614511,-832.778386746222,-638.909417274904,122.514079157369,-779.348212806398
91.2958441603505,-70.3237318633728,11.0729580396876,-118.479757133518,-214.597665181869,-46.0416972717176,-137.877961221853,-215.515257491968,-150.915403671334,-214.474662121903,-278.764469394641,-137.919128199448,-218.072189868829,-252.735221253105,-215.956181974693,-263.304693376277,-196.457056956848,-269.29393152016,-319.183566675068,-254.247170793969,-330.361754610225,-223.315073842386,-349.850253316429,-392.753131851065,-323.766282178036,-385.811185625319,-235.488571843468,-411.667672122542,-397.342715545789,-335.838948328432,-375.640350678378,-305.251966987013,-284.759782298295,-201.669998362683,-307.463174568903,-285.674270034096,-284.26876801639,-281.715800758081,-222.305098934498,-276.689134507504,-260.462690653847,-272.945713031014,-151.631865141997,-167.427080348701,-276.807228085231,-144.781777317703,-197.452510876847,-264.83732410549,-364.64684437755,-413.861919047139,-305.234808281755,-665.806597812053,-191.097814567635,-631.370514209078,-965.342696109936,-796.804096161927,-437.762614330044,-940.24750389981,14.7730084675568,-451.522915121261,-775.260012507479,-907.972317876621,141.715808153621,-671.10390499345
23.3499987588475,-117.098321849466,-44.8789387463993,-152.959805534278,-260.707998390201,-92.7052231431293,-173.328855730862,-250.259432774019,-177.131764009574,-238.584646780575,-308.209049316723,-169.611237389389,-239.454471809706,-277.466955472001,-243.155029629835,-291.243738967408,-230.412988240854,-301.63152506702,-350.688494003581,-289.561358126289,-354.733455368687,-262.515423903787,-372.568425298213,-419.33409726196,-361.770823574696,-403.876973428247,-283.566077996141,-437.635449104429,-431.37939300546,-358.266421410299,-418.063572878979,-354.184092043795,-356.074265015143,-232.029313997019,-340.859497971892,-329.647792081872,-344.759680295705,-363.25177312771,-250.36974789288,-319.249806176538,-277.256701117257,-354.701578023726,-162.795128853252,-188.122423758494,-369.642561610786,-124.841842707629,-213.972721749099,-213.058760198131,-319.567609164254,-509.54897778382,-230.356048851537,-607.348733526429,-135.284303578031,-460.520393480069,-688.770474657356,-734.005717539428,-309.246083242777,-736.699591992751,32.2037503238103,-283.526869990789,-565.279886407949,-887.396867544306,109.76700490632,-505.183157692293
-72.3032737223438,-179.457426416906,-112.266277898288,-199.595838899977,-321.242105835794,-142.318737145815,-209.983482485443,-284.887621648493,-207.36303317702,-254.995763175473,-322.888572828948,-196.238244437888,-256.247286488947,-281.437698598807,-258.218736155032,-304.038372925145,-255.076702261162,-311.529170979227,-353.679235722379,-308.100092107352,-350.276257546327,-294.366149421872,-368.388832667256,-411.205100969483,-379.044579410294,-386.932010411996,-328.669720903765,-421.706642066937,-446.501785800299,-379.078385543107,-428.694673771851,-385.328487464421,-415.618103882935,-260.883634381839,-358.002814042088,-365.620739770232,-374.963969685078,-407.151876360955,-266.142065611232,-347.948240486091,-287.725544851632,-383.598926737296,-177.306024870734,-223.471845906974,-397.098046282875,-103.835291692271,-134.493851493016,-145.35956693686,-205.826276823827,-396.556877634504,-136.188174118823,-375.026496392221,-64.7810646559655,-304.437794014953,-384.966301864526,-440.211190978776,-215.370736521565,-377.005521315074,5.34882332905042,-201.426886044943,-386.427118428052,-691.78628288867,21.5381403953696,-381.648383698102
-164.371565075366,-244.546342790548,-176.578035180902,-248.919089616488,-381.516681850599,-187.250575642968,-239.956936130286,-317.358449790406,-233.644881116545,-266.592363086808,-318.434059313976,-217.833959366387,-261.351797525689,-269.725382774434,-262.926624746105,-297.968518419996,-268.856473297388,-303.301107136502,-326.659436534424,-308.251819980443,-328.01579793184,-308.86641035183,-347.735416148171,-377.179919414988,-380.167477832382,-355.629414433488,-358.011344209648,-386.981458375626,-447.543284672356,-399.070648613064,-416.950625791235,-392.038678257228,-428.715454728943,-283.699305518236,-365.479965327683,-386.849361120568,-363.645663038494,-382.327586881504,-268.200411687749,-355.089827363395,-285.96377117503,-355.649904416268,-180.148183206204,-254.088454283985,-366.678567999748,-129.981908186825,-58.7722909483113,-129.939550968278,-128.45553292843,-196.310045967893,-103.043561017246,-186.728294450707,-42.562114253267,-215.670889517907,-210.765059419117,-207.024637331258,-185.817120422771,-163.740859185041,-43.2451678156501,-185.427267531477,-258.130859319779,-446.830000186667,-63.2633560164618,-270.12657989865
-219.341215169879,-272.015930883314,-213.667783212781,-270.859230977769,-374.86458435555,-209.281277509638,-241.530178487018,-316.51257066691,-237.434451671239,-257.678227966505,-277.561210676416,-223.220931562148,-243.805839005511,-239.808568760047,-255.038683368354,-268.405838532765,-261.403579919877,-281.62261387517,-278.686932764937,-287.992343303165,-294.856486876748,-297.67765634917,-320.882650477124,-330.694053737674,-364.59458466003,-340.932222369704,-347.495229326339,-358.012772574793,-446.701291909321,-394.44089398444,-412.715049746324,-378.008414509292,-399.865094412291,-289.358318421056,-359.911515417045,-394.093995056606,-329.220942416087,-306.862057541476,-251.156018815528,-344.642058361776,-273.503991155833,-294.988401542491,-163.835428572599,-256.386395166102,-299.758162581849,-147.468754892865,-68.7840689239106,-140.818939061563,-128.278735749992,-108.213621055589,-109.795457140543,-143.048573776597,-46.9154195096507,-187.819753823405,-174.649008102421,-152.613980444997,-166.021975466139,-139.174805336495,-75.3677485910127,-161.672440931698,-169.799637566478,-267.086397796357,-110.559452401331,-188.249577315507
-243.640472213088,-257.354076376369,-227.941237114868,-259.525547804903,-296.400124208481,-214.607443657713,-223.58475381931,-276.534306623042,-223.830398952607,-230.41040444086,-218.995589089845,-216.59661285327,-219.47072990141,-203.067803928998,-245.328412617723,-240.375444608772,-246.21975423912,-260.31205117143,-243.896308028461,-266.83067136961,-271.440272091413,-282.563284833582,-313.440051434393,-305.746053216545,-349.838137112665,-373.927239790266,-311.224724257587,-364.596337213439,-460.578430223092,-372.575263325686,-445.856796150791,-363.503528980082,-367.604424104217,-288.887857987548,-366.856286689275,-392.658854830098,-310.39065585176,-234.24583726266,-226.911231956017,-333.956557044198,-266.438507358791,-239.568999805613,-140.442398803667,-268.615340093475,-234.969052330837,-119.210194550946,-164.435403367054,-138.880715900766,-178.777961764956,-180.738960525152,-102.977716605589,-186.890666839899,-46.4164937688225,-189.017573075562,-195.292164981708,-183.799374647094,-152.823214879594,-171.297902674594,-97.9965963114974,-150.060011695472,-147.61355248607,-216.076836566079,-142.667359478455,-176.964077013209
-252.264738540981,-232.687999105239,-233.03629943138,-233.742125070118,-216.949276517248,-213.926876882081,-205.389235316062,-224.741087930794,-206.189739624224,-201.549133211837,-176.233784534944,-205.65584534222,-204.592029106623,-173.840525541776,-236.913563949962,-227.922255296483,-237.403180249451,-244.917997288809,-232.588498214359,-256.207592023277,-263.869182338064,-274.048077408371,-324.153876514675,-309.200798901695,-340.509134148094,-430.558450568043,-278.132578980121,-399.095222486904,-473.795492839148,-362.94031570462,-482.846547184584,-355.479141708728,-330.395735449422,-289.407833371664,-424.15446775782,-361.013093648726,-300.560622042968,-186.457830982713,-221.728430274369,-318.417780731808,-248.660887390371,-198.575129869501,-102.911076351263,-302.954210435163,-189.343698814925,-86.9626228883447,-249.12758475184,-130.009416348444,-215.079006330184,-267.823552586128,-80.3062266939399,-218.463149130062,-42.5319031492262,-185.146789819823,-196.915392995721,-197.86972489357,-159.309710276746,-172.119403781173,-115.085750590543,-166.17192543846,-159.877275326397,-227.400147404813,-168.588744625104,-190.653547036217
-256.619177263004,-227.480894625077,-237.016432498771,-216.669012685531,-187.593797954363,-213.235793366273,-196.973777354627,-193.789579806137,-197.038107691021,-185.363974252353,-162.158750536336,-197.802991208383,-200.125971357101,-159.56173624525,-228.182159914766,-220.655718756921,-231.174424927379,-234.817834403268,-224.442447657662,-246.407415880834,-257.0858434724,-258.139485781824,-320.196110072782,-309.62164432384,-320.367229176762,-450.141151968219,-256.822700068824,-413.694090653649,-461.213147632117,-372.819202097498,-467.59867692989,-347.606802505862,-266.959228055135,-285.627800720965,-521.906679730329,-292.015999693807,-266.977880268793,-152.815797882671,-257.460514908888,-280.772537253802,-203.244529153956,-158.082834066084,-40.0537687532229,-319.772795939032,-151.157147535812,-86.4554248578711,-266.811805102076,-129.140636642643,-214.69951485925,-273.981631744889,-70.3913938494282,-208.943292424561,-44.0561182442595,-166.490971314531,-171.544693217953,-184.179117263479,-163.057299056164,-151.422393992478,-120.709764892887,-175.258360004798,-153.60732859603,-217.917206555322,-180.20971608379,-179.782395540054
-261.498947988145,-237.339778901678,-239.401254969277,-210.034592858632,-188.81667434332,-214.160289209901,-195.187181716879,-185.774860833373,-194.313909573574,-177.684613577007,-163.685040109006,-193.91068235208,-195.096429466329,-153.402865799496,-218.950023185268,-210.543785492895,-219.629719653129,-224.3199361014,-206.102644088954,-227.083229528428,-237.603022688018,-226.839765491526,-283.866487045689,-283.178193989505,-280.375330158743,-405.270617089236,-237.219058715552,-378.014066745689,-417.856619152955,-370.177301502807,-406.294440917014,-335.265079468547,-187.919120390413,-273.308869292574,-573.844534642654,-226.214655998301,-207.652525659823,-122.768682303729,-312.028921131919,-224.768303089668,-157.52941151011,-115.061429042285,28.6979803622707,-303.984514662923,-113.819790080235,-94.2553845899899,-257.120423978754,-125.750545777293,-205.202109511513,-251.304286097326,-70.9324250310007,-186.35488534952,-44.9748552716721,-143.752986914479,-146.465707038322,-163.802229181457,-146.618501541181,-136.920101684442,-120.780840407944,-161.28632574906,-134.458992933396,-196.082039420754,-182.530555842208,-162.779750642685
-260.318380237737,-237.00639297202,-233.17276144242,-199.010560741242,-181.204807425434,-209.655810351165,-187.181009491011,-177.320868656066,-179.825091376548,-162.789347633713,-157.607114404185,-182.174112003271,-176.492640909576,-138.683783925682,-200.353121133155,-193.269525615972,-197.874593900268,-201.602677866141,-180.264980683718,-195.120281084155,-201.664728416113,-187.421314288876,-227.152666545908,-233.824695649569,-225.383881778948,-318.99458459707,-208.437343626366,-303.751535304142,-347.513167478079,-323.761334439637,-337.123366472866,-309.001599984401,-110.412354422027,-245.507011054943,-494.507259144853,-193.403258291876,-135.529852371633,-87.888442326214,-315.956578049044,-169.414238892217,-141.41190490676,-73.9328786895447,65.7083770452424,-266.742037319481,-84.8672902541834,-81.4262592062637,-256.585464341073,-106.281732250784,-196.303784522392,-253.15369586719,-53.2444247343939,-168.978718393079,-30.3045513988977,-116.092858805258,-126.371079633736,-144.757990384909,-119.456572966097,-124.494028636082,-111.905393105311,-138.152489220605,-117.798189109206,-184.711054703305,-175.418280099384,-154.440318353057
-250.397955969536,-220.124238053702,-219.396451162571,-182.069305718934,-158.995762377865,-197.808146186361,-169.716909630614,-159.854676421637,-154.571721244067,-141.852413960372,-137.955806318652,-159.836702595726,-148.181374632357,-114.554171819283,-168.841205317965,-165.183242291286,-167.352561731031,-167.402446018884,-155.353480214077,-154.939055993595,-159.660520860565,-150.362978127648,-170.350648023673,-179.5939874874,-167.839361292471,-232.071570180694,-173.328010269757,-225.939627685283,-267.054363079402,-255.207586170251,-272.47155994202,-259.812352552305,-43.9507191549713,-202.204863224515,-320.717190055194,-182.573741889368,-61.1236368438673,-47.9163296373868,-239.885050915771,-131.514411799173,-151.806961239074,-35.7600190511884,44.9218778523282,-201.71593341885,-72.9798549318371,-61.983146956456,-258.698815481213,-83.560986018421,-178.32861750366,-260.822014139057,-21.310524854496,-156.043378546922,-5.58809110371525,-82.7296717675806,-101.119970944224,-133.41125638886,-96.1429421331733,-105.21985513419,-89.2027759670916,-118.356973585986,-96.4583579543642,-167.280149647658,-155.519641027823,-138.705868272654
-243.085265281335,-206.576604239584,-210.738584734717,-174.574762950336,-143.004450008585,-190.877981347002,-156.631744000497,-148.681853492115,-143.406694413907,-132.320077208808,-123.366225527704,-145.827631597064,-131.614804894369,-102.00940812968,-144.673573030499,-142.258233132581,-145.800881733549,-142.348972671927,-143.096891057947,-128.129944575255,-137.766600538274,-127.081714761097,-133.497747800256,-145.758419905,-129.096553198523,-178.206940029084,-142.769492088337,-180.397369173484,-213.117719995333,-209.379570459519,-222.484957954547,-201.887449088252,-8.8334959058767,-158.479939948558,-181.141365209417,-187.233862122325,-10.4738819881867,-24.8146162276413,-148.662646231272,-123.428026867942,-176.493229020165,-15.0480602934584,-24.8886103698178,-116.951594926408,-88.0427628137556,-62.2913458219918,-259.642175620649,-79.6690654199264,-163.476694592781,-252.578802307925,-10.9079632566752,-147.122310566017,0.231668289374623,-62.9631414851511,-78.2258260106993,-128.280732279861,-84.6610119332319,-89.9626050960741,-75.7468215401182,-106.846921761724,-79.3598377831018,-141.283505913855,-142.519315745852,-118.755072489557
-243.303970542694,-203.081047461021,-208.575503101243,-178.689147694187,-139.847159574322,-190.670052575715,-153.358693266546,-146.227592759505,-148.316331348312,-132.251397753073,-119.56692134345,-147.504489731772,-132.268060884393,-103.654257453483,-141.324783911369,-140.104545356161,-143.475924653102,-136.508447928712,-143.862389959695,-125.457680479885,-141.41095674205,-119.183272405115,-123.183387857899,-141.986912673049,-116.957944502297,-162.205473131329,-113.544332179219,-167.585403326914,-198.415542797383,-179.637994561559,-196.546558512108,-161.109524951131,-8.31428830532652,-114.285494374685,-125.59424528228,-197.718141900917,0.938676012324307,-31.0047787315712,-104.347022741431,-127.510355410353,-188.731861997999,-22.3583300831875,-81.0438083662757,-52.5166544086031,-125.034385874882,-73.9743950469855,-259.997833868154,-86.8666729427379,-162.396278203534,-237.155183458393,-21.6990595182628,-137.523319739432,-15.0473053313526,-59.1166505731004,-65.7070628931812,-112.13912201015,-82.3769679817435,-82.8035437724182,-84.0179414403101,-98.4821814427676,-73.9229070606187,-124.275654720938,-146.447039486875,-107.537020966286
-237.781328332967,-189.560286978152,-197.026367801305,-172.300142326219,-128.224592076189,-178.895342662557,-141.485991443118,-129.345951391023,-140.594662013443,-117.08572282188,-102.305575148846,-141.200886805454,-124.098543580805,-88.9898662199589,-135.211233525847,-136.166747687659,-136.178021222347,-129.85219599394,-139.723276754595,-118.901572583747,-138.209820052744,-107.434899253141,-117.783771071135,-143.399620504771,-107.131160705051,-151.871146951979,-75.8656524848845,-149.524582044647,-192.359769144622,-130.675631740136,-172.901198213174,-140.166056976312,-14.288552804298,-54.1113970106301,-89.1806524938437,-173.536017732274,0.381621720589305,-35.9110548222262,-80.7785689507023,-93.2136412151239,-144.089652368561,-26.7724273124269,-52.4753290136465,-14.0992509128552,-137.185044200489,-69.1364763950754,-246.397445534398,-75.694528924102,-151.356435296665,-221.027442942669,-9.21933894516934,-116.284533257735,-12.214633594024,-37.4312432337812,-45.7047297595683,-77.1471496608465,-73.8845352124003,-63.1517603006845,-80.655556868357,-80.0440737739003,-53.5396196198068,-107.854426851947,-138.38241838239,-88.6237538487343
-217.930890053913,-160.297488486157,-173.365804939513,-144.635182237504,-96.6343898235381,-151.949706987799,-111.79963776508,-94.3782549580307,-112.585395266531,-84.1099686374205,-64.6359006578534,-115.568297116625,-94.0467729571825,-49.0282961212013,-108.213762167315,-110.181569366024,-108.894930446957,-109.286908147994,-124.986728527732,-95.4223473143482,-118.459798486862,-84.630345558527,-102.333682565771,-134.895843831818,-86.3878701431805,-127.789404992808,-42.2036787163462,-116.997673209031,-176.273970061785,-81.007873248886,-143.14628719689,-124.287481279641,-18.3170505745929,3.03646555464341,-37.2329375824022,-113.16102557951,11.6237235406269,-12.18843728068,-44.3050115761023,-18.3801372385839,-58.4497944747401,-3.4000891723138,32.3100467461905,38.899706650519,-91.4746582121901,-48.2553687181988,-215.897008148974,-45.866516350821,-114.083877602815,-197.928434092442,31.9144314958399,-84.160058267438,18.0988997814799,10.9686247871296,-6.03148657753011,-39.2165799157918,-47.8672053778788,-20.8941882172341,-48.076050742689,-48.8035587937001,-7.21360820968264,-73.2436007793436,-105.711846767166,-48.0566733057741
-190.464449967155,-136.938353845508,-155.069977076886,-120.175365623577,-68.3305979801455,-135.372419920218,-89.1855080880492,-74.3781993659247,-96.1215900064446,-64.6283354782864,-40.6605379409684,-100.236142206945,-76.3067251596096,-20.9994738184534,-94.1607907327128,-95.3124743568547,-95.9907837523749,-101.909933728239,-123.800126945852,-92.899008011621,-123.871625801023,-80.8401034084707,-104.955388327227,-140.297312184539,-88.086569815015,-119.849657426948,-41.9574687904564,-116.015504796381,-172.203495927727,-85.1631701040042,-147.214901800245,-108.621182907246,-43.3958752187471,-2.57515066968349,-26.1522784358529,-87.9598972111829,10.2404231712091,8.75320365901369,-37.7764093317452,14.6302915065209,-24.2841489333667,5.04578848121375,45.348291702238,110.037350181432,-43.979938549666,-42.1286753939137,-183.967685681075,-34.5035953301355,-83.6300108122266,-157.398893360795,35.3098969426686,-53.2366727755401,18.6282524705516,34.1573900279016,27.1788300714574,-13.0491457551156,-16.3673006110557,17.0492481879392,-32.2243290720582,-19.17491296619,25.2696028331313,-28.6987297072633,-84.8440244474558,-13.3648173418328
-155.484705301702,-125.624240826558,-142.750721324642,-118.597520906501,-64.0760329627465,-139.668587940324,-90.0047519469497,-82.9771122983871,-111.102937999573,-72.4126488651525,-50.6676161644133,-117.00630649148,-95.5895540778975,-26.3114590050563,-126.207267309941,-120.761770357622,-126.023479342136,-130.806397837839,-148.885733532955,-131.439507972178,-170.063774862753,-115.005572934113,-148.066489162034,-166.56635862684,-137.866496211195,-146.393161339365,-88.2913574707173,-168.724178670398,-191.424681994737,-149.411029436098,-198.901705638302,-90.9925212219296,-80.5247498415429,-107.270297493417,-94.6766820940343,-126.806956426309,-24.0793029163438,-13.3102215127731,-110.631288086714,-47.2186486724126,-77.0254168056041,-44.6293474749619,-85.1227551209523,148.867359309106,-59.3606690634149,-65.7706191266263,-149.733432449395,-56.4465457870796,-92.124951799563,-83.6599324758683,-39.9903498015329,-27.3444053028228,-51.3186555760861,-6.67271530066037,25.8890736421902,6.89895604206798,-0.00440106941533358,21.9883702658603,-74.1643937522719,-3.24456476256718,14.0208303491565,12.3605596183117,-100.237871182665,-10.1415113842103
-100.354811053239,-97.7946667538848,-108.701371598007,-110.061387517893,-59.6992183565048,-128.699743506867,-81.9261324335537,-82.2879756395666,-122.143997099033,-72.7644052181655,-57.6672836356632,-132.011620131041,-107.548676195461,-28.2283034975514,-160.715167274421,-143.078172275205,-159.469621498045,-158.410797555615,-159.330959653645,-163.512885837042,-195.305033673869,-148.708520207418,-186.28063440562,-169.890241660553,-193.618575899343,-161.804209416248,-152.201368796562,-220.624435279073,-194.36422652975,-222.199000392695,-235.435989268284,-51.2050479381104,-74.5219941691261,-264.448327064074,-190.731176649001,-138.984605578981,-47.2715246149469,-47.0959719042347,-228.981281382632,-127.884269390844,-118.636363492466,-103.673978797886,-274.36941628751,136.069962489096,-89.3433960613314,-87.6363690474234,-93.55242767817,-70.7418010497827,-106.166815489765,24.7007124144179,-123.878308535561,-2.69885697193683,-135.841280133939,-64.4203450969676,5.49460551009351,30.7914577221785,2.44609180211801,7.96670229076915,-136.387777410036,7.17473365614874,-9.20278498281519,58.2769405820129,-120.025622996627,-12.0765014335328
-27.2479968576353,-31.4964925044214,-40.2264863330706,-53.6470275916118,-14.5413852286477,-68.0185358482717,-27.3761296469452,-33.8975167594041,-78.4674170397909,-26.1680775518559,-13.7467014937326,-94.2135306059647,-58.4079887955208,17.1952384186846,-125.057551567879,-101.718575501924,-130.095202230468,-123.612843020007,-102.338488917067,-130.970045894612,-138.532256538177,-125.793562661111,-154.569264411191,-110.602090091702,-188.661819267132,-118.58674823238,-175.617261263578,-209.843191935968,-133.923896770959,-257.377761166403,-192.87432826119,36.2837708787472,0.579340611593736,-374.142240271728,-239.376034169675,-26.3968771559815,4.48522105940655,-26.5155822879246,-311.170875329155,-112.834225612395,-40.5134795994468,-84.4575813877,-380.550378827196,108.616356970138,-39.8903961933779,-62.5333664462715,-24.7913427785994,-39.9567648239463,-76.5326288688976,126.125038319496,-111.050956276163,13.6423683110326,-143.692857922636,-64.7411447184894,-1.10551330765663,52.8040953773506,5.9727256243775,9.23390228543352,-148.059162763759,21.0514377704908,-1.97002794982429,107.90311497675,-105.918807249232,14.4986013952215
32.8705295032813,45.8390417102094,29.5174022616609,27.8010000741783,61.2732384776128,15.6407309509592,51.943817192775,43.2388211942502,7.99485171587235,54.6266978410032,67.6906186331068,-11.9204799432979,28.3344471216924,96.6781864841502,-29.2780130401489,-10.0398945701637,-37.5550953020444,-30.1318958459002,4.86519699401074,-42.8760242759695,-29.0900812683868,-45.7566133108238,-64.6200796786065,-11.9669555965857,-121.287303631117,-41.9291968075221,-133.624313584407,-151.567498134639,-25.9876610202744,-253.301956852137,-95.6666490422837,156.496155293154,98.6937793194645,-388.063851274774,-220.636781094672,161.154373748251,119.779541357416,50.1700760308661,-311.728599060085,-12.3679799438322,118.884091933141,17.6651599414136,-369.942167273089,83.7958589168424,84.9518040888641,4.58417737817179,7.41641013132165,5.98582057594851,-31.5143797209666,155.662437706645,-6.870807395348,-1.82853640543127,-68.1935913741947,-14.4392913646469,-3.51726963767222,49.7207777986537,5.16560753953668,17.6313833734688,-103.811198899217,17.4076438060381,15.8897596993887,121.892485146336,-75.0311180352526,46.6958958805752
52.1668016647282,83.6209933269541,59.6111418880862,71.4953599455142,113.056431069722,66.001427738174,98.9471467536788,94.3704443032556,73.0045860865917,116.051205761037,126.611520630129,53.9632876659311,87.2830438457387,157.590102674426,47.0487764900833,64.5208157484178,48.6107134969633,52.7604323081705,87.4073356849561,36.4294898912984,52.7913567594443,34.6831959108392,7.99975382524362,61.6573090217108,-53.7502275897488,3.47365825773453,-61.1350729430565,-110.252254626273,57.2646592667542,-226.716724662251,-28.8191412094695,239.797838730268,149.743558909437,-344.832401918089,-162.716644708558,263.824747771858,204.113078155326,120.000022288937,-244.428853974332,49.6155758133074,214.008964944034,118.762290620435,-323.146225928942,37.7528483196266,198.823841709024,58.0519417840477,-18.0700838986752,10.4245360908174,-34.7877356092185,91.8382749518993,72.8714746112757,-62.5137215073937,13.3679404811608,9.17322113602963,-43.8937275795361,1.75837657003571,-22.4121168827948,-10.9365516797813,-61.4685477184697,-29.4944989816386,-5.35585294218077,73.8506963718932,-70.4629166537754,42.5108198761213
41.3431322105816,74.2828383592067,55.6346056753645,67.7351224134529,116.915546490632,70.9116184265667,100.008507144735,100.97282707764,89.991530105794,131.080660106556,138.376819730257,75.0138254134437,101.532713722419,176.363686707878,70.4230641305201,88.5464019330197,82.532049069714,82.5917949059019,106.8350447169,70.6574067002433,75.8116807228614,76.2015043625719,25.2626168681356,75.310322438493,-24.5347315019088,-6.44433771269719,-0.432509781182984,-112.279418198593,63.7269322164844,-184.188035073844,-33.7598581897493,218.153807949487,120.680289136869,-294.531705130964,-106.371175890498,209.3835185227,180.928929359299,143.09113912975,-154.618348471007,6.51799851290925,178.712268806152,159.797906588812,-300.213909322481,-30.2531145025114,260.890040741313,61.4281692104908,-48.1878407401478,-27.0393129613182,-67.0793901294816,-4.96583012211212,54.3252573430117,-132.095484858045,49.6477327590205,-33.6871502570101,-113.715115407934,-74.6559776597237,-74.3450294489501,-73.4414004001936,-43.8532502047923,-97.5950960868458,-57.0857597679213,5.79494630987777,-90.603980974161,14.595072196957
28.2542362845,52.7248640757225,47.2666569246788,55.9328916762204,96.4290170595791,61.3561509223662,86.7539176903282,89.4464211506961,87.6340339675214,120.216521194887,128.074679962607,74.7404983396567,99.4032664968892,168.363077389277,73.7433683072863,81.5190065167031,82.9118460464022,79.9864610912611,86.6394286020742,77.852418188615,68.2850713069319,89.7115125537373,14.5921884750106,44.2145085800359,-17.7859579984104,-45.3173214400858,32.4486895225814,-131.302809119679,-0.434318761355637,-137.18568486323,-79.5445908654271,87.0510965003314,24.150091348261,-247.158244987189,-77.83966960762,78.7287724408696,65.1854866798809,134.154291440782,-81.4862161125892,-70.6694315225432,78.7008785002559,166.45758079617,-277.980908827926,-85.6346618558184,305.459353042899,34.2832115707658,-26.0866108035066,-55.9723729944576,-50.6316707514529,-53.4209139678961,-12.1660030729281,-133.588039592339,61.8568932579119,-100.756078058469,-131.059825309078,-119.404615390517,-114.402286888569,-99.4745894900283,-19.1925792384501,-132.447281378142,-82.3964228872358,-27.504696712395,-97.3626521776026,7.44438764695359
6.55437385137222,26.1538235041255,27.6925795111275,40.5640374444908,63.7216016730111,48.3736833692665,67.1299587558032,66.2614412796462,78.8051523045637,97.5797917885891,102.881611927646,64.9266528996619,87.0035834980752,136.591869473688,70.7044628303427,61.3297603544485,73.2494026983179,66.0793973816052,51.002751945798,72.8540783042921,51.8074142142619,86.8970450633147,3.08081982309385,-4.525737332091,-20.6496762848616,-82.9122164205121,30.2533840798804,-140.816160266036,-90.1892617077476,-105.272512201885,-120.720412561696,-86.5205245919365,-106.558974093062,-190.952773375578,-68.915244695636,-31.8897466793958,-73.5191805189855,104.308308200314,-37.0379516067671,-85.7676225878415,-14.0376703167646,168.172816468475,-221.807566107066,-109.184379705869,337.929019843038,11.6774676633389,13.358448088235,-48.634428067726,16.6125489374856,-53.1750721532704,-35.4249415729551,-26.0571426015357,78.2846415484007,-124.043054913855,-39.128071181017,-77.1607371613869,-118.034279426236,-44.2686337183077,17.1047867392643,-118.899538986991,-60.5185721073198,-46.4412065398973,-79.8119947338242,21.2854381069131
-57.8885142101389,-40.8954861890295,-30.2660282096055,-13.5153779877108,-2.58295783711193,7.68162249326865,15.2805762250394,4.65549592920051,39.7672488062304,46.9148044384994,38.4675153045092,29.2911412245496,43.422408940791,66.2392925039741,38.1352538306018,21.4758041388989,46.5367810146147,30.1048991330721,-1.73481524183594,44.6968019391398,17.0155492709291,58.6201962767162,-14.0276846294829,-55.3044701713981,-41.6608882376092,-104.811116248277,-3.64469800586928,-137.118135769639,-152.611083443356,-93.4351195538634,-135.804077999825,-216.651563593518,-235.373829252226,-119.568399954391,-56.3730574360026,-107.412882191462,-183.333960515193,28.3397158161397,-12.2975688866421,-52.9793317436454,-93.6406740266578,122.248667573486,-158.071262210858,-119.25908090897,280.118060673135,1.03653668460526,-19.3363627321296,-18.8998384840047,51.611994702371,-86.6528849264301,16.83648995414,129.957340343857,90.4196162532125,-69.7698799064947,110.097477463185,35.6283545385248,-93.4864394208962,50.3061194451936,37.6537990229362,-89.1061150118482,-14.9273456227083,-109.76642314866,-52.0205589234935,11.1242382708708
-163.81190705525,-152.680910315237,-113.44695988659,-106.748952455666,-103.392033538085,-64.6606240985364,-67.9847423125036,-88.9192933639929,-28.429706434851,-29.5292204376958,-54.8499287215054,-28.1014163039892,-24.3626753879001,-23.2968464548961,-17.4812318499454,-33.4143129867634,4.67332568666103,-23.5576576896876,-58.7351048279021,2.03259687794488,-32.1017307757345,17.568203714105,-35.6421333635086,-92.5923875152873,-64.5139608342741,-100.088442393893,-38.8255397290992,-117.682705663015,-162.714675307954,-85.7285742152767,-125.970106395883,-271.539444148419,-328.939972668988,-41.1756589082096,-37.0626542881641,-162.449352465652,-254.719801379856,-99.2869875721132,7.91766948188393,-53.8016218481543,-167.723297809078,-15.3040653115711,-129.85319013751,-152.871437434976,79.175943921407,-5.14156125486042,-143.487020257245,25.1368964982724,17.4285660000604,-211.853334948877,122.445783229009,209.662456371096,98.5131408712178,47.7947587454133,209.057864808481,132.650108349022,-44.7319384357439,119.587619708759,67.5493066031173,-49.1913644757589,43.3845987456844,-201.729707088105,3.55352437800513,-48.0865864100444
-262.040345972597,-251.965757890116,-180.264585185373,-188.907168123049,-187.734414963873,-128.703775847817,-138.708098128537,-159.626627603801,-82.2927873272694,-91.7009386911156,-121.189117939809,-73.1873551775054,-76.0256171256107,-80.7412118670138,-53.5439292507994,-71.6591393494503,-23.459836226236,-58.0407711384657,-84.8527942990681,-19.8726783585046,-59.7652410878848,0.632467862922248,-38.4474896867042,-98.0455867072189,-54.5017462445401,-65.2556777647137,-42.092868551746,-74.2282756890255,-137.500474119635,-58.3926555766745,-101.383601956553,-278.650738235762,-371.096812484601,29.0985351190993,-19.7503162315754,-188.984110916315,-298.61033086405,-224.234356238397,32.7534752798755,-95.0143461038952,-220.912527172456,-197.266781274057,-121.876407195499,-231.2051818473,-184.805290991424,-8.13939772210774,-289.896145512763,82.8247904722948,-35.0143499665444,-391.515049025054,241.968126338335,138.123676367539,137.573743102379,173.115172807615,196.806588555759,140.30177803874,39.8847107192129,145.308729863981,166.168001313452,30.0889878439332,107.468105607498,-235.507077100722,115.267046644112,-134.615854781126
-321.265317903062,-297.848920609913,-221.080732349011,-230.275245737588,-217.082645878314,-159.381007812468,-172.039751036743,-180.951289807903,-104.355798832128,-118.686054999367,-137.598249825124,-92.7482248998943,-95.8331916505937,-95.8166767430895,-59.4326601030628,-78.9338097201922,-28.1095623487417,-59.5248740241019,-79.3458402394198,-16.8284729674247,-53.1212639902826,9.8074998460286,-19.3782779430213,-76.9238530277927,-22.0751283543964,-24.9871901416123,-21.3644526408313,-21.1658198349982,-112.375669635218,-13.0744766693491,-76.9824510824255,-267.902158807669,-378.865736337363,75.410008033362,-9.41588028662262,-188.809281473711,-325.639815992546,-295.789606386524,56.0995675100971,-117.926371168058,-251.228565716714,-334.651781787459,-109.807598726992,-338.309724151612,-376.25973305137,-19.3501624810551,-406.636402900489,111.206636282274,-76.6135678815987,-543.39853300264,315.38125854925,-43.4707672946945,213.547458924307,237.964806414431,85.0515209529702,60.9432228522659,142.594771836414,124.756962782478,299.470115806486,129.426925312845,127.242026981226,-186.382062794345,237.085440048321,-209.904976279088
-361.266560478556,-317.538602245665,-261.606735648524,-256.714960589672,-221.819857385018,-184.53288012814,-195.671157458816,-189.282606843778,-129.493553512607,-139.244082066921,-144.350280789935,-115.498394148538,-112.744820645038,-112.137897636557,-73.3167727710495,-85.6900213105586,-41.0618637940482,-61.4500360816973,-85.49785188131,-27.185212224637,-50.7337209782251,1.87295321123501,-15.0122917501465,-66.3223678597723,-17.3533516265101,-18.8456257396544,-21.3558731115142,-0.117874385120214,-109.978360858788,9.26359421218007,-74.9792106496048,-246.66298620612,-374.384363648837,83.9231255906336,-17.363536502424,-192.607898446121,-340.367732985018,-322.518240263565,58.1353913139221,-113.405779020938,-282.269443913191,-394.670901538748,-121.258005079263,-436.012332546352,-448.624660316208,-64.1650349310293,-506.245241671198,53.5125335411957,-148.496731173947,-624.623878607916,288.34549306481,-227.07080831478,261.905858331727,225.335066102105,-60.2349128781489,-51.3402926534111,205.804063338107,37.1010959229267,333.283169460796,174.170821237007,62.6817440847175,-140.915763241405,262.983116755534,-233.050693293073
-398.645651539372,-339.249355246072,-306.983853040873,-286.450097989698,-237.193452875749,-226.473133431204,-228.987162676631,-211.321178921869,-172.454585941917,-171.676071667329,-169.509770769636,-157.306658743243,-143.628357705689,-146.816603581041,-111.797144988587,-112.630804616558,-79.2828215659397,-83.6885110384402,-114.712530842711,-62.5747384598084,-75.697638532292,-42.1668978843276,-42.6547854757374,-80.8071762566384,-48.1292385665806,-44.1669299610572,-59.9891744207754,-18.7163029824992,-111.333084924665,-4.99642062517558,-87.5438248833675,-206.14724015891,-339.817943102323,65.1319169955857,-37.2462988202353,-200.892542961077,-329.142623241407,-324.343189331966,35.5862354959961,-104.981513649412,-301.686303030615,-396.410364527845,-155.081012883287,-482.924173829399,-450.093570432822,-137.780144179119,-588.558363398089,-63.4082465773023,-258.740319663418,-637.133380388561,182.449774321317,-328.392122167508,222.500618292883,201.943302956304,-130.641159610713,-142.333470226029,198.395199747367,-91.5557142183393,205.329088955372,145.520486469151,-14.2759246172231,-159.102689104648,154.689198572069,-155.826751024581
-402.381231720146,-331.099959720699,-317.447554909541,-283.206235829869,-233.149647299102,-248.738120527164,-235.122386081904,-208.862544019639,-187.332438560557,-176.75923570191,-175.680958733796,-178.945226431202,-152.522193576038,-156.132217171222,-129.923150396991,-122.709163490258,-101.520266137851,-89.6943097825087,-117.582095149669,-77.3236864066607,-84.8467125057753,-76.9799062709729,-56.4054103655555,-73.784114435398,-57.2623337772037,-41.0181134070588,-89.8939449820224,-15.3684824297935,-64.7775040668288,6.20879529203774,-54.1064105618853,-131.153035700878,-247.086703869479,64.5097489349664,-12.6569911322128,-161.759254484392,-269.793698984282,-293.635176550947,33.0601708151153,-64.6383538992234,-250.762166357488,-355.179934974125,-136.728168465932,-448.144593386313,-427.15048505814,-185.116437052432,-587.80752274819,-131.467020358599,-316.99157049017,-575.717196191869,88.1492261019805,-309.695939650154,123.698165195381,244.552294398674,-32.0794885838051,-161.931477820623,164.258630288287,-138.756022295218,21.5836997864511,122.371939094873,30.7467461102221,-159.096267905456,-2.38210949216263,32.0490098271374
-342.96380476156,-259.249003451675,-263.671835644326,-216.117957166481,-170.545204386996,-210.293573975877,-178.955976643123,-143.194522106381,-139.491962816287,-118.586507865547,-120.270283383958,-140.155955436107,-103.122210436568,-107.276942075179,-85.1468726944177,-74.0405984838622,-66.1169249888349,-42.6428929301882,-59.7935914486272,-35.3963376236676,-32.9639413436959,-52.2064389337425,-8.49747043935661,-3.62655572894432,-3.57183015165641,29.3801255335841,-60.8448969427837,59.7032777710093,39.6299408375871,90.620230679318,56.7542804040609,-35.3479660426237,-122.541714147955,111.36391212746,93.7172363398238,-61.8463125973182,-175.223186798328,-230.898480836601,91.8091486963031,34.4211900550088,-131.697203466549,-279.820306339998,-40.3593721881653,-347.770969009773,-377.530314975361,-160.38606928965,-451.982262573126,-90.4826386252909,-238.099797604886,-418.703599671346,65.3633998377326,-162.517529120743,45.4139680903023,336.865659652965,212.552638759309,-64.2535604284358,165.157251880575,1.85437301371154,-80.173397841774,165.774700906516,214.011947784189,-26.3705011844258,-104.307627511237,246.621340480269
-254.398386703104,-161.142955577281,-182.325302003819,-124.47326450185,-76.7519796872194,-138.060480018491,-93.6223034683717,-51.9983503916609,-67.413218976734,-34.7045360721757,-33.4852838629139,-69.0706175025691,-25.0440516643352,-33.5828260747037,-6.06301230913997,8.25351177084792,-1.08267604284745,30.9819634387033,23.3617963304152,33.137714597532,51.3166354673771,14.0840036282201,76.5392030716344,92.168839806648,81.8011080977241,123.713706161727,9.22314689571802,165.525517205359,136.037326413023,197.725487694179,180.479682369656,28.7916308723457,-25.1338951591818,171.95326942903,221.036624668133,25.1819394089214,-95.5148438824121,-162.241043510064,173.556100636893,134.458566660103,-40.2739605166448,-195.081013232399,45.170721458465,-247.445183652488,-287.466998407732,-93.342208016935,-242.391569624712,-3.57243979989091,-70.9212761291424,-188.433446134931,82.5478667351838,60.2740010895462,17.2803315327306,383.080748908748,443.524721407645,132.580255928164,190.920557382084,261.309053437001,-93.2579724741889,220.737566335036,384.580988374624,209.840019711534,-142.71188685386,360.495881062297
-193.654563568116,-100.837187895443,-133.283267970399,-70.0051688653789,-10.490147831705,-89.362426505899,-39.9048806544881,0.0257872420387617,-28.9637911789418,9.70624441084079,18.0102408469265,-26.7801225887705,21.2239580955223,11.886460538078,42.9752206759193,61.7441394820699,36.9741726202866,75.8986480908611,73.394496805427,74.4810007333474,104.189098165422,61.9435955448756,134.915185480079,143.668971733013,144.611159277114,173.407843672794,71.8025210372603,229.89267267396,162.911837453774,257.622571830559,240.325731296466,31.4014076784342,18.7601894934903,201.489295755226,290.042339108636,44.470610634029,-66.1614766409036,-117.338124545643,213.672114484015,170.694376196205,-31.8176553633879,-137.214874178362,44.318841580418,-198.181122693972,-186.462317479856,-59.7367633904195,-90.0805432365711,29.3111555015122,44.7530937471251,17.8835541768531,69.2091318094411,229.979371136465,-0.504127432700153,325.731149063849,498.679938570418,307.884549079109,177.559076345931,429.980785042012,-100.79390822781,195.478537176468,399.080928167245,396.787716326963,-166.993303266152,328.042827602181
-159.82230891482,-78.8869547888087,-116.599670135995,-52.9780353031241,18.9326203166777,-67.8854599369076,-24.0486101156071,12.686429582764,-23.0483122885277,11.1142852388494,28.3086370465356,-21.6297696890265,27.4405787641023,22.5221508150565,48.5936831896177,70.8399314013657,44.6942865138332,82.6591618145551,80.3974759459511,83.1319415003015,111.651093423631,74.7360316074257,144.851905892363,139.967499976094,171.890311775049,168.989204250486,112.584487642413,243.25309390065,133.596643976733,277.92970179123,246.396701926609,4.58789280746291,16.7434231834404,209.764154767904,314.830001766441,40.7001576467478,-80.0497947515944,-113.00295515195,218.632873854238,173.179573575342,-49.0436003484936,-129.032883052763,6.77791890701343,-191.232334265639,-131.99958325543,-82.5270682397961,-55.2372030664549,-7.84523068484495,44.0636867821568,107.062670566324,11.0067127864644,246.448086550804,-38.4362874646436,210.555553977929,369.336321358344,334.193638419463,110.075643639275,378.846884324757,-130.253637335051,99.7281944117373,280.943810362975,431.212241914225,-179.305816532854,221.670566212319
-108.068324454817,-43.6013100555157,-83.9389263773528,-25.9145183028539,52.9950437881213,-35.9418415210865,-3.43135281651267,34.3022861153321,-5.24971824167438,18.0693574130126,45.6059210280744,-9.14780488740332,35.3933799536437,30.3026583306742,53.9537686283336,72.1964461548439,58.5967724849476,85.7407509269752,81.9690379050427,93.6670769471955,108.648237731222,87.112753737929,138.242526706117,124.689791402081,187.282849597072,153.245810426577,147.682335443093,247.917640064908,100.657759592163,308.496058542366,255.26051920664,-2.85065532242814,-8.87516490403807,230.811351760693,357.568920364986,71.4725984811428,-101.312621108466,-133.829483759695,238.765915599382,205.911572491966,-27.2032809317939,-149.34551613667,24.0486373295524,-178.637749912284,-129.61975677551,-111.483118435852,-80.1278007011312,-60.5441539225122,-3.19576819261131,81.3496139115293,-45.033675400409,149.200309876251,-74.600609387825,119.743677652533,192.971257135605,218.526548928112,46.7442820843161,196.326209294199,-131.730843541116,28.9577573549549,159.536205871389,346.809900675291,-142.299730052104,136.484307841169
-27.5741421052049,23.7692700315327,-20.313499277958,29.6118295475138,108.384692637916,14.505582037263,39.1524195745686,82.9453096853427,39.6441157531412,51.1599814537085,82.3967743364873,32.6940199797758,63.8205698217589,53.1639937823535,82.7738601628955,87.3953102344146,87.5769809774831,101.220577474208,98.5900476589727,118.943266224274,116.161437891321,116.20330890669,147.20178028797,125.608895323313,209.337204419029,158.462383734874,191.487202665089,273.606636938623,94.7661871822647,370.01760028972,289.559949992648,23.2167112279041,-19.6573304998777,275.662261202318,434.308670891029,123.604052706705,-98.2500504003976,-137.729832382071,294.251644923072,267.905958717962,13.7579611229023,-147.656104209422,96.9846571454874,-133.19001450506,-126.879555103087,-109.844655017012,-77.1209593235876,-96.2800665640474,-1.55278546465908,24.0293968105496,-70.5524734223559,69.3992328398851,-83.0973271688875,81.5787106233056,100.175575756189,94.8791327079719,35.4645543829498,68.5397928616376,-76.9629350348071,31.1400842368202,105.70522819387,240.522909579845,-63.1115808743366,100.346764888097
43.2583440667244,81.8393687771152,38.5655202263553,79.8538994400716,143.097880262566,54.5783445866902,72.7578844490595,124.303333058619,78.3095409093398,80.4656909452435,100.131289406842,72.305777287272,85.5878546239279,73.8633117848908,110.077836562159,98.3343504237793,105.729839762929,111.604174839069,109.136207646111,137.056430848531,121.088968994684,138.101375977899,166.070671430727,131.964593225497,231.212948633146,181.445474609571,234.106098820698,314.522495260639,114.164745297173,442.676256940512,335.918575826365,65.3212908377321,3.85549003361295,330.953648392616,514.679352182725,161.263650365877,-78.3707135113715,-116.751938979018,362.672125120712,312.56142625017,21.577079045562,-116.901557106448,157.648466407022,-82.1663624316595,-105.808983095192,-90.0809514259006,-15.7699517796513,-105.567598006521,62.845016896269,13.2877180344866,-76.0355149677292,77.5717322141075,-71.9970841289982,79.5726435359338,103.6696489498,65.4827999990589,63.3184028880995,64.47079356691,-4.1805440531797,63.41289942104,89.5330395143455,168.358928370347,5.58160160191491,87.9513134400227
77.9344391563048,94.996165813172,67.709494018596,93.2646213162043,124.592747660947,68.617814097027,75.4610844160914,125.570391283007,85.5292434638686,82.5069887573769,81.0548924253339,81.0803574034572,82.2172927851491,73.8275960593089,114.419637478698,92.0571194014901,103.918195180167,109.144158744404,101.769371948248,135.249572245555,115.426539258173,138.205231280444,177.840245912021,136.692996275269,242.575622208498,213.821043489118,251.92286347645,356.187616080309,160.540268913926,496.849614789938,379.900383357166,111.693977227945,38.4666181626762,370.904316493662,574.802500625859,182.704745149214,-64.2790790126344,-102.990815680029,411.634130043075,320.201234505308,2.42666061430533,-94.979809391154,182.073709170762,-47.4852162194469,-97.1886986231534,-58.5835860304096,76.6893740960959,-59.190451246796,140.890558853348,60.2540832302494,-56.5737657677115,130.518957639026,-52.7602346301452,105.645037655648,139.17201685735,104.775596416013,98.2447279918569,109.515199038143,46.7531346912239,79.5731539865271,76.7185511868078,133.481450376719,41.2112195472931,82.1342738018425
98.0399554490196,91.4181232468607,87.7435641012482,91.5440838117188,91.4250707750262,78.3885991168804,75.2979655278407,109.196652963389,86.4318372652417,81.0902528581115,63.9576326315832,82.8737822504636,79.6151979140521,70.2838863926392,114.140747442946,91.9199992972988,111.224530106596,113.692338061354,104.19832197844,135.04642945012,123.300469006949,141.792248201192,195.467832642499,164.315726810098,254.37312928051,264.900509949852,252.349748436314,398.512082086136,262.935214287459,533.451836584932,419.478796077113,177.718633689029,72.4381329194163,388.489805130353,627.602849695425,205.787224459432,-34.1406068515587,-89.3562165903961,445.16578427201,310.27155066787,11.3344173841779,-76.1539744251023,207.552295534289,15.6750215068418,-96.6799267115298,-5.14828658012412,159.07660552897,37.9124841182877,193.745733257849,123.025959988127,0.520329766146029,166.206094643135,-18.9350185587998,150.314234995132,163.626030587365,140.833004775151,130.751732282456,137.200389970739,83.8001170446379,92.0125521410724,83.3645520068755,132.613603056081,71.6818118985019,92.531425347883
131.457224117704,116.892748712983,123.189358600429,112.421792095127,97.4100873568261,105.521744637353,103.497291254994,117.732196823224,110.812376140607,104.854588944572,85.0528118502499,108.117408503824,103.490247369917,88.7124195894175,131.818066907601,118.514230261271,144.815337980528,136.625378662042,133.574356618791,154.801951789408,160.708493666793,168.603740954316,230.567779211945,223.713849465056,276.856542005257,325.937675879152,271.260138116166,432.897702768424,409.146393675406,575.761529502724,447.864401036915,266.46129831879,118.445895549432,406.462959228077,689.179109139309,234.779451310093,41.343811118015,-37.624650547687,494.618608556761,290.749781550625,69.2428499328951,-20.4357368231235,251.050854682993,151.185192061147,-66.9138604025638,52.5817768942672,205.615967254346,112.342708879475,213.487168436585,167.242157874041,60.214764016072,177.208215332008,25.570188918462,176.317438320558,172.202900432636,157.859825856936,158.661897651433,155.066518338255,120.131861149062,119.695217619336,115.752539726339,161.400105304093,113.890755553475,121.326944289061
172.587187435253,165.161725732013,164.811111358626,149.683118787444,135.46985787099,140.80184034727,143.878740074464,149.724312415107,143.905766654334,140.334797519923,126.543310886269,141.734432772497,138.392715016817,120.437604206475,158.168517789946,153.123082412839,180.251300318253,161.172822887577,164.480147659961,177.71844119906,199.261490393175,197.302320472349,256.189466601538,271.902820305087,295.811835718666,356.23376466815,315.302307281446,438.569694763842,505.037002076005,621.789642924552,454.387617226237,340.271035662975,163.289537678046,434.597684416489,732.059985372947,264.190648385946,129.882429497682,42.8597226118899,555.565217843782,248.049513068437,146.925025061353,61.4607509876928,288.629085577733,321.666891761296,-5.77078490734555,83.4002492321497,219.807653980257,122.590334197024,210.833179648686,198.829503167114,77.2843160070423,183.195803100441,61.0667262073429,160.055647556531,168.244747529504,181.192154705878,170.255589183221,177.188646325422,142.904875579547,140.370508629895,141.993974818781,197.489836655163,146.209952613316,147.171257515976
207.469819715889,202.914146928858,196.610975368771,178.61619310524,168.95856091336,172.208278687807,170.629211415347,180.134497480167,165.088956520239,164.584085888408,158.895671389539,161.338939233177,163.777790937172,147.254120710285,178.777179613248,174.806018026509,199.109650740129,177.637458655372,181.656034442841,187.513158239007,214.283759799387,208.327423202353,257.235197597495,281.13114317948,300.296061140032,351.293212214438,353.559457981571,428.890193551128,503.961088764313,647.338775657554,458.078470228224,378.175324576605,190.058688096012,454.15573573655,708.661365923507,308.642357072756,192.402995557916,121.351870681936,579.173505816008,206.013382080053,231.66915731845,139.793182072427,317.651967310343,461.458639353192,69.6770466430257,92.6269889895936,230.713072449507,111.259631507113,208.001319362666,237.283344885658,68.3730666567391,193.721834213279,85.7508351830349,130.314599538795,162.251388119501,215.792186575439,163.20387371408,195.394579974151,150.815285858489,137.543872220068,152.018101591817,223.621482857432,157.767477797721,160.295285093103
234.901528781511,222.483489478225,218.101651157077,196.93658541885,187.795939316785,198.193297641026,187.613299728534,200.803647791847,180.764257040628,179.293559393316,180.053452184037,173.436876273633,181.815094775319,168.275996886417,194.975718789598,188.931316516357,209.458812809275,194.035967946921,199.718237922892,190.380272598603,218.584497509076,210.067569282962,254.139911729204,279.409703115143,297.142433878481,348.772613736157,358.770526579171,428.926656797561,474.443473447767,632.356187385131,475.927232262614,397.685991401769,215.152346503661,443.883332189778,595.95831266923,375.799921440733,244.1243677109,197.402147278458,519.114732464694,218.952029637391,334.803743575458,220.598594403513,351.197103550227,548.430255317491,156.979086832724,102.991996202489,252.828263002993,114.721052157977,214.479370519336,273.476308565669,70.3054004366552,202.178476892836,107.933250749505,116.753410175911,161.943170745193,234.966597289539,150.615982232426,204.841449336645,158.775232689763,129.846283615483,165.398681330593,239.85804794352,163.316643812443,172.187572972989
246.462919862661,227.785645003482,224.677447660713,204.331929447004,191.948991775848,205.966014226284,195.57218620154,204.311252475418,187.391668705864,182.82333146489,185.891169927369,180.500140242072,186.830753720986,177.117154181085,196.559275700139,192.644550073362,207.672384475146,197.052676383497,208.996023724447,182.770603830919,213.607272583516,202.615971569534,245.370898158688,275.219550345489,279.800541586196,340.879066762045,322.008827577935,412.726615292975,462.236578021751,561.233896200179,468.623703950033,397.149744550826,244.657568853157,393.414788227991,413.873062288039,408.669069312959,295.251333070381,261.222399803196,370.148903949812,271.407038938239,420.950289489675,290.680102615426,350.458733234818,586.087923206981,234.323678680794,106.287956250433,262.298148653882,111.702073780733,208.81139262251,278.867143206497,66.7646159687041,193.274680257141,109.119835932102,96.0344718460788,149.607129442633,218.544864700654,132.444308529249,199.164975473914,154.965581709646,120.001057111393,169.263379392925,235.663847706916,155.506725345026,176.357246092782
232.24792073106,212.287392589921,207.25391817395,191.835937444041,174.925037026703,185.519411145201,179.707229484056,179.154087693659,167.728511744374,162.505558222222,164.065224492906,169.492202629018,166.492560906133,161.856243882155,169.459675225964,170.41156293052,182.034092198606,166.634774800628,184.026639310741,156.750834119843,180.714043656323,176.747551194345,212.072045233051,237.569179099876,237.205700308445,290.297041966825,256.895258798403,350.059520282732,432.833703746834,444.155574513601,404.217816230175,364.816428175803,259.294628782554,318.435897981381,236.060541023799,337.653157234048,322.147546122102,280.874943258621,187.256122310091,268.144787778854,427.988590220946,306.801318028033,263.867694825209,582.358016627624,257.692981060289,88.588192291895,242.058784616118,86.336722625151,173.571932999953,252.170720612309,30.4752552118071,164.294236803817,73.44459124719,43.6881226879824,107.870616527821,178.063616923515,93.4685395879265,166.676041350629,113.917366103144,82.7868836801969,130.850232890964,197.834573651198,112.944042728497,152.035602326988
209.666374882428,184.785874630945,178.422565387372,169.596345827917,148.22477201571,157.053875540218,149.841310440761,142.546555637814,135.318935161283,132.056262093231,130.833324731241,148.009274928561,137.245646877827,134.102729008602,136.46990572488,137.68219467693,149.390694840884,130.051805082723,144.752103968897,134.879222740066,136.017808519389,150.925233482818,175.345248113112,178.168294560361,191.551678063662,221.496105424941,199.840568046135,268.809593587032,381.648502454858,324.095018418379,321.140914082721,331.308407150099,268.649075949601,258.710136360278,140.90053029224,195.260872832954,335.105184826738,266.942469955819,62.088040934824,163.656602473118,382.700173371904,282.530435750426,140.202249570519,559.465909158398,225.472616074059,77.3762958721076,218.856325893068,71.1467474522214,138.725684263704,222.46047685711,-4.09602348766947,136.339389013074,30.1744998860538,0.544575512260572,65.348235550324,138.618063168566,37.979924421765,119.018934195127,39.8019849894861,30.2948967062887,75.1206999171762,148.781652367082,59.4114138968444,114.59021552272
207.036347547109,174.712375096759,166.644305347309,164.940252908295,137.957230577133,147.658343219254,137.961539778484,133.17009657441,123.705393508562,123.36819470794,120.473666992682,140.66452013432,127.916280127239,119.48091888747,131.92284139511,128.41976380854,137.862750250379,129.812924688144,133.988520801227,143.472777509932,121.37443227274,150.379350293818,172.54427920598,150.377126897731,170.850410859746,189.77670357109,170.82328849061,211.213379849704,354.822437990368,227.744894127189,263.16771840008,335.145610073022,311.83910433211,225.908453331161,116.999200640237,98.7478692256864,380.543107269874,274.531450053403,40.9140050553778,19.9024308992249,378.581889612937,287.913701580316,92.6910685121648,537.130198612577,195.385358950178,99.6817549808601,217.949078579542,91.9366935762674,141.060979882833,200.572613226846,1.60960456409433,128.966594427788,1.16961664238283,12.9533162496284,66.2782325192071,115.233566603838,-14.8148360091949,86.2153856469559,-50.3233353491726,17.7149496244249,62.178141636481,127.740215280126,40.4962277332106,104.188062752268
224.408025717921,188.798716366173,178.618919818832,181.308275165032,149.236272285046,153.792625113948,148.584563598461,153.862522061497,132.871452007969,134.552493959991,134.001693080997,144.408115304366,136.989029549086,119.949471985876,143.693358557449,137.402769533944,140.584407623388,151.056239109771,148.336260273231,164.262945486643,138.019239464795,157.018435453501,194.042435218934,159.687507991197,159.291163437076,193.541791511866,145.205820534895,176.856115288738,355.596756168472,140.551068563592,223.363112378896,362.704757088222,389.137182392794,175.223726033112,61.6970466454685,108.272479189769,459.833091278636,316.319693980335,43.9278897588228,-105.885934870788,422.698285970259,344.459756700498,132.857075470709,513.883241516031,216.886950472632,114.38361836555,217.828739692301,108.011390602626,147.855940438071,168.960916060576,-5.10299450182406,132.980191869007,-47.4376120523717,38.0947402490437,86.8355645726037,104.494770185008,-61.4226612412067,58.7098713924818,-142.216708233374,51.5048499067851,79.1871035354243,133.655480991763,48.8341314833446,118.97103044501
237.877085818535,201.298187511353,189.782653226789,187.567653841544,154.425932875632,148.395277818683,151.281589427317,159.66145032648,126.469131102641,128.166531910921,133.364953398073,128.16813010558,131.5251126526,108.086018910918,126.759252910034,124.950381813179,117.370603742622,138.564391590982,138.728750329687,149.025490400833,135.841416876535,127.275857618105,185.119391709324,151.796394086066,111.35272999704,178.309087559813,86.7738625566396,124.327127683436,327.886509648371,30.1275258026426,169.22487445818,358.474792743933,441.564990615872,57.6383354746015,-116.12299943937,155.471790493388,518.208627703438,337.096826502104,-83.2747159410721,-241.47322151632,430.69396067301,392.464983305398,156.690148337216,483.701035470716,275.168450153417,63.9519220947,196.211394320152,64.8353899820293,102.255201324319,141.159137064969,-96.066994599617,122.196448043919,-141.286388647678,-3.66153787819989,49.0277193853029,81.9349448028055,-103.652249998888,-17.0748146242509,-203.867653883021,63.2003221780444,49.512914611996,128.742206199092,36.9284065390582,114.32994689648
238.657994021704,197.259579643108,182.624160103286,165.98384520758,127.665070827144,121.461126679982,127.578442717757,123.130194962232,87.5239832438944,88.106834598898,94.839575913203,85.1015070544666,91.9269062293547,67.8166879513523,70.4035733303157,78.2472356122718,53.7766321071398,77.6301090460006,80.4482528750111,81.5046295849626,80.7452811741374,58.2114937705287,113.024556829004,91.3303301923795,13.9612741067377,105.264970292775,-3.88502336216046,24.3126331419811,231.101377031781,-119.693687554269,74.6142274479216,281.375174078786,420.865019595108,-107.088303872987,-404.498056394314,123.310468162521,525.1792402968,300.421810115545,-366.85674143391,-407.947612899218,361.472210491613,378.645138269609,119.172311801228,450.566900385914,313.37316249666,-19.8467976422846,184.90665007514,-6.15634350639309,35.981681497887,171.890042105716,-220.415354003768,81.10871038198,-237.210749462987,-101.267068489941,-55.2002161405544,12.8771961985216,-131.85987184048,-137.484275079015,-211.13137258947,15.9504595336099,-32.0938653592318,103.420664424814,-3.4889016214749,76.6224577517638
242.083961090077,190.945064788485,173.545858149221,141.689742471234,88.9055129159449,99.2232077485513,99.1140695475496,77.5404139221262,50.4153743218114,46.8454950665364,48.8990812703686,52.9219264170466,48.5901489966274,24.0293758067154,20.5462934700472,34.9250298278598,-1.91891000376732,19.4195731941684,16.0111774678989,8.24031480456976,8.58587681008924,3.93940140740631,19.3138526851917,8.65082554350096,-80.9782322627838,5.04662834708311,-85.4304267874823,-80.8749538007641,92.2424199227283,-266.449429747773,-47.8763736811256,156.590445414732,355.430240591646,-224.972895769994,-663.694953522184,-21.4639382149245,511.827803219134,250.540559879809,-612.962036631383,-524.92299786404,249.380701570286,327.574562153519,101.679664798808,416.025517816758,298.718034566527,-55.0955434471693,219.146665039334,-24.4857551594846,27.0601955731931,257.190922466584,-253.709063727536,15.7765363451507,-264.366686057186,-161.338732228501,-138.816909036847,-107.230506127848,-130.864949647492,-211.081803951678,-176.564635180287,-34.3172519184953,-83.8871028168067,83.0843098662394,-24.356106345499,41.5223723196853
247.521756250916,190.081640275882,175.213583221212,135.077106042647,74.3725230221438,101.380310435467,89.5741393453858,63.3908393177585,47.2033129084435,34.1101750451175,34.5044516784434,56.9176564686406,37.9272132309724,4.40452605658116,15.7010053487098,29.4207591055548,-5.10343418476549,8.08364390055549,-5.35774893896151,-19.1544915362227,-22.0110166166363,-0.0491392229604356,-31.3354664276066,-47.9623937145189,-117.169417953035,-55.0059156793795,-123.517576385109,-115.429405666183,-19.5537839491501,-319.341663781889,-134.875417995766,59.3610693257577,299.383929747055,-216.991084468176,-710.810182850163,-171.546813249406,490.258997915192,238.721008074451,-620.635473601112,-479.565844324977,140.21720524825,282.619886792177,169.72809559011,361.25097788291,241.899682518398,-42.0257939456477,253.160426856769,2.00459668986693,52.4474783824602,296.276927457132,-176.896619066979,-56.7402911931685,-204.906252049484,-143.237509939169,-159.459382472353,-223.27641441375,-100.114311472478,-205.064599239294,-126.21398744454,-39.7079999707381,-88.16008168374,55.0671267734566,-3.24674357957482,17.2505084886933
225.421516232572,173.044664855639,161.488353928394,124.960700544636,68.9230371492836,100.589921377216,80.5558536000179,63.3729152137757,50.1023920479087,28.9971375003856,31.4938481918837,63.8732124975235,37.8886541761885,-6.79108936009274,27.2017391165119,39.4144317099471,10.1957836682444,19.0233525349483,-0.828292041442301,-18.6444392801996,-9.54218990661229,-0.890323596163144,-44.992395918743,-74.3367102370672,-112.146164264281,-66.3569232627374,-131.106003713284,-82.9942395343654,-67.772115426471,-253.61904266343,-149.73734279117,29.0141896620586,245.039372905509,-114.034821970933,-517.391257941372,-191.443149062918,402.05649542673,231.196179527509,-427.141055856336,-278.539663606119,64.2232411007705,220.855325219891,263.965541272165,257.957983363997,155.861286310427,-50.2928542025221,207.437558083421,-8.29268077315647,13.1016511309205,225.597784501154,-95.3060586848969,-128.389565720749,-127.465718175613,-109.479289125203,-179.844865368942,-280.43571202855,-74.6143510500088,-210.709485745114,-90.4429398412903,-43.6568393729841,-124.986544585463,-38.9164978499757,9.80823077008609,-40.730087284013
175.103933812115,133.382001052762,119.045738416752,97.8989130067445,42.7580075016618,72.8269740338944,50.4018765227835,43.3928099773123,26.3637259207931,4.75606012581009,4.28385540271046,41.5036037086853,14.5979123232212,-31.3761710241845,13.5479283456355,30.472031810229,-6.46225030684568,14.577084287324,-7.45471608926494,-35.1568234259257,7.59663539884324,-49.7813545170928,-67.9092103986096,-83.0437174098848,-115.646488889237,-76.5726210527426,-134.78854227066,-66.1840458934901,-72.9115659696556,-163.765986439771,-151.168574096855,39.4023933202339,168.053636214346,-17.1003599199858,-273.499806968638,-102.923350904921,226.962430821824,170.86569475882,-225.698263445283,-76.5780268208467,19.0910509050248,108.533199643621,281.779025605711,108.726621572123,55.0059945281351,-82.9203661320664,113.727293892766,-50.2671074336815,-77.3286741369339,125.171909926751,-79.3333330221743,-182.222347760245,-120.075954372577,-109.639519077234,-230.239499828605,-287.371866585674,-77.1284584919898,-271.48347152744,-80.5405789410571,-78.0214782815537,-205.9559917503,-195.213942582676,-7.57615999300428,-132.274613769626
148.701237586319,110.814055839071,90.8024674625721,84.0930685108377,23.8745713524104,51.2495241247872,27.7055841258427,23.5010857275641,8.771450754308,-13.5088606864305,-21.7198469882003,22.7840011271139,-3.46099417557945,-45.7588391839043,-3.31691858890456,22.2878428801091,-31.5465897266784,11.2667115549792,-8.96991769860215,-51.3368385683532,24.1403803311918,-101.848344606658,-82.3938088646474,-56.3915491838745,-118.168086957903,-87.1843122560892,-125.328033907263,-92.1981234594683,-52.0406042962039,-127.762060595439,-195.226020962117,56.4849932774518,98.8873100487583,33.231620354344,-145.476934582498,-39.3696503540489,47.4682304655463,75.1319582046157,-106.352608658315,13.4488668636253,-38.5725389942882,-10.2316201290278,218.204280539104,-40.1701535950698,-11.0457964375219,-70.0603545873834,100.183919339361,-29.7715080673851,-78.4451473547202,114.842882775541,-90.9185103582498,-159.181550062924,-179.442614179223,-101.455205430381,-225.000884825381,-257.005617707159,-63.0286907444551,-281.791686059301,-51.6496993200309,-72.4780608895834,-222.015558380352,-296.837027144268,15.1840468137778,-170.829428152539
168.460889601558,122.366260522844,105.639713568242,99.5603698045997,38.204044884548,67.8815157605472,39.971560014306,33.217009290051,31.7743588493318,2.70162033379581,-11.9784260797438,42.1383048407349,15.4953606406969,-28.0638679591161,11.2231974787308,43.0650019318993,-21.0269490174492,32.0672266531352,20.3535449485651,-31.2603864590197,59.9903994438581,-92.3895076897741,-42.0542692560444,10.7946557529265,-82.54125886765,-52.1021954188036,-93.4684872209852,-97.698698438289,3.04586049127998,-114.803555639586,-223.091384350969,59.1671464727772,57.9603920815367,67.4529578146205,-92.2071587830101,-29.5536646198519,-73.7480474066509,-6.57984925334766,-24.2567934925171,58.9097123440921,-124.218342339078,-65.4927954061941,160.208353364891,-141.223624821974,1.33072162299324,-4.5158244325271,192.018452668094,57.6859323521549,46.9729204344716,190.416665758376,-78.2849300530608,-24.244701711852,-211.177771870603,-54.2935546486168,-103.10718207942,-166.344125000388,-1.17206766301632,-162.255579606501,26.7439042172465,14.7270967923407,-126.444200901454,-257.425945466391,110.052991798292,-109.117127424308
174.184822772397,113.507758650014,118.539962908173,102.880211955874,39.5564990775634,89.0436249375485,50.5441911759571,37.8883583124592,53.0613223688275,16.8777072676116,1.2763561271732,61.6170395528222,30.3097333006785,-13.2909735340466,29.0800589056909,62.286616087863,2.28933687602091,48.7788273487143,51.15112427316,-8.22885584203977,92.9266269644178,-56.9345969376081,14.4351082958356,72.9517662824514,-37.3863307622977,20.2103233130312,-76.9184122031973,-52.49644160572,68.8072166365747,-97.5544161512099,-160.641807193256,18.9828678984565,5.21959463302107,79.9415289479782,-32.1776194979837,-7.3032865928625,-158.034825697876,-55.8711897952954,35.6700283127564,146.436691223856,-182.549301570392,-50.8174617260719,148.49815116323,-186.307891421687,67.6420932944458,40.687491689711,267.141146283681,103.844509667432,153.75170747315,237.728924621537,-43.3793197565882,141.317075576883,-152.158207364036,-20.7344204276565,49.2856317180415,-31.484990765635,46.547240475547,-1.83269243606681,98.840447638716,90.6646820491663,-20.0636651663864,-165.605234563645,191.003492830398,-27.7220817577504
117.817707969673,47.585139210273,84.3316304234085,60.211442459679,-8.14471467737501,73.215223866896,20.2464872813297,-2.80332735731529,26.7227134415273,-11.9368737678926,-22.710588269695,40.4162217045773,2.79735982517675,-33.6647146587604,13.7497422933049,44.6674979183955,-5.47855884029887,34.0381877808914,51.6617781929226,-28.5469606342622,81.3414592950336,-73.0929888053118,17.3828619792086,103.582101031507,-40.8668703219614,72.9882726413544,-106.800445962815,-3.97162030548804,100.481090801962,-117.626203348469,-46.8146003579839,-57.0331376751029,-73.1394429129224,24.052395601873,-3.20470268023374,36.4896520475437,-204.115898588013,-57.4096484896606,29.2396850349926,236.651259990393,-158.926788307023,-1.90364429360769,145.170310119633,-184.372155359308,133.772509309884,43.4618918573301,252.153195834171,76.2735728303924,142.310407665274,190.659947559633,10.4733616935362,219.051289707978,-33.5908600915962,-27.4687295114475,117.60543707783,80.3289701831038,31.874682699714,85.8394394993062,129.253457873579,82.8303823820852,21.7011789096889,-150.228265975298,208.658583203521,-20.1676331008563
52.6629069091117,-15.8776762055664,39.309556891024,15.0515219542304,-50.2421762569679,47.2555592041639,-12.5746772220475,-43.618087640368,-2.25780382483237,-39.3885841778388,-45.44059985013,18.6615743886121,-17.442386968685,-49.7733548388443,0.0791661465071982,28.0402367390621,-24.1812587787816,23.7254487731242,59.7657539536862,-57.4499009194312,58.2198880684344,-133.751915416913,6.8735594548819,150.38389924381,-67.347000022394,114.128514651507,-146.380887824964,28.723897364142,117.377230533916,-175.433428438294,49.4528387201038,-81.0683852550282,-103.965298133741,-87.484866195793,-41.334188351665,86.8350942175935,-143.940728326609,13.3294652014025,-34.4168502972555,277.049764437856,-55.9609095897773,71.0709054175179,132.53865420345,-125.241554545291,193.051082689707,60.4060531813409,216.693280901653,71.7378355409978,102.651098403827,106.04102749508,109.682164662032,204.174476580378,97.4579987759267,-11.3133257597043,112.249133632413,142.841892040725,26.9058314939202,126.795464420314,193.102723290667,72.5127919710301,56.0495558414148,-166.875244910205,245.654636249356,-62.5313010004588
50.2195850646453,-5.11342647732486,44.696663078649,32.9317183839936,-20.4043901563714,61.6267945251138,12.4801540354639,-13.4052291865008,32.8587962084363,1.37347606132122,-0.107269040903998,51.5490673102375,27.8297575041935,-6.48178841307404,42.3836714147162,70.8061409366716,-0.43519378251419,69.4525245147725,127.15323081237,-25.8688129883821,104.701553337282,-163.866435314055,72.0251028771012,255.540346024908,-39.0039317889395,203.75973539438,-143.78423603126,89.0334381086498,176.878865325339,-196.89216275258,136.681867427955,24.8103061436399,-11.985697564485,-185.460027899626,-75.319211492791,174.374541450778,40.2660576715521,142.364313945305,-82.7382772348357,284.793567878855,84.5229145327225,172.986913051225,130.107891188816,-19.6439971823548,263.706040253245,121.230545887465,229.045687142757,143.928350849509,147.282104865829,70.4410867117466,246.751809922587,176.847853005138,242.065315307108,75.3337923917177,106.473063555071,185.003946682132,118.102734237133,193.804780633002,344.755398665862,154.65809823843,133.85263981573,-92.4764149336946,362.625686861988,-70.2038892944979
88.7858706154047,58.1153748501152,89.0270972669531,99.1867202095007,56.0626715084189,106.108215812461,78.7326922354865,66.6174689430908,105.406128316569,84.6769594215306,93.6740391353023,115.059108901176,106.364921893432,75.7293623927578,119.737656760517,151.618590679292,64.9064114643479,153.907888723581,225.066886287665,64.0369392576451,214.741542563575,-128.057824832377,179.910627992482,368.205044542738,40.3835643682973,320.657336133153,-109.899839740722,178.002188528686,254.24760520616,-156.43301460469,227.60917239155,195.862006345915,165.652670508308,-241.539189402833,-40.5090738887924,270.697939118155,237.345992816789,271.682555737143,-79.7352538150994,270.142336762276,197.247004356258,271.558496960846,135.250918460177,68.5632298520708,311.327424862145,191.962126332406,244.931771706543,224.601082612552,233.205924247424,87.4317593794564,354.198483576679,163.89401133981,390.990382475649,191.48883456217,110.289647226341,210.706552502979,266.294768600662,251.561617954583,493.979032125054,283.445989220524,198.075518302175,43.7427576416046,479.456510801589,-15.5541211949647
103.246651885932,102.333831991509,111.060089733505,140.589219919227,103.913226829062,128.997291330822,118.460495542511,114.682096823436,139.450166437885,129.274063929356,152.230171181719,146.864700052083,147.933008215207,125.757340018507,165.520449267098,195.773891196589,115.983980115053,206.536104014754,278.995554937026,142.92716375151,288.145599575549,-57.3467274459951,222.125789864811,407.555010723565,94.417108595408,370.252843195322,-93.4597050371851,228.31526972191,264.399198450009,-111.439463871629,274.001810200497,278.633808800364,299.552603926917,-274.893689118762,25.6735979679673,250.405466954704,312.073494728596,357.944777743385,-53.7710942478274,208.984088653914,208.152930312985,321.101371289979,118.129023817778,99.814766713277,280.377620869506,229.635882618653,199.371961670903,242.712036135851,243.962542329018,96.031599579783,377.943028989097,132.307135661118,474.399863444236,276.235212872086,104.448855282622,189.175254251077,359.994770562152,220.858753414969,512.105221072862,350.347232590598,198.563289185903,109.187612703997,484.618642031419,77.0668188675916
84.3769554534279,107.024108081646,91.7026563162929,134.126785495484,104.81809511569,113.971532207557,111.082329182312,110.182335219867,124.820670567357,117.820453572409,151.345917576147,135.420738034537,143.125087261928,121.241871762026,163.148969684768,184.247873690223,120.943580176995,200.617006744158,273.878806325747,170.013624385603,279.613228451348,10.8061362545019,200.320180687533,377.723234506997,103.096881843172,340.60372776225,-99.2384182618781,225.846288140417,212.436216615242,-90.9806225554696,263.814475084066,231.113542297646,317.713569893638,-283.26238019949,68.1541643737497,95.5441600779246,257.548907807529,397.318196575857,-33.5588472448348,112.972003672605,106.436282428449,325.693841912673,62.9960085355285,111.446424383811,200.06227790473,224.545047464326,121.320222417572,211.125902113076,172.433289397035,72.889511544717,332.549660141917,87.4252513874735,438.482445679695,320.154391287562,124.267543135948,131.739284410405,357.661864248892,137.154359876458,396.028052710614,331.244206843832,192.04157812321,89.6466319026861,370.732039796444,188.969194775533
68.5683317361175,105.739223750946,69.0874992325971,123.291899142603,103.045447517009,92.0660181757547,97.5964356949663,103.822299448397,110.645417480077,103.186239903004,142.861188692059,118.289303836813,135.652235383642,107.383999822937,152.624724244656,167.228465626303,109.129566369941,183.101346748383,260.027269715609,173.240006005949,256.86440632231,71.6237231502206,212.95961642002,349.482581471759,126.789000732016,321.794691633648,-72.39793506214,244.259523051896,195.388237392897,-51.1159057196914,266.283611428132,167.20638429894,284.334155655411,-238.852646451387,100.498467982852,-17.9082661901123,190.973935550655,402.874814965039,-11.4788771166089,50.705949873114,1.12043361306546,331.648797699672,4.73747737396287,154.093912038224,176.734942342879,205.771249385816,94.8006607652275,187.363861750563,126.345557449012,69.4934820930868,276.583523754321,90.1097208055348,334.562055865219,342.953346710417,215.232686348644,111.251424954316,313.989936916862,128.832354502225,255.871174772562,289.034190255636,248.986253578807,101.974419195988,220.396454906453,298.623882487619
72.733543230723,118.887365898404,72.4549884968444,134.578509346473,123.413464889498,89.8354940125364,107.202082965854,124.22305228063,120.014659951993,116.387904280506,158.814667752305,120.491834423312,146.715179459248,117.637110527271,159.18296015673,174.759994507744,115.694018870687,191.975783564505,265.865323871073,187.786982651048,276.057250580163,128.117846445748,280.831845336915,350.048682130625,198.278049847038,351.994317223971,17.1690546767435,313.433445460527,243.45347886553,32.5178299011496,309.216871574109,175.731886126373,284.919178902926,-149.91533648715,152.747150503008,19.2481192847164,201.858471295242,392.474101384037,23.3763399271132,61.0753757486953,-0.174954118250708,362.469280342459,-4.53990426675317,220.186087155971,260.556595433501,204.643574920609,146.456548447886,197.332849275578,166.783076621713,137.58692457396,249.374597974988,171.425386258741,258.108573208917,342.549525020689,338.049588809389,177.393459231839,284.071312969433,241.735259544428,172.591862635718,267.063241914973,333.092340005164,207.792632383283,106.177909825707,360.461277527825
73.2897485358249,122.497401863968,77.9639112847081,138.068350854241,132.319385067581,91.0699400231745,113.134228293573,135.78346149295,122.598793708396,124.524772383766,165.910194498366,122.852259858184,146.388532803241,123.344505971586,157.68113286579,174.11015488918,123.405535087779,195.387536329203,258.400396149641,196.970667530542,288.029684055865,157.312524776918,315.348878214687,334.566883502397,257.476994956703,360.037956414371,113.103495970296,357.341688531899,276.889020180367,102.65273059934,321.792420631509,209.915060724672,308.526095611824,-82.5623529974363,189.0082111207,92.8679860655366,252.237502850183,379.008404574577,48.3694095295022,89.4156099298214,47.8538802416704,385.894572317129,23.5300158959911,244.466710589696,371.797299654718,205.100257079339,209.513703463403,199.437882133705,219.55606278621,241.362705233567,225.910775083908,263.782182591332,219.111233256448,291.473340855616,380.56891709314,275.892660283738,250.102039565342,357.380800352872,124.154190145208,230.936158248619,340.1984010641,326.279320237098,32.2266001120534,333.875697337532
45.6958872910732,90.8477811795698,53.2281032835267,103.33602759044,98.3911708699344,65.1324017838151,82.3503381955714,103.708103755532,88.3530894877764,90.3294319411115,127.218786715045,96.5473164652593,105.152162806163,86.3368496089163,119.03167381572,132.26730957781,99.2209831619673,153.918900999326,204.96407682026,166.878242224951,231.982608482412,139.600406292553,262.056087555982,271.395196687794,240.125368198951,287.762390158321,150.216502565649,310.513319368061,242.880518879295,103.759700456223,248.408610390554,207.705860476333,314.057809588489,-78.802055369421,150.596883506753,90.0102343022741,264.225073439512,365.557114498812,44.6370051997653,70.9620635291007,40.1429519705722,369.4726584607,38.0607277988748,194.013997497719,413.41588669732,171.703514114218,200.738730614064,147.137640990198,187.465650889868,282.469395747508,159.918032309355,257.732618111717,159.343207242768,182.616878160258,277.706466572267,292.060888507336,170.690447949077,327.427864800195,60.712327276083,136.925140892379,234.648791972188,345.03382504266,-26.4936253682256,228.37118866182
12.5038497238383,50.201686366987,22.0501052370033,59.1314957224857,60.1753797366586,27.1117878990172,38.5690886271089,60.0132315350996,42.6730654911992,41.806783843189,70.1973391452613,57.5771383848681,50.3909803521785,28.7823984944395,67.0815030610326,78.2513413830556,61.5227640060537,96.2535743012141,135.948006117588,115.080508463299,147.72427707902,108.53762640474,178.244238820576,202.236661005092,183.763214811608,179.922370779215,150.766214194358,216.897028274569,201.371490043254,77.1301754354275,137.901240485625,196.411671660845,314.964179476209,-80.2765738205891,74.9921755444231,57.7785283968115,239.924810930984,357.360446757775,47.548954901366,31.0070724145577,6.52666780092587,338.952259607895,34.8999125167773,135.697390820259,403.473867285893,127.340615382501,121.4828776804,78.9506009060794,92.6178623125095,217.990322674148,73.0029365098487,140.781992783053,79.7528806017385,65.1130550982649,98.1510997351637,187.43476539217,70.4045472711704,160.714251020132,-0.525651431465237,22.0655776787861,96.446451362236,255.836148354029,-60.8516321919889,109.754526397394
11.9168987468364,42.9435441084811,22.5900819905403,48.4937427511321,67.1298406256811,15.3526651858679,22.8988921401108,49.8585022142347,25.7408185616477,25.2365007673528,41.8220187201355,38.1455145886655,25.1649584884153,-4.25985175257199,41.2344957043375,52.4044701752861,44.5072819528146,63.1626047194604,93.1838607464516,80.912060226454,97.8092265021409,103.676595086401,126.164614414899,163.220012611826,155.747710190543,96.9262243069173,167.997119338545,143.700305109393,205.179715647535,90.5891479024615,61.2069030458543,196.46767609287,306.203721177194,-14.4684979229733,56.1126192904751,48.2008698696985,198.463342887359,337.574927718302,84.9608773094563,20.4314833328288,1.95749965401252,306.978556547462,22.4122038702978,122.087854305164,391.749328290263,121.977368367392,40.9730393350456,62.4487609144439,21.1132022692043,103.813382889104,27.3436199750135,11.6700137943759,34.9356321997785,-4.93986627799661,-34.8718480190983,43.7375711568358,7.1838943408968,0.522502357240574,-22.9232731260648,-44.7671788645813,9.45177703231625,137.502554385685,-56.3996423684163,32.8383168143217
31.7680564514338,56.1951871981095,35.1575717789059,52.8632682403927,87.947101618468,22.200137141443,23.3171243673111,53.2484706411207,23.1463421955737,22.0660909755541,30.2027237436295,26.1550082845566,15.0280915086624,-20.1637506309598,28.7991208333233,33.152770163829,31.5914963824176,33.8152805405029,56.5917815289977,52.5684528034512,58.4239589951569,100.439626417805,77.7844083549411,108.306392054993,138.004508927538,19.5418749566318,186.05577738888,70.214909582614,187.6608338504,121.492668382343,4.07274794902786,158.530000675455,223.862228932427,90.0449631726415,89.8240475102584,28.5728914621031,101.714855083347,255.266526074559,117.730126361814,29.2204736703522,-23.3355076393165,216.420411219879,-28.1906857669139,90.0753869854936,340.617750543816,135.375178424616,-5.27380345603628,76.2946241403383,-11.4375491453462,16.4646610405538,21.7449630005944,-55.4859634918776,23.7543234401954,-37.2484737896304,-87.7296214349192,-43.0321793542388,-21.9165530996032,-64.8278223672042,-32.4605280177464,-65.9828794696792,-34.4363699051585,47.5259938345849,-45.9704584784475,-11.51061723435
31.7674275750963,46.561714082203,23.689763479508,31.8330804146958,64.7616871136791,15.5929192884914,3.53943455790874,28.2299002633402,-0.0851717295947436,-8.03068692973948,-1.27556944847101,-1.45034666701324,-16.0662749687855,-52.5202740098832,-2.13255647588751,-14.0801828189355,-3.89554211068016,-20.2406932723391,-6.77938682480671,-0.271091198378657,-11.9096051087608,62.3589371644665,-5.4568514531266,-2.29098908539461,80.5065883409217,-79.2322725432224,157.483240415303,-40.1086575656205,79.4467210535693,102.106176302399,-69.0842730095155,68.2234684289125,71.1386774669853,160.335073665048,101.981094671828,-3.39525900995847,-41.3869003756277,103.825183247333,111.462000060143,40.9806219850309,-93.797452119346,55.5216517656275,-120.531742895924,-18.8156238558209,218.444586566767,107.545929502404,-32.0105698192984,50.9173523951911,-40.1186252673383,-18.837068349618,3.32478557279153,-77.7141130346782,0.962524767841289,-74.4046807648396,-112.321818348388,-61.5555841979203,-59.1567615781884,-74.6571815389682,-64.4365753229438,-90.7406295499526,-74.2175234225781,-9.9455880933296,-63.7765934996135,-47.8918458428397
-5.8753710194987,-2.86046638657449,-15.6053472380292,-18.0805002116918,-5.67936936153293,-17.7286180801762,-48.4521648883105,-31.4432398283907,-48.0812309561379,-66.7887435105469,-61.1274885540791,-44.6012507295383,-69.4449012551266,-112.277681022951,-54.3172700171964,-79.4655638025921,-56.5523308958169,-90.768601197965,-89.7066627980307,-73.4119384187966,-101.226058680642,-1.22320821273832,-105.444796771645,-135.936755161586,-14.1281684378681,-178.877559466834,82.6967639901107,-157.061745204411,-88.4968301537287,21.4325010688668,-142.004922927313,-40.4432387156035,-65.023053093301,179.724466320938,73.2424814456613,-25.1346765057973,-157.361437071414,-62.2896588245792,75.3452012018653,53.0116004906171,-158.748754199591,-103.575573155416,-227.481229716352,-178.061444210874,74.1901686176043,27.0552304621263,-61.5197729765169,-30.5379938532498,-80.6234193111777,-36.9486759496312,-54.9389911360611,-107.694545687282,-51.4144132555995,-130.226356892771,-153.160858462378,-79.2927577037272,-117.883663427218,-106.7632454064,-111.970363753776,-140.375857571353,-119.283930679282,-57.8736210385483,-103.949225755556,-85.473636932164
-70.5406341910848,-77.8139154646266,-75.2101992021489,-86.0570914470079,-93.8191637111598,-76.0515471458001,-123.694365405156,-110.223803686803,-109.144597589249,-140.957925009967,-140.686867298391,-103.656771082988,-132.850719524868,-191.431741120232,-119.197601624299,-146.393890005382,-119.796974282514,-167.830131583035,-178.645777688846,-151.366695797697,-194.134435708246,-71.5613420357069,-204.29832217661,-264.176996489902,-114.788793274766,-279.383471400733,-2.88625830117472,-255.888070643154,-270.988871874657,-80.7651506788757,-214.371235023345,-178.802391945021,-165.545400821489,175.369728130982,27.597172284508,-82.0885164100028,-250.442596941413,-220.853948865646,21.9183067072899,29.1330386018427,-222.046621975752,-241.272833349745,-350.524092137643,-366.895204247502,-69.2039850556266,-68.6011130161536,-107.652634970732,-130.75880108458,-133.503910859933,-84.540059984928,-136.572171957761,-166.857231155727,-122.688757655448,-197.080901364211,-214.387175189309,-148.631446933389,-183.274774024282,-181.382458789837,-165.015423938556,-200.33317498358,-173.404201727762,-119.258421985293,-152.616613204445,-138.643250346335
-133.336974398134,-149.451957634327,-140.677007929459,-159.810997983409,-172.690545782651,-140.664813466075,-198.361641101309,-186.091577757657,-171.932471612236,-216.762409005036,-221.865378712348,-171.687971821936,-199.66498328993,-269.176266301506,-187.785560379409,-216.236255156379,-190.085095996934,-245.698873653223,-269.90009582064,-228.314912204171,-294.87831871657,-145.480939494045,-308.476766568218,-395.0751306892,-207.419496736856,-407.740919125466,-76.0706813678888,-365.682193026672,-454.489271476863,-177.345596678102,-322.473991024383,-363.006728244098,-284.460416999072,157.496576513631,-30.083529084726,-207.28512015906,-381.737574280248,-387.388799141174,-37.9708722916088,-52.2164311463804,-328.215724076621,-402.839747966175,-491.633006953177,-583.272935061844,-251.844949034314,-139.510793427523,-165.701253117023,-205.416391592393,-191.907760939205,-160.858225374404,-205.664409111339,-230.262157611244,-191.271274393299,-260.379795107493,-274.321411805154,-237.081950182731,-239.340233654849,-256.200697340418,-222.622239574117,-251.083953899439,-237.802263479286,-189.679855402097,-203.303563443955,-206.987258689502
-177.090455376042,-200.406263456349,-191.738425591725,-219.04862052733,-229.239788635173,-189.215729937253,-250.740742954493,-244.189987045766,-226.668428214499,-275.50251041818,-286.816870978547,-226.373970800768,-261.130043864001,-328.280726832358,-246.723006504783,-284.843852515966,-249.879024278848,-311.571524235954,-352.40275252367,-296.587715937327,-392.611823330366,-213.381933365481,-409.463773275533,-518.970436966605,-291.84717522839,-551.402569204404,-132.5483504878,-498.202478938794,-603.605094243101,-265.917001660697,-456.559362863037,-533.533970142777,-423.720107935537,119.033578954666,-103.78107399154,-340.095450994252,-527.19542620391,-541.730003769169,-86.4217684655135,-152.240438198126,-448.17506835934,-573.00739489761,-612.930027720774,-767.26282556436,-470.733163032294,-179.337378597601,-221.249340264289,-244.23436490604,-242.973100365672,-231.414526164535,-244.947211644147,-274.483764708083,-242.513864799335,-302.68764579952,-318.369943384916,-292.579953303512,-282.481572668438,-304.255793858794,-276.256343868613,-292.755992535263,-300.280379305586,-250.229852235581,-249.872690554093,-266.501356793092
-201.702451996997,-228.477790871269,-215.693807020317,-246.913608705177,-260.280107333187,-210.856959195537,-272.886250478203,-277.527501022957,-257.653855545876,-300.739489316826,-323.783269165002,-248.521997100171,-296.795090238978,-360.941022716496,-279.140933786286,-328.419068316371,-274.985206292977,-348.272459708624,-401.714861907334,-333.172826532623,-449.143368996765,-244.272811805634,-470.143993535667,-591.747479767962,-345.051426944767,-646.028627303428,-157.523927660459,-592.400720251871,-668.76345921175,-313.960851854889,-536.624279381811,-609.313304262384,-523.637136941218,92.1900989135045,-149.129193690548,-402.747881446624,-600.205347529686,-628.435669705425,-84.2001930752644,-211.519140752926,-499.482191849383,-667.785211907913,-647.017088676152,-828.087727452951,-637.080913004212,-200.394986038829,-256.862505247042,-260.168436783185,-269.299803154616,-266.587280214251,-259.141660102775,-299.771178085158,-269.346028031945,-311.843555063275,-343.066045593992,-314.389413671157,-306.145917242606,-335.726169614598,-304.124102772878,-322.327676281598,-338.849749726209,-287.380995271539,-276.916555277845,-296.223955111584
-199.686598929819,-228.841128285607,-205.670800131907,-237.951756957011,-259.844747156773,-199.737851415007,-262.213404594517,-273.720582176782,-247.466135768313,-288.40170491569,-321.576041553232,-232.903509720743,-285.947921716818,-354.701059106614,-272.440670063615,-325.518607227516,-255.137172944196,-342.140178906455,-398.219038443532,-317.595913010204,-436.769906656483,-218.811730139456,-461.414678067024,-584.366295260248,-334.413245044073,-636.631889872876,-131.451823412254,-579.000544702308,-647.135292267585,-275.857627173302,-501.183979973456,-570.663358837465,-546.514026745453,107.149183523915,-104.329656184306,-364.632121851243,-570.248235646148,-613.578923901119,4.03160807640162,-191.188241635188,-450.693040482516,-638.489276766985,-536.345954426565,-748.299497251568,-667.594379540649,-196.599757392768,-248.011795475972,-248.959311200763,-253.46162428131,-254.490786762781,-247.40979843918,-296.950726652334,-258.704722320565,-286.19067828688,-332.859880098681,-313.192155694944,-292.145668207331,-342.003004757526,-285.251029630098,-314.886834821595,-332.109395582911,-287.375426454086,-262.782221604169,-289.229303481826
-166.609076823048,-198.545092091227,-166.081102192408,-199.321358299157,-226.117728871753,-160.716837015705,-225.218459562714,-231.529135047141,-202.587178085196,-250.497841708178,-285.116220650854,-194.308695689087,-237.945484237945,-309.568392673155,-234.507360309237,-283.788092381128,-208.099240117755,-299.306483800348,-349.000305543672,-266.703460361499,-374.346533044083,-166.845473975889,-398.880778758305,-516.192280591592,-277.02930100304,-539.408098049618,-82.1666149524251,-475.175787225427,-576.801516571158,-193.974083946731,-375.140707246215,-448.450039130505,-496.46651385546,79.1720322149879,-10.5812268873451,-214.962242917881,-460.69410417527,-511.048727393806,119.655367876205,-79.6775664693566,-334.308126974955,-516.170040002551,-296.367126238903,-593.89086573946,-576.899141245972,-161.707401952418,-193.164922738905,-206.624216053481,-202.583995485199,-210.350801099005,-210.210860538602,-253.20209482507,-211.104296873835,-238.335835735228,-282.765978644803,-276.383825478909,-239.188072596134,-300.942867188114,-228.159920995246,-262.509311640302,-283.772808756584,-245.584952316664,-211.240611113055,-252.999312106617
-114.308972958785,-143.397049697596,-113.191016137775,-144.652734337781,-167.143266987331,-107.782307797952,-173.366624070372,-169.990219372732,-145.441525364161,-197.316791908135,-231.347727355645,-150.60009723723,-180.132801595491,-246.838036158268,-183.251158346068,-223.804052683285,-158.200495240933,-238.124231572383,-272.207776346826,-215.772601706036,-297.371994726285,-129.814950336779,-322.082107485196,-421.723882331536,-222.769736540649,-419.506661996973,-70.7332234708361,-359.26424659862,-483.898651819987,-176.540128155844,-216.398563504083,-279.583029597936,-387.206446566822,-111.482730761728,-3.47632096901249,40.6864728878906,-292.95349616429,-371.281387945788,125.731954645661,117.00311795067,-174.508047841686,-377.338417165247,-22.6761704750133,-423.859292108162,-455.247014460998,-115.202495674282,-123.475488167762,-152.179241130574,-142.130530880945,-156.66886555467,-158.873794600833,-184.347051494602,-145.387053489152,-183.532492785678,-218.888504493946,-201.490766728537,-168.145701015593,-224.901089601043,-153.351312716965,-193.069461307707,-220.902014438233,-177.859933013477,-147.652109164481,-200.307255344855
-56.8973312145087,-74.8972416801975,-56.9348208069482,-84.5043168564608,-95.5316521451008,-50.5008450186849,-112.170389931737,-106.723917918569,-86.7675465250038,-130.250364345733,-165.491307908489,-100.192744362994,-120.916422089396,-179.605169755318,-126.267645916472,-154.688887733689,-108.649851475557,-170.195847408311,-182.244110718226,-171.617667141331,-218.900232053172,-105.337927172145,-253.388886231713,-319.114446332402,-186.345313621723,-323.17243672017,-103.391794862127,-276.678558139016,-387.307790232382,-253.410150758298,-71.4965414892223,-109.94757125651,-257.385146120149,-418.214976122253,-152.277772949997,320.529156381927,-122.614508627532,-261.78390930629,-27.6638999348573,341.020868309616,15.4783179217579,-299.05794596536,170.082028740497,-262.931297366631,-376.837437900028,-74.6727510620315,-59.5213488190633,-98.6407654116107,-80.3755209785386,-91.4928762695295,-98.970251607101,-118.001315867958,-69.9901380632049,-128.261587625587,-158.940427614706,-116.825018583554,-91.7394755922979,-145.772731790074,-58.632838022536,-133.408106959648,-159.426411197315,-106.287324116667,-82.8037651380431,-137.039293063598
-2.56558402402246,-10.6375969467534,-1.38737261217883,-28.9935520394409,-29.9549412205216,2.5869510648311,-50.2938466860925,-49.2302157065783,-31.681872069518,-61.5127942031863,-94.5425098249701,-42.6451717032048,-60.3733755180945,-109.430364992961,-70.8208216622919,-86.8622562428813,-56.4975472501382,-107.890411705602,-104.3246767895,-122.352910994389,-146.363808896709,-70.0601246200949,-196.045280019269,-226.649905725014,-149.315088272044,-261.088194032915,-122.77743293929,-223.178111743258,-322.852142833849,-331.456920817745,-1.06101359979837,8.33964894213871,-172.739471653581,-653.779202583171,-362.711553362892,489.94983185178,-41.1047273637788,-229.500499977274,-208.829703461863,461.800920394387,192.393620998386,-303.912193504836,215.652256527538,-149.577277019349,-350.292444224357,-33.6995407333484,5.09591565364274,-44.6665981680364,-15.0581731711859,-2.39172829919516,-35.1764402735332,-60.8256436401793,9.83434063735457,-80.5228754184385,-97.2096048131495,-50.3103620682792,-10.1933883252425,-71.9996292914763,48.3127032321131,-83.9432302058011,-98.6605463256302,-41.4778884896489,-20.2856956300562,-70.484404596369
34.6823635556171,24.5820920962324,33.861567485574,1.61567840203971,3.47733378719581,32.3016602160755,-12.2835854059407,-14.4073743815728,-1.08576318349423,-22.6437575951889,-51.0061461893993,-9.44355159142617,-25.9441411755143,-58.3780825692784,-42.5410248841343,-52.2724861220736,-25.8305203735796,-78.1650163933852,-72.1735917653121,-86.3840973441177,-110.669623347202,-42.2636173356982,-163.881660104412,-180.804498049075,-121.106963624439,-238.034466336786,-110.939851488182,-201.910230079309,-306.499700894783,-330.114906315838,-44.9176345838183,59.6982438916634,-164.37062002928,-722.292000142649,-473.917291912938,494.446262691717,-73.1769135512984,-264.898798765026,-258.797743875328,388.538981201271,313.885747095893,-342.983505802767,141.667188747135,-120.237501991827,-343.180814916649,1.97881433378741,64.4801510017573,-7.88830508032656,28.7099860996881,87.8011844134494,0.309105558336006,-16.2567908267414,56.0223969580266,-63.3110469510589,-49.6923401563384,-9.37737404554384,51.8932357719468,-5.27364170651444,105.479797746288,-46.7791351901254,-57.9750275159446,4.97460780205325,13.7970805342397,-26.2882378530575
45.5846259684767,24.506785944969,36.139995063548,0.0169489057343171,-0.956302159454183,29.1358636288222,-10.9905671294194,-16.3140125472909,-8.29869691779179,-27.5522360470187,-54.9915140856084,-22.448504854033,-39.4782737537708,-48.5898611487775,-55.3744857536781,-67.0006325191304,-40.5291474142872,-92.1920727555073,-86.2751671755457,-90.3552191443054,-128.856119300269,-58.1203545257761,-170.621997057459,-191.228557141296,-132.223169484832,-244.352280397734,-112.477815655414,-220.634418939361,-289.738317231227,-289.627040378807,-146.122743835979,79.3882912789326,-194.842796203337,-677.10142003603,-430.651218020297,405.854216026201,-147.875962569936,-304.592651445547,-183.708879948263,185.732169400173,382.989703309029,-348.458152252444,40.5638919893493,-138.015220910419,-316.420403118443,9.76372302341121,95.1604849960134,-6.77127451430293,25.8432844652993,135.350836262833,-21.0304482061435,4.52493418035969,33.2064864584554,-85.9418330439925,-41.0423320928673,16.3123573161288,56.3374708142594,35.8775519207871,63.9505276555483,-35.5003675229176,-63.026545325972,22.31068241386,0.152943848692022,-21.8517111142934
61.4271787458991,33.5456636046972,44.2057503003231,7.48206064495944,3.19965894977391,29.4360804916922,-4.42308051170118,-17.6650069161231,-12.9360008385478,-28.6885986822082,-57.1524325322087,-31.749206882145,-51.3439451064883,-41.8253556030178,-63.4717124736403,-76.8323488974651,-58.827118702234,-99.6207309550025,-87.5272188115892,-95.4012864768676,-141.00415117196,-87.3519890095224,-174.223728641619,-184.366776478777,-154.146744311744,-218.063267745998,-129.478958914346,-225.343790952527,-195.866687382336,-264.72741345126,-189.540219663507,115.769617648196,-186.915866784769,-554.348257397183,-296.287538977928,320.652808854253,-173.548458048299,-258.751563739739,-67.4365779544509,-1.9266470847138,438.429193594284,-262.890138868555,-13.4111051493899,-101.598076390753,-221.039273092033,12.8550812490594,110.792731550736,-4.92849058372454,15.9643456809963,152.24279812466,-53.1855359545293,21.4298966129799,-14.1728018461318,-102.740171316086,-40.135921976821,58.2896223438717,23.9596598033653,54.0470417792488,-13.7341397126595,-34.8823507044089,-80.1602886607054,37.3015130748564,-23.6459533631065,-21.2999496194567
114.534393757031,90.9343201844276,95.7150224542578,59.9891653296536,59.1459940565396,73.3763210626605,52.6740982104989,31.9985824881237,32.999233536464,26.6837571183446,1.9154092481513,18.278889873882,-0.275447547253265,17.7324719408429,-16.2802054713111,-22.2280116321183,-19.666846766509,-43.3275542775915,-24.4640574525807,-42.4797710007412,-76.1517508641281,-70.2946129438239,-112.538670903581,-82.5971334323494,-125.14532234593,-102.790950067726,-117.16421060605,-149.361276079352,-11.4594052075435,-226.834016878914,-135.345802057648,186.802677464033,-99.3911805256432,-366.297626447707,-146.098766373069,280.039074569009,-105.201347077516,-87.9013407884827,59.5828028437924,-98.0060101458241,513.823907135365,-66.5839298898522,15.5613451470807,45.6879324504957,-21.8598110471867,58.7822150769227,146.221910116066,40.9552054856385,52.4582739876922,184.953270620696,-26.0521742917435,62.2131385294671,-13.5210284608244,-71.578479777305,-8.41076550629406,125.963870355732,8.8584086157175,72.9093431922926,-30.9215906159172,-22.4901471324281,-56.8588535408212,81.6073910022732,-12.303119980711,16.7034590726598
163.810246349257,152.252602820896,146.584609171124,113.633445183046,124.969273551202,128.219593620537,120.537696815665,104.299620690764,95.2381473119268,100.149111505779,84.8721946625812,86.1874942828559,75.5669125883487,100.376397393438,50.3842892297816,54.9319101765771,48.3993572187596,40.1559247213686,62.2631688877482,35.4495401813997,22.7297266334318,-23.7284945275769,-10.0585504196419,66.1138990641629,-60.5514538762983,50.9826693932173,-90.7760339137106,-35.4743768721943,190.681689182271,-163.652499588528,-45.3384965131147,267.427350266286,16.4667619118863,-220.111181553236,-40.9355928013332,300.517950278495,24.3342632339885,119.375031046834,125.331716366441,-90.404479026647,598.797186784597,164.347417172823,142.642960098162,241.684176928226,232.166051264413,120.913687093308,176.756861979069,91.1230372596908,100.413560753595,209.368777567367,30.9967853385495,88.3265078764504,20.8026069880791,-41.8484658373955,7.8777790557778,156.701393686222,-4.9443995360068,75.8897770581747,-4.7141291003857,-28.666228686756,-22.6597599816268,123.912710018099,5.35168270420585,59.3540341183535
150.35702747371,152.48402707257,136.364317857896,110.032077197594,132.011003574504,133.057774972816,130.377489419811,128.392682259148,105.196213846794,117.317099381068,113.947973690291,99.1909455965947,97.0025206705386,130.379010989064,68.8591011520895,75.7226037539147,71.8444130078373,70.0633515374049,94.5815968461747,61.487032194226,60.197932239187,-3.36464062465782,54.0402196848511,148.729726874721,-22.4370549940973,147.919037136514,-104.042160232339,23.463782730086,334.137956363455,-116.759303370045,41.0518190019277,311.318768253723,96.7322616705312,-191.588359119569,-15.6400212060204,379.140043053261,157.01712312866,245.487088057353,33.1351099476105,43.4491202017981,647.691382087081,328.293047174453,334.770864169087,375.076865642763,432.588281794372,126.771553694272,154.858468311877,75.4984637112206,90.2789477005521,160.946789960268,26.5578024856809,39.5178889495086,33.8386939654221,-89.6433451484021,-55.3392696030601,88.5883663929515,-70.9713308718679,26.3083544843395,-14.4651970274114,-90.9744956766735,-41.4639358895588,117.987388560979,-27.5929619655199,53.2352419006025
106.789049109873,118.263260157047,97.9899578598546,79.8638170436207,101.702768480954,102.025414447893,103.807070121189,107.966848333917,81.6728577182991,97.5289343507367,103.129172823703,78.1229035367458,79.5209324569179,117.562397693655,54.5283682220315,61.0259471990392,59.2992915123661,57.8730472643807,79.5012691572092,50.9930133525547,49.0871119116346,-0.0529517065745786,79.5650861867719,157.969839744886,-6.08143029361576,197.301550487615,-146.03148960206,43.25444193701,409.579864719963,-75.4641941422415,159.557617825001,287.969499517725,174.281471906218,-187.014546578811,-15.9934933076223,427.606635706865,315.09677111626,318.645581875268,-123.860293312992,274.503232596679,619.296108937424,445.061886806677,512.358730508673,438.219425901578,537.113550643693,83.891054884623,115.092434945377,11.9562654181106,46.6606966227997,66.8614390619109,-37.3368994952399,-44.7445465238705,47.561464728581,-188.936150015609,-147.366786325745,-25.1868815570603,-163.939576468106,-43.856839614368,-49.7460870348977,-171.749814798176,-92.0827410283756,87.9254428250806,-90.9473599202958,23.9923300678295
