3.98730408556116,7.75711885736443,7.24964379192938,6.23469366105926,7.0321544781715,5.36473640602774,4.27728983723833,4.92975777851198,4.92975777851198,4.56727558891551,4.71226846475409,5.65472215770491,5.00225421643127,2.24738957549811,5.00225421643127,8.48208323655737,4.56727558891551,6.37968653689785,9.93201199494325,5.65472215770491,7.82961529528373,-0.724964379192938,3.98730408556116,8.62707611239596,4.13229696139974,2.82736107885246,-1.01495013087011,5.58222571978562,1.81241094798234,6.30719009897856,4.56727558891551,-0.724964379192938,10.7294728120555,8.1196010469609,14.2817982701009,5.21974353018915,7.75711885736443,20.5889883690794,12.2518980083606,18.5590881073392,12.5418837600378,18.994066734855,21.1689598724338,15.0792590872131,16.2392020939218,6.30719009897856,7.68462241944514,6.9596580402522,7.39463666776796,4.85726134059268,6.01720434730138,5.29223996810844,7.61212598152584,6.45218297481714,7.46713310568726,6.9596580402522,6.74216872649432,7.46713310568726,6.30719009897856,6.16219722313997,5.29223996810844,6.9596580402522,8.04710460904161,6.30719009897856
19.717127741715,37.5323163961475,35.0518623496424,31.2508972633408,33.8748876415527,27.0504734964173,22.1080536489199,25.6389777731888,25.8564670869467,23.4115329873353,24.3170101892606,28.3539528348328,25.8379788414339,12.6937125283345,25.7654824035146,42.7121703470474,24.064000928609,33.7512960994906,49.809538542479,30.2388602207344,41.1386500465994,1.12733614807863,24.7193819581463,45.7925406865515,26.4948164151031,20.4479182974353,3.30368582978928,35.0421133689206,20.4167679829371,39.7144922543854,33.5610342960365,5.25963310947838,55.9133579408169,45.7769655293023,76.2488902210438,35.6420296619195,43.1145421159331,96.2443513613813,63.789698707848,94.514632660241,66.9055889942458,90.7063848532804,107.26089683685,75.6830373308066,77.8521042918581,31.8848769591017,36.6808473866287,33.9658723249848,35.8848431136483,23.3375800052842,30.508901182767,25.4740401077056,37.569292887173,32.5728648472691,35.4313762406198,33.530893697469,33.4413655581688,35.5763691164584,31.4498983315859,30.1819389400642,26.4889902385757,32.7334328803568,39.5607601137558,30.8699268282316
41.445417680309,74.898870537989,70.7343671596639,65.4443846190965,67.3422847845805,57.9088346233137,48.7551801652727,56.7565341529438,57.9335088610334,52.2824658094476,53.0389460792895,60.4936665745378,56.7282563006841,31.1702881162704,57.4717089253898,90.9117685617828,55.3059148682814,76.9585749272285,105.137951112187,70.8149414411803,94.0106620123537,19.3518079554339,68.7333252801288,107.062817808486,75.2126545131993,66.4907406442847,33.4961746339846,98.7110983966143,82.2057900265987,109.343684857131,107.473772459335,44.2517027363125,126.664907424218,111.549258136396,175.067429872195,107.072822369028,106.606147762622,179.462821185234,140.78740259618,203.271044987614,154.291969162913,175.958463150075,230.69797982453,160.524660615449,151.631477866157,68.8575027518055,71.6137135797375,69.4715027923678,71.0743570475026,46.44650543718,65.7111875427397,51.1112417863062,78.3243257895577,69.6694477581858,68.7475945156021,66.247596121157,70.4078053586657,68.9281073383344,67.0835248389806,61.5622244561099,55.2021926242849,62.8986413637523,81.1411312438079,62.1566801487322
52.3895334131343,82.4522232867299,82.753337318256,77.5753598301473,74.6298939427918,72.9164581311336,63.6588511887198,72.7796052140863,75.301730334138,71.1334247357638,66.5066402456122,76.2815925946863,72.7748702643261,45.6829479672009,78.0000337688667,111.788771382135,77.8142676836381,103.467886924678,126.64976291589,101.057385034665,128.427568987094,59.0775143650285,117.157611602201,152.192807061779,128.595185816136,129.835483608569,86.9605146989089,170.322064236226,173.826664021178,176.514607659767,199.905092731566,122.372515833229,170.887082726894,157.576459145878,233.15533195801,188.317787461345,160.554835352821,169.697081217017,175.357866203391,247.724398202414,207.52849365786,180.861033562022,285.165553511216,194.628251307613,155.139992017004,88.7897344126162,77.51748634281,81.873351483728,76.4703809068381,52.5852473433793,83.5879152050652,59.7356910015064,95.3667090361361,87.0537432243198,73.8047139533943,72.1212024112654,87.7100886184353,72.3536942270276,85.8449677839083,70.6955561812664,64.2992526187494,67.0733485566227,94.7513758241588,68.7975404157506
56.3033214948461,65.4574982002463,78.8693664457632,69.0154631082121,62.1359181234464,72.4589826380822,65.9903881906628,69.5280148625477,72.5810772160559,75.417263375384,63.1709864361908,75.247086390182,70.9224246916966,51.1576281586985,84.8282369349955,102.500558285987,87.3273458861493,103.405686486362,111.101933891403,111.029090189033,130.167104458217,98.3679767673985,145.528906007167,159.991991441125,159.509757710859,174.428446158359,122.103066729262,213.046267758754,227.068893768288,198.219526334807,247.437245074384,185.06773642205,166.511348686466,155.466614692605,217.636529095386,221.848173658973,174.029727924882,95.3993366190556,147.877246789554,209.872081319048,194.668385079579,119.145513364161,249.059288422275,167.517202724045,97.8132210539583,90.5025990209707,65.5383447569275,76.5063306127092,60.537798720979,48.2917234804368,84.7476422817912,57.6886240370683,91.008560644804,84.7168488637954,62.1260425920372,58.7892802291785,87.050236536613,56.4600690405562,88.6081093662026,61.0736057140534,55.0946386628652,56.4411250958777,84.7787093714596,56.5666955231279
68.5809525060257,61.7847309751639,88.4130847444149,69.8804720064488,61.6488384186974,78.4417053980071,73.8666086807571,69.4410114565255,72.7710679439854,77.0343370826147,66.3626663736173,76.8236673960712,71.0415837151445,58.4232830679472,93.7969401414096,96.2512266596223,97.1483742355139,100.858352830459,98.756490664388,115.808647744763,121.503115117915,118.663271509944,150.971851049139,145.413609341066,172.109264654271,180.2860329776,127.748536460799,220.173229892784,208.998750186806,190.407811795645,232.245469757129,184.055604118244,138.132732988817,139.558450439823,181.086424681154,198.901378619663,153.386675534888,61.5101684218402,115.152055237431,167.578849181676,156.346794573382,78.9032331647413,195.024801636595,134.775151740298,59.0088499526693,94.4503875169374,70.7667241789451,84.3031233072262,62.6645934306162,56.5023398833029,92.4670424798202,64.9446815434836,93.8927538318625,89.4680618987418,68.8327647548974,60.1642919163288,93.0065419715709,58.8609571490411,96.3474734719266,63.267746421768,55.6719273949801,61.9915469136512,86.1975891789723,59.7973766114364
81.6596558910433,74.8527356867686,102.369921259114,80.4242331436943,70.8621468150687,89.3509673848185,84.6403142560285,76.6066326294612,81.5246520363613,78.7041437272474,76.9996997449759,79.9624243601697,76.3183710984472,71.6918248340872,103.014651532214,97.8530782545224,104.308769181716,103.861883547294,95.7694201738615,119.510137058827,113.618683981892,126.628375510615,141.021146879626,122.136695025161,177.688069585139,160.611047077794,137.178055180311,203.069833780165,161.162191972324,185.269936077705,193.764095222259,147.084503865701,105.60387135205,137.278666225878,159.22161826647,159.08445857896,120.896036379705,65.5591991180736,109.199740219836,149.04513652313,125.948053301401,68.228457605462,147.350209314601,112.356449898449,50.3259651499166,99.2384159278403,84.3598694670359,100.24865078143,79.1509602130093,71.6359818082277,101.194309373166,74.7439388016672,98.7443798347934,99.8122757009213,83.6975467316585,73.1062832573058,102.029353562398,74.5641332027654,103.358208792313,78.040764326316,68.101025880176,75.8285338566179,95.0381352670874,76.9501092212756
80.6309406236852,81.2843235845364,96.913516116673,79.953971838753,71.1817079141805,88.2757132719666,81.8936454449705,73.9693105443598,82.0649567799018,77.5271869657782,76.9330917212137,76.3799171125916,76.3951172644667,80.3699254693981,98.4619923548564,91.0625128078751,96.1748048544233,97.2108213160885,84.0155088509308,111.794108629698,99.9568529510965,126.441146271474,118.9520663369,93.8029216818058,166.036626245885,133.104607104712,153.04673586738,168.19566846913,119.582723770462,172.477356529408,152.201994855844,121.981775016525,78.6873207159295,123.533942824784,131.721482884495,123.664459388952,94.2309019465564,55.1675464687674,102.60066470215,119.367337257179,97.6700601849844,52.5826658697777,88.915934982867,83.936196172065,41.7103935443297,93.9209227552903,82.9907096735186,98.9499573741701,81.5394597603932,74.7923837396091,92.4146021697285,74.4811625037264,85.2973432678243,95.5131763829255,79.7075750737459,74.9638925313163,95.6139358224476,78.396177620774,92.3183389763408,82.4671997804474,72.3898219022586,77.1202260171229,88.0892870857763,82.7067109767971
71.8583561976471,74.7013608174085,78.3847521458703,70.0622921024203,65.1006902099987,75.9927088502817,69.828958762009,59.5783731326449,71.1563415930384,76.1349472763989,68.320058077038,72.8710862930193,70.0268251454264,80.2585778491213,81.4786464692119,75.9923319564855,78.1215533115124,78.8545507861869,67.6851670160419,92.2521389311905,80.6861712134531,112.279489516215,90.9673281741661,64.8934203187991,132.469703817379,102.633003927858,149.623461925136,122.688338071314,79.3619443570539,138.019751602725,95.6317152844519,112.293916090711,66.2234307146593,81.333852686371,83.7443013397534,85.9635830810749,77.5945294636788,41.3951389849139,75.3470921473452,72.063370357971,66.8290898256208,37.7023094987944,33.6745618875813,56.3338991412334,38.752142447628,83.3278522554974,73.6086924696662,82.1394340342408,72.276410637535,71.1759187322435,74.7052057270839,71.2894405485036,63.22011133272,80.1443990995983,67.6081363369998,69.8307675423007,77.2059133514423,73.392778653223,70.5412461117589,74.7029669712457,67.9179186366661,71.7255174717369,72.9176218183975,78.1330261602716
66.2949801384397,64.9583378444747,65.8382303797697,62.9755395121032,60.3227021060574,64.6393247828419,62.8969003773113,47.9417043070472,59.5329199294946,74.1275938851314,64.4229188510017,72.0826052975044,63.3086523232055,78.0521519352787,66.2494685543421,61.2820837772989,64.5754848396107,61.8947132113525,57.5418287613943,72.3330052848744,61.7921737028816,91.064546330021,67.849196611036,40.3265939417982,97.6330623597775,71.1072893465231,133.370934230643,80.7436303028582,37.7601134330039,101.592138505956,35.4231172010801,97.0989151530189,59.7936644173357,44.2028941355395,35.4902989037334,48.7383379849425,60.5954871833406,45.4163454181927,46.6515226383969,34.2000862552547,40.74776440294,35.7720396854068,-1.91194285928201,41.304064350259,49.1691976089398,75.7512310977732,69.7879792660813,66.8969576214601,68.4601729473239,75.4121565491953,64.6498079748212,74.5367615352616,50.4948007623022,71.6459578247814,67.4349321223746,72.8649634095569,62.6596232588509,74.0148454247276,55.9857836971804,68.3331220382866,67.3465763731231,70.652781744297,65.8661951417569,76.8071446688256
61.2834996064291,57.4068113221504,61.856245963786,56.6109605696722,54.7719872097662,58.5084739352734,60.2840346324027,44.7339769280221,51.8956474937049,66.0717998909264,61.6816321905129,65.450722524608,60.4528996931415,74.6767115689105,58.9277170477555,48.3884085438385,56.6000529164422,50.6064191196463,48.2153412832601,58.7382158359456,44.0450647999723,75.4886039859058,50.6300178258782,21.5817628668852,76.566403877667,40.2182409862883,125.985611758942,48.5026566247756,3.93651895014967,77.1120333943327,-0.718519530283821,64.5003961145466,39.1685536496038,40.0029344953036,6.28574870111071,22.7529454377688,30.9072499187959,43.6451414719484,33.2017632000812,11.6751671892196,18.6766802321248,32.0631594982299,-31.2974051487568,29.303107041985,50.5534870279165,68.8122613545089,69.5373459682407,59.2129806412448,68.2068954997358,81.1149688015462,59.8347512572397,80.4355609113739,44.4114631210754,71.7274778141266,70.4486649529761,78.9925808280869,56.4215855254808,79.4214667665874,50.4481077026936,64.6432923984427,69.8216291019108,69.8408447460494,62.4666983071593,74.3947733208664
53.9866876637682,49.7463901347318,58.4189061899478,46.5297767331919,47.1665940207511,55.4026348044958,55.7217424981901,43.6017063492184,46.4448566341889,52.4186015863133,51.0369518324871,52.1541994062801,57.446924577305,65.8263646290616,53.6911389721279,35.579043568565,46.0916909680677,39.3957631445802,32.6173396008912,47.0844682040916,25.208056055964,63.7552726014741,28.8379064816382,4.03091576176621,55.5202685184624,7.22700595217314,118.192770266341,14.6273455745779,-22.0938167319536,47.4902279029045,-17.6266447642831,21.7904324692717,2.21037446960961,45.7680265792715,-11.4121010399804,4.75287596229193,-7.27044070006496,17.7735079224663,24.8472847999466,-11.4984379811589,-5.10470538693905,12.5128163727805,-63.1848571787566,8.92301414320018,29.6655541189835,58.8996851405537,65.7837753339205,58.1879481897543,63.9972431626392,73.8524328033393,53.6308921053532,80.3619534149938,40.0932338170245,69.4364427113375,64.3860115664903,76.1770695484946,53.5861314408465,80.6644222782664,47.3929392726026,61.3024213250956,68.4541001538385,65.7794831322443,55.4227394287267,64.4946003259898
46.7712234266689,39.9879976586266,49.8064758718562,36.9679056845058,38.6477391502904,52.2278906713498,49.3224239849227,38.7129353660796,38.261809706892,39.7907670457046,36.625059507423,38.8689456008281,47.2711137466898,52.0141994152309,45.0959406809319,21.8676806861839,32.8854521487595,26.1090537207051,13.9440702153125,31.5571320043699,6.7229429841027,48.7685418096213,0.697955084934745,-16.3383228346358,20.5395068546695,-26.3255820372202,91.4714531689246,-26.4314084030536,-40.7770872304152,0.77700082233731,-36.0756892381757,-9.26865374724405,-29.6360999557913,33.6041379842409,-29.6273479241867,-12.9444593897965,-34.2742373287645,-13.7553335216613,13.7828819709902,-35.7789928918687,-25.722147110865,-14.1874625647535,-82.8573674634062,-14.2493802686759,1.73751564073406,49.7902549177313,56.3067719441548,59.3396609748426,58.6480929871132,56.2742722678688,47.4142431453193,71.5654330216274,41.169041884606,59.5144802935128,54.9155550685279,64.8948132281969,49.1968201739709,73.8389632716711,45.7403488625808,59.5087778189989,63.4934873903545,60.0568829767002,46.1916982125074,53.9059532764854
40.8700774526931,31.8644957506648,36.7146955481086,30.1728266176031,29.7573765132295,46.5395288364452,39.8851369801589,30.207689140048,28.2400421993525,32.8214738286098,28.2818599057695,29.5771490951575,33.5627508287083,38.5112091084515,33.1471853698509,8.48290594871527,25.4092902971924,15.0592154001504,0.481597673901768,15.8727803551785,-6.09704874742794,35.0655346418641,-20.4354563736526,-31.2393451808918,-16.601441674272,-47.0119472397765,53.8616980259342,-59.9382698034707,-39.4796779249831,-48.9206273419319,-51.6906305834055,-14.444645234607,-40.3873405150761,10.2686512629199,-45.9955894527034,-23.9488539073266,-42.0119763040376,-32.9250293236403,6.07400034522462,-50.1727640121441,-33.803324406303,-32.4362056999301,-82.7080184002057,-30.2301843756861,-19.2875725905932,42.0596644568365,43.8694335942689,53.1661358921204,52.6970815364416,40.9147985095685,41.363753776811,58.9963721599287,46.4859491927238,44.0403843018079,47.2582021941776,51.468847522229,41.1314262681544,61.4810049288306,44.5532103834577,52.5167903990997,55.349608522162,50.9778734061758,34.6694235838864,47.7441686186655
39.6604326424681,31.8015766559541,27.5950413285423,23.6245682430055,25.3457817120137,40.4288727851908,29.269482724282,24.3820579131773,28.7614115984367,31.1862293763673,29.8723385637022,27.0437439606641,26.4399811616254,33.3288462369431,22.4097045056729,2.11535910685974,27.5341444870004,10.5230221730206,-2.20649534987467,8.40462279321409,-8.86856220339354,31.2498423220728,-24.619309926436,-30.7189466185852,-41.5133235460653,-44.8936749673191,18.6624131730278,-73.5213241257193,-12.5416522588098,-87.2803771687298,-51.009332641112,-0.3396756579638,-37.1576544325183,-9.81004766851412,-55.6903425908029,-17.2263857308131,-40.1460436855014,-39.6789774410434,0.586867485548356,-57.4813447324708,-30.0153192596367,-37.7159939341857,-72.6349650287654,-37.1132016603377,-30.0780748036072,31.0536138731076,32.0255409754402,37.6972496171381,40.9802802182931,33.2533691860467,35.4419203977373,49.7932220982125,53.1198518692407,27.5107320411322,39.9522579935937,45.2051297470875,31.3011136862927,49.450159415503,40.7046043751632,35.8166825641496,44.2568998970588,42.5248871567192,21.373682173403,43.1903798976965
44.0913260345203,40.0205625215758,27.8609858536838,19.213603087941,29.0907368212551,37.2889720374998,27.1437377379902,27.468696490031,41.2145814399015,31.971361178489,38.2603137681055,30.2263727148064,27.4420199158798,40.0108107195469,18.7320605119567,5.87375019963225,32.4681015162566,10.0321950149696,0.497796385937932,7.66070219133639,-4.60244249478173,31.2442502512701,-18.3954917783074,-21.7287044247617,-57.4578728870898,-31.9858380036313,-19.6428978205872,-73.3265124987281,19.0598209010481,-111.654534947157,-39.9304922925083,16.4130897536826,-30.7231149466525,-27.1296781518212,-58.2088423828793,1.35208745212163,-32.8836248891297,-34.0952003690176,-9.90750357690828,-64.3566013654118,-21.8018469540708,-32.5580977839006,-56.2361839071241,-34.5456395519464,-25.0169975383011,20.7597795334052,20.3787728831719,23.2053832431741,24.8068681753147,29.1358181472741,32.8067496610777,44.807296641845,63.1360702067715,13.9446611613027,33.3990937498401,51.8492576944221,22.1524372083602,41.5346638853828,35.5982876257135,19.3963708955965,35.6793190493749,41.0917902469237,12.4175750471012,38.3449521214409
42.8156176246373,43.7263893406589,27.1731542885129,18.4414216027585,31.745270703246,32.6169169879218,30.5245306544321,31.52367359695,44.4033128802957,30.3749289346789,42.4649687393117,29.0958725982135,26.5911019418295,46.9325702820897,17.2146375251328,7.64726120817879,27.1117025500707,3.99232240926773,-4.99266938863436,-0.717045378576914,-7.01405458058111,16.043268588185,-21.0141076315847,-20.850501373519,-75.31445391026,-31.8727391515779,-67.5821440131063,-77.9309882808075,26.2793747823709,-124.71566885908,-36.9158074402868,16.8127514221286,-21.550781247063,-50.8967042914931,-60.3416608147534,7.36931854429631,-21.2852037689278,-19.9205376146874,-27.4407826010891,-69.5658012847749,-17.0029193509354,-21.4165010160366,-34.7031428864317,-26.5576288114005,-9.02762805551309,16.3771847663272,2.84828230480249,14.9423792107976,7.42345800470651,17.5675226123406,30.6652712245969,34.3162529479104,73.8978372918007,1.22944237266115,22.4464600485034,55.2328505669479,13.6800647955637,30.7394315293779,32.5725189405802,13.0658390072947,27.5305540864235,32.3660144430466,9.304809490984,27.4363416383101
19.9917727843829,23.0326987945248,7.36713264939325,7.54243153991571,17.7341293136068,14.1285232994046,16.8059425262255,15.5549329490679,19.5707914791402,15.7437610884801,26.6285654439333,10.7205062500822,9.16628422102342,33.0212690979404,-0.715542101245925,-10.5617485632237,-0.856294392783217,-20.1038171420289,-27.5505356783489,-31.6083931772239,-31.7095570461591,-26.4191460784625,-52.0194349515162,-40.7130144041282,-108.726032635122,-57.2354763940689,-123.087524053042,-109.51424540993,-3.73655137357705,-144.242126412433,-63.0878991910227,-17.9295449464289,-13.3184430843725,-92.9000514728864,-86.3229500248893,-25.3196448329007,-20.554470731049,-16.1969719420688,-59.5792255411741,-84.1981414818092,-31.7396779355252,-17.8665666523433,-33.8440591235072,-32.8225080932883,-6.86060617845625,5.29507804317917,-28.5566186016432,1.74575680543077,-17.2668264048437,-12.0277715330205,18.082174457528,6.70998252252059,71.2265773433655,-17.8766408828412,-5.41336687428621,34.6595220824089,3.80331111314736,2.94736093871444,26.30398703135,12.7677756907328,1.66894621241879,-5.39785599525585,0.939346333174873,-4.38773812909741
-22.5161795599627,-23.3089715908672,-35.2079596830858,-26.8508248266933,-15.5042636177123,-24.5698774718907,-23.1816475776606,-23.4409651774868,-27.4076157954367,-18.4979033660368,-11.6686830078098,-25.9823133819673,-29.0326419935115,-6.71509423120711,-43.8791687451054,-50.1635592412492,-49.8983689404407,-63.82410985642,-63.7773890237638,-79.98088802873,-77.2151916825111,-86.8416456244109,-107.616335728378,-80.2681089048789,-161.573518202721,-102.338896389626,-181.796274717491,-170.593902813421,-64.1052395124622,-187.255209199605,-127.49559598722,-86.510026014182,-13.8567769114558,-150.99769537158,-151.188960015634,-100.499346144026,-40.0465123129342,-32.4770075239512,-112.045384043078,-125.658905340584,-78.3994261599863,-34.8317470641636,-79.8884215092351,-65.715741982942,-28.8492124884572,-27.8339171937396,-71.2788864594974,-28.3421500618059,-51.6041971274737,-53.1290135317958,-10.1479460502871,-29.6787996810677,46.3367239154683,-41.8708764956097,-43.6238933190727,4.73651286502638,-6.39133483895029,-35.7997786784299,10.3891751953857,9.91836328324334,-47.7252266982383,-59.7293580217743,-20.9360388591337,-57.5912835047952
-61.5141620002802,-68.2875612566484,-80.5207493060548,-67.1827264219402,-49.7503427048104,-69.420278367729,-64.666005521582,-58.0760843275452,-71.7392663705746,-56.5802534936624,-49.189544737627,-63.6003719838919,-70.5983150756819,-47.3524415086516,-90.0400997154648,-87.9176827902427,-96.1357786878206,-104.922103007796,-95.6141609071041,-118.405057218434,-117.983010234818,-137.021939726909,-150.744219319697,-114.530192364482,-207.869938250395,-142.37642025676,-229.402059850704,-226.477029909075,-126.896645189633,-234.428194906028,-200.577092204657,-157.840680826282,-28.4969538525386,-199.22727828139,-220.677693314974,-183.068439904157,-64.1786292352407,-51.1486369690964,-164.971282012188,-178.319315358631,-134.571695613796,-58.5145439589656,-147.20674426275,-98.9293570067212,-48.5055513226263,-72.0980956776741,-106.893523460436,-65.4189067376978,-80.2052344597077,-81.0403053794239,-42.095982695096,-48.4824345091856,13.8456262689699,-57.2123092668865,-62.3242101336439,-1.14652374149077,-9.48337325152786,-56.1912492261393,-8.20874941204627,2.00389589529278,-92.1293443632394,-93.3813264071702,-48.0048220085555,-104.861974288396
-80.6092491104028,-87.2391464564095,-103.688307229498,-82.5953422184533,-61.0046678224921,-94.1860987827184,-79.0538905675363,-66.0439135273712,-91.7088157211374,-73.0521465029727,-58.6303439372613,-81.3481562589305,-91.3973337861057,-59.6239155281289,-106.943688064901,-98.0878029738392,-112.893093150685,-116.666897302883,-101.056605295848,-125.242124184114,-125.958712420655,-153.99806206557,-149.120768775154,-114.197278623048,-215.084276256217,-145.880576652917,-245.152004431146,-237.792678582434,-159.576193829735,-251.774167242863,-233.705859657418,-199.478971482429,-63.0150215113514,-216.40182288756,-245.880507115516,-224.041049875384,-76.9687932128707,-55.6131273470963,-192.811760252004,-203.644236407225,-157.287389319057,-61.4937999795523,-178.660105103833,-94.0096182342505,-38.6099343634581,-97.4187956731489,-120.555419886966,-83.7558211320589,-87.1579969620277,-82.963517614125,-58.4670318287458,-41.3180386594651,-5.33959890181656,-56.1987950589361,-50.6316052973084,16.9194918372389,-3.61941771257118,-51.0880073986882,-18.1305092797393,-11.4383208869132,-105.212009307646,-96.7196858456646,-69.015371409952,-123.727677918793
-80.5758966166225,-80.2595767848024,-98.5630772963423,-69.4732586761423,-44.4623188823357,-88.9675651265156,-66.9721419618334,-51.5926222478911,-84.6761698548363,-63.7052613298448,-41.1024035048754,-75.5276641282434,-83.0814361826912,-43.7497336595278,-91.3692893114506,-79.8709978678697,-98.8808936524792,-97.2984348528948,-76.9062023263956,-104.367941034226,-96.5905469196133,-141.877479939096,-110.762459755379,-79.4706789783697,-182.285969786643,-107.341897824993,-222.953004909689,-199.083681166293,-155.228121798113,-232.269758598345,-211.029256909836,-199.500789658765,-102.757750006343,-204.340526678818,-223.243259468032,-207.587569532252,-76.4263896026215,-43.8217189573071,-192.37623372063,-186.582231869425,-132.920748362831,-40.6324607618852,-154.656532263153,-52.7990446798295,-8.08568671599206,-89.2953745919841,-118.532364201406,-74.6420945920993,-76.1312876387842,-75.3173923072864,-55.3602455234647,-28.5301613321268,-6.08713486002346,-49.1701729826726,-33.5615687737896,27.1037615515632,1.24211874065958,-49.1699868972083,-12.9896956935628,-29.0198398427385,-99.9556827480946,-94.4251148970773,-78.7441412857611,-121.306252125281
-68.5743928483633,-65.2496749001395,-82.3008798037318,-51.499646200558,-22.8450623455235,-72.989760410013,-52.021509914643,-32.3507006212552,-67.5884605528705,-49.108651130425,-23.9644311226634,-63.4291993653051,-59.9652757829025,-24.5091286515938,-68.3686452548188,-55.8648411628942,-77.0191571327748,-67.5039191996717,-44.1541291792675,-75.99276358796,-50.3462273411778,-120.247339857408,-65.3827571710946,-36.2567265493884,-133.607404780608,-54.0133885460141,-178.754946767642,-131.340761940192,-127.776649382419,-186.167841942431,-152.407991446989,-161.596106323438,-109.157965539968,-170.810489702427,-177.593367643134,-156.816972905363,-62.0948004450754,-18.2129334563585,-168.370820120873,-142.957251164196,-90.3008928292844,-16.1505644974916,-106.16139562,-17.0116077683692,12.1870264206856,-68.1019015677488,-117.75133788417,-61.1284939687851,-67.4569108024659,-81.6396743756247,-53.6564130738726,-34.9614381692449,1.34120528619411,-57.9265419244847,-39.9136596275505,8.21069352204527,-6.01538006656061,-68.9405530756071,2.07954512080769,-50.3865793652021,-104.940202009764,-108.409810702331,-79.1240778409575,-119.124485990723
-73.8896492740171,-73.4369755394625,-89.1132393766436,-60.0182974324974,-34.168183984253,-80.8758765928609,-63.3270226834241,-38.5067852434196,-69.970028979195,-58.2440362055052,-36.9814842379251,-74.5015986305206,-57.6526298534361,-31.8359653553146,-68.2113818868309,-57.3429938927476,-77.893883257244,-57.9722189260548,-36.8246892919206,-66.9217768192822,-27.1543812348207,-109.984750258528,-43.5073379849705,-17.8409410071672,-100.709103618139,-21.0255138099485,-145.499711165229,-69.2317672402659,-98.4476734684825,-133.751744676548,-92.5169681181126,-118.493517322773,-88.6777486722716,-132.723459132692,-131.052184134515,-112.747263635082,-52.3242834057527,-9.10284827026789,-133.655093397879,-106.06303949054,-74.7079402450721,-19.2207574074796,-80.2418692253638,-28.652044861601,-7.80786012116325,-73.7412247022021,-133.549653967843,-77.8113494277488,-86.4551245955644,-114.628548602977,-82.6164547637613,-77.1777445282925,-12.0304477597897,-101.550191960973,-81.4435836786847,-38.0770594933224,-36.9485084672314,-102.355229854128,-5.18761886382994,-94.6486711758109,-134.218203854342,-145.500189213825,-95.4861170748412,-139.359709984836
-128.011127742286,-127.584328427981,-140.156609922533,-111.331707542872,-97.5067337000533,-130.778643656958,-114.386021214642,-94.3435803005627,-111.291864987447,-106.496151407709,-91.6101989967865,-123.722773165055,-104.237131298854,-84.3825194019145,-108.164455044742,-102.716484494542,-117.247696209973,-90.0735561812935,-77.3479856039441,-96.5687698572079,-61.6414665080818,-126.71619958915,-66.0359690790673,-49.3984406311328,-106.795178710435,-32.3362774284053,-146.809594707487,-48.6815521397461,-95.3910922046522,-110.906718060839,-68.4893520263965,-122.298493159829,-112.102346279728,-117.863791648942,-108.368898012507,-111.423496791999,-88.8049577930716,-67.2614016590013,-120.103620955608,-108.495051313331,-110.986714774873,-79.6331124536471,-106.913006177754,-97.8703281904109,-83.760819642113,-124.180623823665,-170.860919094007,-135.979697931454,-139.465194613467,-171.845334868957,-144.797699141305,-148.215801499469,-70.8668553790434,-175.287901710166,-149.199984478431,-97.9411176365942,-98.163394178945,-142.539962062231,-62.4917591629426,-181.039058588095,-186.932857763517,-200.839115046166,-157.753101567865,-190.136949339494
-200.005146838061,-201.940684070742,-207.078446838222,-178.579321873575,-179.030604884487,-196.134379187363,-179.189927780278,-171.041683887748,-172.788014844515,-172.166114934349,-161.446724930058,-184.802770450445,-173.238525796629,-157.582432508111,-167.4228664914,-167.583759785119,-169.369552313339,-143.163615786041,-142.453806547499,-147.540788644661,-129.647051617566,-157.692476636269,-113.881450560722,-112.731088945344,-134.75696863742,-78.5106597497757,-161.560684565419,-66.6791523681977,-124.116240877188,-125.710313183306,-85.4599132711841,-168.870424185538,-201.186819549811,-127.321932180428,-115.318985198515,-147.262040508583,-170.103142987192,-176.692031957304,-137.146250791574,-145.500551604032,-174.054618012065,-177.542418888251,-168.907224107344,-186.421015832482,-186.183158218932,-196.498231034758,-208.176646932546,-208.513432929618,-190.959433307851,-226.2441316863,-208.878429496524,-203.954982688661,-150.558165063946,-243.7091323625,-208.85744840828,-148.050769295705,-169.752697399275,-184.080915331888,-142.226007211796,-281.696300559378,-244.423483921964,-250.331997782557,-246.750196593564,-244.408015323546
-243.038830338257,-255.940801221898,-253.953403334422,-226.738279376635,-236.251762592154,-242.248418621943,-227.987559184781,-223.016664606504,-224.144730992062,-224.484055421192,-215.093278734775,-227.791768199559,-219.172236299127,-210.5934166315,-212.26833899299,-214.014871585794,-201.944060666645,-184.704735824151,-194.279182542212,-187.309390511318,-177.68357186673,-180.085267139536,-152.061420138747,-163.950472464376,-155.23859678828,-129.464011423782,-166.204119930224,-94.3986151811748,-162.102306801962,-150.009287891372,-122.873474485247,-202.172370948357,-281.766111646255,-144.02438234136,-137.856269029071,-189.000346027212,-240.783714014917,-257.320331932732,-163.234271554117,-188.338695355949,-223.504280702733,-252.387856180237,-225.362353707829,-247.745625247065,-260.200209007118,-271.084352197698,-223.086987591923,-270.104798466477,-204.657826605663,-258.867937434565,-261.6722510216,-221.102296486034,-215.678064704657,-280.212693798415,-236.145070621676,-184.024375576639,-222.152252868851,-220.245802939768,-203.728904035868,-353.048348388785,-284.217512651033,-276.246962975616,-316.265477061289,-275.504107419384
-278.971178038613,-296.909984427773,-294.856080403545,-268.457230052824,-282.394502876095,-280.429030607368,-272.685161169247,-263.111703390003,-269.22916558559,-270.999295778379,-265.055946252021,-267.008543899982,-252.984128673453,-253.583879601307,-249.475117826622,-249.404343583282,-230.384545826363,-225.110564820574,-240.598705021574,-221.649376173275,-212.114869479222,-204.577995885062,-189.275308712654,-203.066894966974,-180.342822164373,-181.368435088362,-186.625594122725,-136.189564972998,-201.221151948663,-177.063791478844,-179.480641710191,-211.546588055258,-299.156586212278,-174.731485080328,-179.734315561297,-231.691968964248,-274.299403547271,-284.955124144062,-196.422036389381,-231.587552594738,-258.931210812072,-285.906542409095,-269.234104722522,-285.868062050014,-296.413593880129,-346.331497294438,-232.02695711525,-316.99241447069,-200.191162460217,-297.172088697363,-315.578824276892,-247.953795200901,-280.480739367358,-288.060258355861,-251.201839790102,-247.003281556898,-247.57398774731,-262.53385749156,-250.980408771136,-387.27768646778,-305.824902130859,-301.77909672889,-357.056496254543,-300.717291904122
-325.759081737545,-335.294613487149,-339.852881719637,-313.498882780779,-331.255500599207,-323.685716318513,-317.007637353153,-309.984876680371,-312.116641604971,-317.691680336041,-317.495533249001,-312.744037303055,-296.512758708362,-304.715473351327,-288.547137079052,-289.402431858218,-268.116680482229,-272.124934443285,-291.338078773403,-261.339427902652,-257.9512358695,-237.848812183233,-236.185565878085,-247.00385403221,-216.003416081048,-232.410932954975,-226.400458514659,-194.413209250889,-233.584049119556,-206.748683768593,-239.680478351713,-215.765213779539,-272.429447926911,-213.57046544908,-229.686559943479,-265.156089373383,-279.418122892437,-291.761326849885,-235.05229545483,-266.738241846113,-284.366485783337,-295.113490843311,-302.229590606295,-314.069685972424,-313.506824219775,-389.821087023124,-253.246883574152,-326.801092682406,-215.704737723451,-353.539745272338,-351.309607590914,-318.991845196808,-371.129493590219,-269.736165048327,-269.987960913046,-355.954590489254,-252.309604905254,-312.109491455539,-305.636517784628,-380.827520522925,-305.469719834229,-339.749540621239,-375.223413061472,-327.867099136492
-338.148658791945,-340.278520172772,-351.738401789523,-324.433715819178,-342.291805632442,-340.674636634441,-325.562665951159,-326.540462394258,-323.457787773237,-328.773148373396,-333.338175992378,-331.650050919936,-317.141639063049,-330.276234583599,-300.394637952216,-307.128485095035,-280.160307141892,-290.335172391322,-312.698472416625,-279.315118994637,-283.437901292008,-248.377373604764,-256.974913749093,-272.116892676301,-225.769617910041,-252.780878605267,-233.310283232145,-225.3376569245,-233.021530542213,-207.41515076031,-252.378108246015,-199.333145271471,-229.558562330419,-218.716004021155,-239.515678970652,-254.645539399128,-253.939284057126,-277.538104273575,-245.143115208953,-264.207162017715,-276.502189634059,-277.182336525133,-300.669298839956,-309.64142375953,-302.167788091949,-373.848926501796,-270.756556136552,-294.193919416717,-256.19055289204,-375.317436811142,-355.338765970552,-382.467554041533,-486.465570485133,-243.217972801023,-272.209786313866,-453.083949300122,-267.629350359099,-330.466679826969,-389.404780500314,-339.993326130546,-258.800012488119,-342.504924157868,-365.94244885365,-315.223337846226
-305.426330343207,-307.108287748504,-320.869483517771,-293.075128535794,-304.570347817882,-317.388463826922,-294.696454291106,-299.512857702377,-297.35054445862,-296.258746000148,-308.36282478156,-311.39207255716,-294.719135328637,-313.277334935568,-278.026153010385,-289.943287122258,-255.169820043148,-271.93879743916,-296.056217375668,-266.52504331329,-269.711786511409,-229.38882352687,-240.899951436133,-269.659114954282,-203.398288901755,-244.578589367899,-201.997602468631,-213.921249395719,-214.172962619892,-174.284135270771,-219.506620127958,-168.317789822146,-191.157629268926,-185.895226651681,-206.365728269638,-217.182542200859,-214.568584609262,-240.251131679857,-218.888513243037,-234.729707835702,-244.746068873155,-242.323851603146,-270.27589080576,-278.080149257103,-264.710644732122,-341.862909471057,-278.874093554825,-278.613982062865,-310.485620825135,-335.99487288344,-374.586761260623,-390.822651300943,-603.731240850369,-266.784415207859,-259.326606966397,-492.953533225109,-368.770988925067,-303.975334343789,-527.519741973832,-337.670981903488,-178.93219010334,-283.99414384718,-359.724696263932,-245.344662350903
-282.330144804618,-282.515690706181,-293.523371522455,-271.249525407023,-278.760378891203,-291.200301929328,-271.008257968333,-280.359385040435,-273.117953993348,-274.152467120963,-297.75720046876,-288.959619677524,-270.994303043732,-298.662465524709,-261.367119831457,-275.660749537501,-237.016017732607,-261.92874035422,-287.412459934655,-258.281106057659,-261.955891969108,-220.439359796209,-235.327945365455,-278.646420337127,-193.010142995057,-254.608744857992,-187.906259976302,-209.157148500932,-230.701956574191,-157.788784673779,-211.5928783177,-176.252525900292,-188.48387825252,-165.036177600713,-190.007451104927,-215.921876835146,-207.473728595699,-223.191745545998,-198.589868472317,-226.959997291789,-236.751815792038,-231.646319034876,-257.07306437809,-268.415565131204,-244.077037008745,-337.575954264422,-297.081800360037,-308.568186601667,-356.557704961209,-293.074345476041,-426.175869603421,-378.753327260471,-676.118668606298,-363.900888785968,-270.207390997239,-507.771562057267,-592.91376834933,-286.986334069153,-705.703558935301,-421.698640508412,-127.324293832244,-219.47844034115,-398.957185201879,-164.750424926135
-283.938286760867,-282.673156906072,-286.271640044581,-278.47765305522,-290.777269757699,-281.088507331642,-271.729705828538,-288.344496896851,-262.332507345866,-284.389446295053,-315.154327359436,-279.273564688126,-269.840239261515,-309.691512622498,-263.755895239585,-282.157577645262,-242.759158784055,-273.473997224125,-305.119708122119,-265.868302291883,-282.503172256948,-229.314073431687,-256.848967610823,-306.763391821752,-209.011231641548,-288.18362867604,-198.727133789996,-233.145836075881,-279.522822360104,-176.419215833684,-246.305645652699,-225.827472604929,-222.487233095115,-172.521352684976,-209.316624579851,-250.724508918159,-237.123263354891,-246.794056497467,-202.356353269099,-244.417435276239,-256.510866734555,-253.190515156495,-269.256652262445,-286.152713202927,-254.289914884688,-328.144723335111,-309.978566925161,-320.871299994647,-354.49400960932,-276.577945583454,-437.221865645679,-376.646891874848,-652.355461421346,-454.412631150803,-304.076972662498,-515.444224323416,-799.982357210309,-310.179041006174,-821.240746223239,-475.544411791627,-121.592467728157,-184.634615114354,-432.231551740754,-110.841090006532
-255.081107434935,-257.742744559507,-253.445444142783,-261.330721692545,-279.363005037752,-248.813486663137,-250.640223909475,-268.976445577641,-224.619708459967,-268.414574944584,-298.936457782004,-243.2623025646,-246.726629333593,-295.285647578565,-243.166643108365,-268.571299863991,-227.938895971986,-259.697059258697,-301.538741781121,-250.317847456174,-282.898059598748,-206.930505409581,-253.601373678057,-300.691648734432,-206.191009798378,-288.348693751951,-180.069753920467,-237.242269109601,-287.453926377056,-177.017231063808,-251.439365791169,-237.522251618324,-239.515076898974,-164.462000709306,-211.822254471586,-250.170485940182,-245.151674997498,-265.261468094423,-191.862611204103,-239.911102127327,-253.639847239002,-261.117701329016,-261.632115430703,-279.734105167266,-250.627561736132,-268.05816419978,-246.193821490608,-264.220582758956,-276.651052366157,-211.079681774751,-343.278360236739,-320.306544627622,-507.513349644816,-420.819382964328,-290.046686987458,-446.3797193661,-742.468085075,-310.526985871986,-725.656786541697,-354.4003013127,-108.189619651804,-129.187743582424,-349.917301288611,-64.2992252621988
-168.694229446816,-177.360113535956,-172.311867369322,-186.104331893431,-201.564896237977,-169.385703698077,-173.728102448084,-190.272703803939,-144.696844813357,-188.705711999029,-216.781943268016,-160.397818795591,-171.625480100692,-216.201823186069,-176.370534985118,-207.498502124875,-166.24935692407,-200.012921524553,-241.970250097931,-194.290952140366,-233.157331818326,-134.178785211793,-195.825474643821,-238.989513337538,-155.828697362786,-232.589990087131,-114.201488309198,-192.643333308701,-227.310935201791,-131.661149820373,-194.248003581743,-172.354810758352,-204.013784846606,-122.352508095013,-174.803367229869,-190.579105112634,-197.889553147898,-240.089869908025,-147.226032912461,-200.126213098077,-208.668614522371,-228.41237254267,-218.376041542861,-228.819573929707,-206.338255748082,-187.460527783099,-78.0981690101982,-182.536904967762,-151.146366570867,-47.4054800776323,-187.391498846548,-163.221722757644,-289.557060410313,-251.137771592754,-194.272882116337,-270.266525031411,-407.101795303804,-243.579975535377,-417.859543877826,-127.362263843405,-62.0780903598769,-24.6310599280023,-166.089192613859,-6.65361323898582
-72.5240630689314,-87.0178147942139,-86.5826650300518,-95.4066565771076,-102.052873870762,-81.8282966938032,-81.3407646491105,-96.7333168049042,-64.4107309093864,-95.649617272466,-117.944578282115,-72.5806030864945,-87.713460815314,-116.068403977536,-100.853092137779,-133.237150536039,-97.6274181282836,-136.175101093145,-160.850050225636,-136.378405161105,-176.792427634381,-63.8101252326331,-131.233370000175,-176.530129192321,-95.8040128959285,-174.90927334592,-48.3519474588776,-147.118148070721,-170.767766219483,-87.3997195338026,-143.125790913997,-100.336249697497,-151.26375725838,-86.216993139082,-141.903480352914,-135.701768927852,-138.262340385338,-188.877964896783,-105.705819303662,-163.848995386218,-161.648369850683,-180.333489855619,-180.221548088883,-171.739949738546,-148.866973469659,-150.746876213062,76.0670657118937,-141.512833625055,-64.1017936954344,106.526909023903,-71.4979383274305,-12.3980036068433,-130.305089234607,-59.9469094130695,-93.8550996218147,-121.29688494148,-85.4492966065813,-174.448681390441,-110.709555979649,30.6275451426074,-25.665844595995,60.8082750798861,-16.757321760859,28.6634551614496
-0.678027573245003,-21.0794683649554,-21.5414823936271,-24.1057981567259,-23.3194649789787,-15.8073861691422,-16.2893227957668,-23.362693435584,-6.75603699594805,-32.261488264551,-40.9470915876968,-8.6251571936824,-26.8548808728561,-40.0712488954294,-43.3584666275288,-70.8597770091351,-51.0056520696259,-85.4018880576668,-89.8488149695567,-93.6520055042472,-136.712381642289,-28.1573341803968,-95.4665103081853,-141.343087939741,-57.0490214689467,-147.784097317426,-6.50803115525751,-129.056865882766,-162.418768164616,-65.6922917987961,-136.879395695443,-79.367855185476,-114.485714884518,-65.2315905492683,-120.891317158734,-118.143893887909,-104.092520910759,-126.074333123129,-79.7847894742382,-135.735316806338,-129.040597264483,-126.099109313718,-155.343100527907,-127.021147787852,-91.7731746382584,-139.45448863984,76.592693469624,-115.741168829901,-57.575031292258,124.553141236914,-13.8762237785322,24.4812251300602,-89.0574804555407,77.6752829256847,-40.3888036764841,-111.139251637282,57.578056016186,-145.588512118967,55.586101919046,115.922812379256,-10.548559853393,74.7115818639388,59.9958831574357,14.7075421030913
64.424898851921,41.7079669140841,45.0187556109544,40.6879908772518,44.625290216817,46.4345632662085,35.7764681666821,41.4894894353467,46.204898504545,19.3172015603495,24.0328486022637,49.7375137367356,30.7871206521863,21.587252860384,9.89801794828609,-6.96071190326599,-7.34613048602217,-23.4690069529551,-19.140885358209,-41.8765279978217,-79.862690553214,0.770170589054573,-60.9540431449695,-95.6455545083752,-22.5521965034876,-120.824856825393,34.8090692482118,-103.172932586087,-152.079647337865,-30.7901815433397,-126.619893341602,-75.8626677922701,-80.2785137738552,-24.3598106289843,-72.427212093166,-95.894982185704,-78.6338204591133,-49.5677178825768,-36.6092979824809,-83.34611713509,-84.0794650266053,-54.5546283760348,-105.183398055187,-76.3458955948577,-24.9340822802727,-80.0586012010425,-29.857596900478,-41.1251444850095,-60.9556257709182,55.4974312231017,51.4245662079104,18.3273273019776,-64.8826733810444,191.323757762389,24.2173810726412,-132.612940391249,149.743979416727,-94.738374711967,158.44083963993,225.905698643374,32.4237614075644,67.8347084512104,142.795677574632,-5.95663303819454
119.329527112517,97.0499280381679,102.197035002543,90.1051163683233,92.7458475913373,98.6398376495331,80.2832305293869,85.199331088221,88.6494088197602,61.4407901385851,67.2035200101517,96.9444658183952,77.6424157675066,65.364866419452,50.3169776729209,43.7945570464567,31.2607102482228,31.9068818568631,36.1945830751891,6.84662915123841,-16.8918640423517,28.9255757210841,-20.6738887754859,-37.5233488375446,6.83170849408645,-83.0771035861609,71.0810065626495,-65.9619461223408,-109.570254132151,13.2509312155249,-91.2246151968419,-55.8926172326711,-47.9722277640491,23.4950076479449,-13.2750240844755,-56.5551645604581,-52.7537428249001,3.50265385232299,15.3464733542755,-25.6388269749019,-35.4697048552355,0.303299718082574,-40.1722654810305,-31.7778006689144,24.8705038730322,23.7425258207291,-81.1734752593334,57.2558509388797,-9.01119032680369,40.4173788255735,131.992520554953,72.6939382284632,20.0579894966938,278.291066226007,118.987991532843,-53.7797576367965,259.662040132859,9.47698731329538,248.816254073327,330.086268666522,111.510000504933,102.517501892901,234.308862249928,27.3092731538955
135.606898880591,110.995784620449,113.709191175331,95.8863797756675,93.2695275050237,109.404859779403,89.6919776432392,81.430110402023,93.9901712511936,69.757537724356,67.222952202302,102.724870691304,81.2140665040078,66.5953791215021,55.2118383762454,52.7874387545332,40.624039081285,42.0585411705016,46.3114899067575,18.2878740181527,4.76365031725385,32.286607913385,-5.21817706531445,-8.83401404601378,7.89966813964672,-57.4233630029287,73.0707314972047,-53.1938271328785,-68.7392090940657,24.6339684514462,-63.6102972069012,-34.4967946852942,-37.7255072383863,37.4895174278723,8.93766416590226,-31.1278449111736,-41.252962787219,-0.554002665642364,36.0160525488072,-4.71360146117229,-14.99059807428,3.18342012691135,-4.09127830615838,-19.1323625841009,25.7793866002041,103.090810444404,-21.7002566209552,102.575132241484,60.5085892236185,117.193112989326,170.29312660768,157.621436146948,110.219801448898,282.820844809137,172.342605835463,72.881145359485,285.677074536715,104.242744459187,260.207072865118,337.735056057557,166.958183352499,164.92088081388,260.682851844578,108.091536312269
99.7451832120357,73.494765307658,72.8488485219567,53.2112106900355,47.1387376047235,72.130752191428,47.9148430345337,35.6639435748247,52.9347470158192,36.0043191990015,25.8714962070572,60.3420074801534,39.9068032063426,23.3062492328601,25.9735377938854,22.4051020595937,15.7079627892874,9.08176787703994,17.0185832597623,-8.07121103137496,-18.9950390195097,5.02757658796156,-24.6143210002752,-22.2517901905042,-23.9858836885722,-59.5732560925535,35.1855786100562,-74.5114180107,-60.051073368307,-5.79844682229103,-63.6390823832377,-38.9065731472837,-57.5822599406496,18.3295482424798,-7.13421854151424,-32.5717609571765,-54.440878436059,-38.203048864383,17.6440285821445,-17.8112978466311,-23.3212078800069,-29.7424299312915,-1.70485656297226,-33.6554544745849,-11.317551741083,116.638064980246,63.3322668574107,69.9030770515425,79.9603129641518,190.900288852073,143.703176070646,179.053069639921,135.241316364934,204.722863357186,141.249782804057,128.758537957809,196.978993363287,125.338659468796,176.995625174323,251.417932055636,149.788853944708,193.363253573732,202.654109317143,159.402405151957
22.1091313910676,1.32685344975203,-1.76047693085558,-22.0583077649175,-28.0079125345003,5.53229958221424,-27.5403422613035,-32.3708319573744,-18.0536079544212,-28.7439371603897,-43.528860798813,-8.72937076801008,-22.2715798969297,-44.7504555236782,-23.6256937486003,-28.9754188225787,-30.8425112341814,-39.5041197779274,-28.2559956849327,-50.8195828094544,-59.9671292589409,-41.3938060245981,-62.2120548643155,-55.6541443005602,-71.7236241480806,-86.6559590074103,-24.7310452627879,-111.012588715673,-77.4383949909531,-52.8986024682404,-82.6577724748817,-73.5159461430395,-96.222300820001,-10.0168611238319,-34.5899253359953,-51.6950100454865,-86.8797524164277,-73.3474884521976,-18.0677074314907,-38.8720982178163,-45.1179264247352,-67.5203242342362,-13.7786372903909,-58.2115606575148,-56.8341242362892,78.4100787718595,86.9622176532812,-1.10239220146569,40.3152278170545,167.405299523326,81.3784719055122,89.3462040012957,106.668986106124,95.4998497321541,44.5950350985195,84.4513755230086,85.0720087289361,68.9387707277375,78.9864671631051,124.822790393087,69.2125998141768,151.963111598073,106.758340217233,126.979335036218
-42.4959216911538,-55.4008393461861,-60.7958567124724,-79.8985578203809,-92.4554262765461,-45.2641879521394,-78.9145054076588,-80.7056516987405,-68.6417906558589,-79.8978516292714,-95.8600627930746,-54.6030320426214,-62.0587212908973,-89.9905643296415,-57.8386306151863,-60.8936432656285,-60.5698744308292,-64.2245782343948,-54.2846508622675,-74.423077323188,-79.4030753514978,-71.9488729515337,-82.5442784257308,-67.7625695589199,-95.881327687097,-100.444544833481,-64.765431474955,-124.586280554545,-78.1053315121306,-75.5155037090152,-85.4317215103742,-94.6826011141077,-113.81932934665,-23.5297673442907,-40.5894918161806,-59.1447597124074,-103.329901103066,-82.7749885053043,-34.3768482189319,-39.1556766098801,-53.4091266287128,-79.254117086391,-12.6991562285796,-65.9236979559838,-76.7497729850003,44.2934195323369,54.9102813566019,-46.366324317739,-18.0300726849287,72.2317239487101,28.5696942788157,-81.631577276273,85.6329804840504,-8.47755193947139,-76.019997169108,-23.5254468747337,14.0214349750103,-24.6580756031259,38.6108218486499,1.22967939823362,-23.7833708519551,69.9463341000588,32.4454218522273,55.545728728802
-48.1835961949961,-56.8319542386636,-65.9629875638034,-77.2844790811246,-103.473651380698,-51.1747154443894,-71.2398148967945,-72.4986103126185,-69.0395185862151,-75.7052281268404,-89.2407237310331,-49.6378167557877,-55.9587568511794,-78.8552451729656,-51.2144141004962,-45.8205416569714,-49.1342941498776,-49.6835101075245,-40.2090950655949,-61.4742482876385,-58.4658671760737,-64.1033794202752,-67.0042818803616,-41.6155846135828,-82.9266590016034,-72.5984014280779,-65.198191631459,-100.592281986146,-40.4296830175624,-62.1005326211258,-54.7790875254184,-70.8208810241855,-90.0983961015118,-21.4778927691734,-18.9524435700832,-40.0701647645582,-82.681937728656,-64.7657248384907,-21.2456572980144,-13.8532807254736,-31.9095053025905,-58.0253689745799,14.2838550475909,-45.9654607686885,-61.6879359476562,47.372763422099,14.6738316186612,-43.0782224994502,-61.6697538093711,-4.99117544220466,7.33701341440377,-246.667741193457,98.1624874578876,-89.7802973721182,-173.437420019137,-155.767798158311,-25.3099325761992,-117.233128451729,48.5163297253535,-78.661502159736,-91.4741662278458,-15.1023108799777,1.88493365250772,13.9817518514297
-20.4475501977808,-26.549143561606,-41.5858588778875,-38.0769474003377,-67.6606985624771,-39.778272438899,-38.9538944529051,-33.4711210633079,-49.9562544321337,-36.7538799254925,-48.4579068526006,-26.4510340578172,-32.7466802160795,-41.0249354483565,-30.82954234894,-14.6294406771506,-26.6913678754861,-26.3260204008996,-11.5157130770521,-38.6563428998644,-24.3535772953531,-48.4601516117243,-39.8382756761882,-7.53961004144396,-67.283410889324,-31.005280067503,-60.2498219860063,-72.8397437446186,0.904928004333436,-45.6198752852399,-23.729136545333,-36.591792744977,-53.835025773523,-26.2201646945423,-3.00493565147925,-21.0095533011031,-49.8975050490186,-37.7694594395852,-9.28320409604628,7.52739943773004,-3.64792367542493,-31.9537165270553,44.5091012195945,-24.3162955722878,-37.2398508248315,71.4492115827297,4.8255510617518,-9.17453296965202,-58.3587514165027,-14.8889859010955,18.7728984471052,-294.411050073813,131.568013467643,-108.593465517178,-197.251193915843,-238.669941746423,-25.5431101141736,-170.746493566563,71.5796789340759,-79.2383888187192,-121.441418745053,-86.7308231592284,4.89649372732339,12.3864939598576
17.5952903002607,14.8530606671059,-5.75034184508977,11.0831760735358,-7.2424263355551,-25.2957529397291,-1.55271462127732,6.71918587181587,-26.2330778348859,5.92863906534638,-1.44996509473317,-2.75956859567379,-5.41528498646925,-0.349638084262793,-9.5735670969685,13.99067162189,-7.34560436375011,0.114475796377305,20.6781120660079,-14.463953901939,11.0621140327158,-37.3941646057125,-6.75818436096645,28.9638139084156,-50.4640461251217,11.2811844078076,-58.03342993516,-47.6801629989145,34.2010872301246,-27.8229902710203,-1.4634476066661,-11.8516873393489,-8.27841008254058,-24.2594063367677,7.70070215246329,-3.99897628856273,-10.643090924409,6.85301853874033,1.32160193308705,27.1828529775268,24.1600036989204,3.3939100490156,73.5755823022455,2.56539140091049,-1.4806607891112,110.118369942901,64.8626672540136,52.18084066015,31.8245579897769,52.0277267692181,70.6100801894641,-163.018850100998,190.116722526768,-26.5427241722454,-111.10556142257,-173.240722830198,50.9914643521623,-123.82954551928,117.616572129479,4.71865070260915,-82.3099971411961,-81.6955414358623,51.5538533208309,57.173958284941
81.9376399049701,85.1669568166396,60.3032212655716,81.0141708994447,74.598753796095,20.5503291081582,63.3876960366358,65.5508980900788,24.5786822164722,59.0560725525722,65.2197452128638,41.8960447225427,50.192799161957,60.1592276544596,37.8030433808746,64.4701030484727,34.8261095689145,56.4628453353803,79.9831984736113,33.7566256469817,70.4283930113737,-0.611461682028482,54.8361773777779,94.147366747334,-1.67551251296495,79.5969871390596,-26.536024613752,8.13027775223861,89.7490238383444,22.9639528659474,48.1540004959864,33.9557584109551,69.7673768435055,15.4565533263326,48.9414114519532,44.8579609047665,57.334401378579,84.6682805058849,38.087219391661,79.0553218944233,76.2994028383909,75.2458093358213,122.744717746006,67.8688117791092,68.1636713463259,157.869723514524,176.786295585684,118.128656107367,162.841222709171,168.912440145956,138.433697927933,58.0520568716966,260.349919644595,101.74432629365,48.175676751271,23.914285682274,164.705221374044,33.0742028481691,187.332360296442,119.443437286871,35.8708124458518,52.0449744458802,136.131309373188,161.013888596853
152.089314404286,164.360289004271,134.832740640353,154.70205453521,154.802745614894,90.936375941469,137.171396781581,138.714063690705,88.458939890469,118.772471491853,138.778977290572,96.4946489925236,120.827439425508,126.50997263652,100.869462226044,129.263148630613,89.5593160612148,124.445050547437,152.095026513669,95.0328728371385,141.588830611381,54.3909764028924,125.642254630631,166.948444186512,60.4002813894298,160.482788968781,27.7469251800066,84.6759425735397,158.639591000802,92.7158263719771,123.898515425409,101.799644739667,153.193206911675,71.6723020520872,108.759995531554,116.678557447676,137.612486024977,163.66558366536,87.6995801798436,150.152998575927,143.626901836609,157.373586703571,179.006948596237,150.839298577312,146.867956782753,178.279010444181,230.330801917953,134.882218677161,199.430048992767,256.098552670583,160.842695869711,188.226655872601,281.842100770147,161.75752511325,168.331721911299,206.17339392729,211.561164578932,197.60038867061,220.420450239441,177.424473807115,146.843474372757,222.859614191711,189.630924195699,260.732088715336
174.718555269703,192.662424365387,162.931105966352,187.063743592624,193.607465827465,133.799482161335,167.434508772868,178.802249823804,119.9530704651,151.503472864179,174.03952392701,123.54774475284,155.111244886176,153.877582648995,134.889673069644,164.216937777202,114.021500712839,154.715847896596,187.06714991448,130.945487131815,177.387101656512,84.4270923013664,158.28308060575,197.185775273362,94.8479788075686,202.258018379415,68.130324725715,131.396262279813,188.248341407912,130.922158817155,173.478818354859,144.13105440159,192.558432069908,101.543325389447,140.106099098747,157.688922436366,184.258753206398,203.433185920944,116.340858446161,191.973713999445,183.154081976167,200.70238451321,204.835545679241,195.217387143077,187.457581403428,163.268993948074,156.71639624114,108.970525566678,103.841114949661,229.154889593679,127.511564712832,160.778972633676,222.113990532679,122.047862014648,172.845761518242,273.976682957018,161.49454567451,256.804896358355,177.173940487687,136.127283151638,146.456692134078,281.66291224755,159.112752654594,241.026991269719
151.496834853329,166.992303042284,147.283489620641,177.110414123903,190.600610274299,132.434292051587,154.822826807356,176.255655036394,116.35480980957,148.814655302328,168.709228200899,122.064858048046,144.627903471555,143.945865284225,133.374586799159,161.912644079953,109.705485256795,149.261611229978,181.545082195202,138.115968185014,173.28291948706,88.9312021542225,155.71213566369,188.427644854296,111.035963612078,196.312249976648,91.7749961522962,139.424702241372,162.244655700328,129.554622840105,175.433232181376,137.018940176235,192.150450233761,108.852218118395,138.531532848963,152.445131091996,187.425907975612,209.71325971754,125.706231522338,195.858228390154,183.945383489426,206.754803700104,199.195320086578,196.508378908687,191.437615520765,149.231859242762,48.687482040891,103.42345044261,11.7167633732491,94.3853817805937,91.4421780920312,85.5156508199934,108.87147184507,59.0838428090138,102.563891768834,257.301017565442,76.3178454856371,208.922043996566,92.0111935406438,38.1543604812208,51.7975725881415,206.288358766122,86.8852132522314,70.9948448582578
142.345934406109,152.977355836131,145.130530021003,170.431440946079,186.373509217468,129.006360343839,150.406760047463,176.756069926608,122.003323766432,148.79771043458,169.849556300189,127.347074233072,137.222334396747,145.6775236845,137.880557574933,164.575254429837,119.854030107473,158.335155389555,184.913664335698,155.012993044667,179.909225189045,110.713606355837,168.445080041596,190.694467841331,145.202489357023,193.397090858072,127.455821028788,158.425803953061,129.631645732999,135.559716748784,176.874580129585,113.918900082866,188.549366224249,130.047935630055,147.095955243596,148.904349139352,179.588104993671,213.830530379148,143.433663674485,198.293780538978,180.49566219215,212.32609171132,201.111405898386,198.604193963576,198.482776409299,147.069608793363,46.4758592232216,133.426208622186,48.3566263705265,-17.0904994716728,83.4209068701371,97.4248102893439,-15.8577049693928,43.6948272843886,61.9473233182419,235.864202774562,12.9305242120696,153.728580277764,22.7486300476409,-34.2791008410323,-11.3991327817521,106.117250426435,55.1147651804615,-116.41045232901
173.999616773021,182.770538930336,176.59329872326,189.900704127741,202.348892511461,154.633870255389,174.177349230301,200.041316875926,155.086578619809,174.457536174013,196.527300846861,154.500505918086,161.316136120752,176.249337939151,170.838868425639,194.262502539465,157.309071911451,197.311183548258,215.71545962041,199.181443827836,219.332686714846,161.355935581067,213.282299635589,221.454082811351,199.842906155581,226.596105852094,180.366818872188,221.312845589857,136.828181657401,174.625090348291,220.33942671404,115.910033617214,184.76895076778,171.504424829367,189.981208705415,182.729610837923,179.136482516798,224.082664437982,177.705453041988,222.792791627807,200.554908003699,225.013290545566,232.49791153126,221.170281435382,216.313034990279,140.627582838501,148.770693376397,161.132416364542,171.717574875201,16.1980230571825,84.4874306510853,202.756605273661,-111.205184565372,57.5013321992983,98.9283888636542,251.253814763695,-23.723236303835,176.796328473569,-0.649671052067232,-39.4079459793636,41.2889211298449,71.0700173165239,82.9898798787211,-136.581084552985
209.91937972899,217.592244618379,206.960056892552,212.894086315607,219.573967779267,188.803329500224,198.029073802448,217.124852010214,185.045032777293,200.045991676285,215.361724574033,181.594767898391,193.466215968596,200.021545401677,204.020187110322,220.796381498572,193.064869556795,227.79506840215,238.670095444192,238.110343818608,253.399382566044,204.521578310857,253.282884121222,248.85704737292,248.519464288048,268.422493270217,220.919002580702,299.137877974482,177.733344018648,219.440866365123,284.117095480039,154.571155677659,171.774161072421,204.383845094061,242.467351457634,235.078591834892,179.084872539013,225.91151683269,210.613408151774,258.28452329964,237.387120524121,225.485769265182,275.87381351978,247.335746688097,218.464263032063,144.601256217706,249.058483551546,175.265290595842,265.852461147881,149.301778042451,77.4483776968289,304.784138467883,-132.544523012467,40.6196393504227,158.505424386146,285.423869586271,-50.2969453786599,246.934497716705,19.8432952945542,-3.76869833096028,149.817356184484,61.0771456840089,124.362245831135,11.6646831070499
216.723821882927,223.095224611629,212.673293948211,215.538776982273,217.827414339798,204.807743511404,200.050920868481,210.984413936547,192.431881535576,200.355234452373,202.302884823507,189.556038106122,206.078666945336,192.563898009783,210.658925853409,219.254053956889,208.0584718407,226.573847200847,231.33992783606,245.156067489831,253.992724223691,219.192620373151,261.62938431245,248.643368449821,274.528191317652,281.590065654289,234.309904928881,346.633955136448,226.313967656183,248.747113361165,328.133759115994,219.477454005117,177.107319990142,214.975971058342,273.703395967966,278.411833030894,186.300068897881,216.723788795351,228.279419766209,287.858926692376,270.058888172795,214.993432354081,307.189011816406,261.573853649619,202.439895092164,177.901893456421,293.632786145687,191.704366276395,288.775969710258,244.114715527616,73.5317440876041,331.911511704128,-68.8928932403335,-16.7078465787068,151.507398326666,292.714596687349,-65.4020105454102,259.630120935029,60.4239008946253,14.757144580209,176.060758614627,-17.5855677369105,138.545106119739,104.304174521314
202.013095100618,211.20305544957,204.620215432046,201.517325577744,199.548792560033,205.5185583907,188.535564341581,195.538360552513,192.695732843915,185.069950326856,176.679573042844,183.729960537188,199.637544927882,172.111918783747,201.557338206718,204.764088988557,206.78768329246,213.162431903617,209.202300275882,234.686501217595,235.261464101658,223.831946167798,247.026866757865,228.991133657026,276.027129546775,262.388558494757,236.073482447648,348.78217164763,260.205936992163,268.22329785258,336.982909962489,276.591433284893,219.094918793205,216.056620681849,279.764812648123,300.748973627607,208.813391218825,206.656035045836,231.259084789017,301.477325026836,280.753813347123,206.093285379967,313.254108772149,256.171774713316,185.571488122609,215.754749403837,294.888799816468,205.742285660928,266.276095977558,251.278901688668,95.646609316616,290.25176060956,36.5257616410398,-58.0097590344178,62.6538956628058,256.709629577569,-41.162874356136,191.116687126982,96.5322294219196,-2.43525072627742,79.445917676586,-137.305853547314,125.304316346978,-4.39063999198474
196.058668375323,211.073018588349,206.203335789777,196.208854793598,187.083245916735,210.062551512823,188.15480824314,191.143385620422,204.633561146449,183.036515923516,173.097211824845,185.750686233586,195.570589406898,169.433416447263,201.144433903359,201.623895963876,203.226062596206,210.752283678992,193.781631499074,231.193287772173,219.495855372643,237.632689211404,228.126352466048,209.589825104749,262.543824425635,230.363154519664,240.058501597522,320.270435043342,263.211807001253,279.902249892502,312.679888761407,290.527480322838,264.049369992578,222.823462434105,275.280099703827,296.234505334965,229.372602004639,199.890506173191,229.467293050322,296.767406114792,267.636224458396,200.48619552033,297.214162927303,235.372696915479,174.173580274005,242.142134796615,277.221250790277,220.637579606536,243.969010634001,229.790849776342,163.843531653565,245.163325290457,144.839726769972,-7.83145218892552,1.57149722733186,229.08918947742,54.8006361166166,147.994778951659,138.495151040026,11.5204841502452,-2.8906841486868,-143.602868371485,125.835772675295,-131.078607735657
222.629100918839,237.673310861972,235.581109493332,221.998203376741,204.434995944136,234.058508266037,216.170057241457,211.303074705723,233.213338219715,211.622921013496,204.302220957602,212.033617413546,215.126536002391,195.897806863614,218.949888398857,217.924572530498,217.698655366135,222.960274084984,197.824766143788,241.775685214077,217.390300308762,256.696698234022,219.770671956517,205.104620439081,256.006510349844,205.051599637116,249.932186375997,284.430348446821,243.132365672863,283.731454434911,273.006535586303,267.687520320079,279.983673279608,240.111844460093,273.795471849367,269.982175316301,233.04075510532,199.244249973452,234.391794320111,283.385556992777,247.503402156895,204.815585128412,280.175533957022,226.519236297153,176.279455333415,277.874004690766,272.441100954529,262.255254194563,263.452216954573,238.058867063127,265.051855410845,263.47675385881,250.947028278032,141.89165308977,83.188081991647,270.206013610332,208.658368337256,216.381620051694,214.54366349766,122.78750032463,73.8454363957598,29.1675647673262,185.664588835988,-28.9942628180479
275.176066514476,283.212997191216,288.15829861053,272.290106026457,249.824659849279,276.443816731054,263.295259434011,252.455840997108,271.983181965569,258.165965607822,252.550936194093,251.168750302946,256.495769735533,237.975225406903,248.060933521242,247.816599237136,254.330906729258,243.506349460249,221.644155481371,258.673074724952,230.198706666852,270.365181896924,226.084717455259,217.865029012232,266.471790612458,192.1617521775,269.897825688522,249.585486220279,225.238019737101,286.667114634759,241.459712373203,244.275432227153,283.206454090098,259.079027632484,275.04735767003,239.988017617937,231.250587498139,216.800073657421,246.05526014857,272.028413349434,236.537050869952,230.027387299019,275.541782794391,251.079673866408,203.796976177959,321.840759502597,295.013086848732,315.996348321906,307.311350994808,276.77186723451,336.816171185288,325.378046806264,336.84858839069,288.447106621687,247.859765708413,352.550817452787,344.868159998878,334.816699576621,315.996197902777,282.349745563024,254.442834945751,243.356908052009,292.643583601392,221.040269656586
322.489565199353,325.156667409134,334.425467323273,317.117030959586,296.432578832103,318.040963850391,302.184680216298,292.808635272029,307.904820219727,294.510440073068,292.0433658644,280.403741767951,295.025014099335,272.962640497723,275.148359730069,275.150861585488,285.331073498674,261.442131075223,245.671442514683,270.661456201417,248.146795578046,275.885077072026,233.751776103863,232.627894163186,273.923894572417,183.648877868799,295.201632056577,208.831012292959,222.898848195752,287.90377081624,224.735703544534,240.345542804242,300.349806633523,266.890883806287,271.758911974744,227.044200158237,242.032048242423,254.732606593618,255.124242954406,265.160419613787,237.033808642712,265.858901925497,276.135386517074,290.801275997493,245.256904022492,348.810365857695,316.677054068496,335.862107673885,312.281595851688,314.335681943187,333.019576981462,346.517433631618,373.819829857733,328.341224530792,339.115387856294,401.722797173781,404.707372465222,397.849014490662,405.339886495428,396.722928678671,376.926499770297,344.873581099463,389.930078956905,369.418661170136
336.45111452995,338.021292040237,346.602815640213,330.915236288518,317.176129616294,335.369769493012,310.131174121914,308.20086223105,325.368040977911,302.561844643044,307.966516182251,291.570223067652,304.907671777471,283.660965716626,282.698194371065,279.948673599875,284.938791608852,262.361301087279,247.940537706978,268.095064473634,251.411656090432,270.269441146513,225.166647960564,226.440519876459,256.050042796798,168.355160547201,306.986046091733,166.367992700596,224.97372007023,279.170451659657,216.541630248602,242.157235999055,319.306988439673,261.708208808832,263.712435590871,235.032014676334,260.187557245431,284.802605884258,255.431935669859,259.74711149298,237.972701721663,283.478480343213,272.36226157963,309.73620785339,267.242672860782,360.123731744237,310.597367870877,326.247243453551,278.422676161379,327.950092934406,287.660119634143,317.179928493796,375.126630962963,283.170438271481,335.02345234564,406.035711817263,409.784367682443,399.702503148089,460.38723921589,449.4807008047,396.47722585715,344.721693390462,441.495798183488,369.225535729074
320.787905298666,320.063011057238,331.942228469183,318.542536677467,310.697425386801,327.324829830319,293.694076341461,298.267373175257,319.412796894403,290.19204052148,303.804930467682,290.29633648799,287.223222898542,274.483771751804,268.51303763887,265.532477234002,266.835555858386,250.256354997037,238.815882283059,253.043873837951,237.22010161272,256.339314439796,206.904232832903,201.003118124925,227.448679894404,150.993237846016,300.031657689778,145.215458552466,214.098170252641,267.134493292394,217.931531028403,225.126616933466,311.015219263419,255.390275613935,263.18114649043,247.247706410071,264.989310768023,285.883772314372,254.387004518938,255.475830534854,231.785223352167,275.607410965984,267.100441712185,304.901010262705,261.043924145822,376.908791449981,294.219851032253,331.418111981033,274.231174526314,327.298239337435,272.254242591758,318.832167810876,387.684972320244,251.430666114007,334.210580902504,412.476105478038,408.490074776578,396.616841986045,484.184936009337,467.392647025317,380.78876982892,334.135955455252,450.539723187694,340.081249391573
304.529644597302,301.167813787466,320.957993492358,307.229357807739,300.519079656849,318.315313121095,282.49817710228,287.330189264751,303.140061840162,281.429528141653,296.130213436454,287.659343874479,270.419254931278,270.069079770208,256.740787850507,258.456700094094,259.042873998085,247.244247926446,245.172761217483,241.148295410854,229.197919367161,247.203491093062,200.799894701874,184.440701600439,219.422038562415,147.890240904349,289.864493524878,154.8156220253,190.591337172538,264.333203090074,230.748034676553,188.741760628665,272.416730530471,256.045863245937,277.325255792189,251.5485778023,249.761403250316,272.320273447008,264.712371803207,255.996514497039,227.184634646853,262.095916802266,269.106269185198,299.656175851535,251.001688810892,393.14240342213,289.365143581667,349.331068401501,309.214079700436,329.237192777138,302.215827927253,373.503487611359,430.101219551048,269.431527205182,362.308605012032,441.775019036259,401.781502526205,401.649571633664,485.466957838926,448.504376409321,365.076381614431,339.653058833427,432.15729834585,338.346953058136
292.2848135403,292.665053501664,317.025734103441,301.571311104953,294.020731385511,315.586218239778,280.184053867475,282.389990068816,287.145984467519,279.696423394329,289.648503261083,286.311372311589,267.57643393982,274.684755267513,254.468939422062,261.491147535304,256.632124079603,252.253220838299,258.567735391268,236.819825720963,232.860875668218,242.024582514959,202.498199861095,185.844657320652,224.99629190551,156.727219243232,275.361958105435,172.692165717472,165.144413689593,258.788587137291,238.757184822283,155.414062004154,219.729030089969,251.267380139464,286.212944609463,247.335196562168,223.539346434729,251.067134756115,276.753713081335,252.817221005391,228.025823307096,246.262170575434,272.202654539765,293.35356760875,241.425755580034,378.629164329044,278.916119624706,337.381643193119,321.229051487769,314.596283012813,328.218238707366,401.832290289084,478.369985268714,289.89029151351,357.60356862218,461.301061397153,375.664598113267,383.315149193281,472.362561679788,394.430419338475,324.43122636041,328.117507304911,394.266383952768,327.818534479074
265.839928454207,273.055202056877,300.649220305049,282.316273431337,275.090044834524,299.759165709911,265.872664705257,267.51226891485,270.455365500478,268.116263646729,274.741947464657,278.604308581723,263.262032736165,267.865685672304,242.472834435817,253.757207569442,241.361230306,245.567890810873,253.118747322878,233.493464670216,228.121923888421,229.944887818052,194.593502833819,192.199771239193,217.573759527159,166.021817100049,241.056496971988,179.83192024427,149.060404643026,233.6277217316,230.035897686771,144.044354606826,173.72939837459,231.485077665385,269.088790575523,236.038523176052,200.80668211067,212.875591942888,269.256885904704,229.476339263969,224.433624620586,215.257986373311,257.178858634068,270.79310100387,213.936848306531,336.361327741517,249.426422899836,301.665278409469,300.338692562404,262.849422306725,329.854626229327,365.925992230147,517.602056831488,291.638148749762,312.709092310715,447.0297866856,377.164387513825,336.723090289992,477.801247911729,356.102966678895,255.083331211174,284.599333660178,354.402465385102,283.075884488308
233.30286314885,241.116353515503,276.299638584996,253.314624374126,247.483554762672,271.090557912411,243.771607277877,247.257919441461,254.011953594828,248.349053574766,255.139318891257,265.061627166197,250.576237899484,252.408030988195,224.938686328091,239.473873676104,223.036456445237,233.700073476459,240.855733813641,235.729679187714,218.711946194696,216.195138856405,187.150982570289,204.647919962229,203.768513018645,181.25194606154,199.039819074328,184.966299255389,157.151230342501,198.499518896645,221.007499518043,163.185993096667,161.559536801093,214.995479713722,238.039823017704,227.480040450299,197.747051559662,175.484296357168,250.031994641519,190.132058307307,219.203781145396,181.570837654357,226.46074779069,244.788149028669,179.754990208205,302.983709049837,228.559129182544,286.810746925045,292.800499736266,204.908095617273,339.3822215379,323.152834214741,551.291377465365,313.424695513813,286.432850277932,424.314871468253,464.513837732069,297.122073279449,536.012783766631,373.619388770134,198.032440009777,234.438845319284,339.560210653639,226.935588399557
212.573716552808,218.132135988853,259.148496431495,236.242975026898,232.565617317536,251.140659665541,231.572163363478,239.069782495529,237.627175178296,236.479813701599,245.098351779189,251.952873136688,237.490827345409,247.739191145635,220.843368282426,236.922079159109,218.847079603661,234.708517850174,248.354461488198,242.721224803682,225.058871112707,208.428716623676,194.155213471268,225.435861228441,199.619021990503,201.796897226869,173.566307642677,191.26897193328,182.384261399193,166.410853594643,218.616882582153,204.69633628026,189.217129650577,218.605111386924,210.293651853466,227.794977792845,216.257006701742,167.767264480477,241.995449541304,149.989288931732,224.359215330211,170.785424036762,203.265377179071,237.140715195449,173.52149593742,281.394990982966,227.084684421175,285.252885839567,292.741681111396,175.195761386257,351.458359292426,307.48677262732,550.613493667695,356.544630268338,291.677025615795,410.014041031227,577.97610366356,281.789674977842,599.828409472048,396.951545730631,174.642813332321,199.693906640801,335.417448911444,185.183269180201
186.614006501644,194.576919743016,230.236861539404,217.508596477447,217.954487409943,229.457017883817,214.987303982321,224.822614693467,207.367850492776,221.393807977465,232.586237669082,226.359936337711,213.685182095486,238.39266260785,213.544831635196,228.673316092431,212.530497285954,232.165675910255,255.562333384748,232.353396100199,229.241614914799,192.520064560003,192.691702840997,227.512774394057,189.286938653011,198.970128831273,155.128872275153,173.994489789157,178.83500681361,130.437431202005,187.759505666547,231.113805690102,214.438238070582,221.291193540547,170.782039697293,210.56716522741,228.640902386478,174.810004100077,231.823809848556,99.9535163666462,215.563565513279,170.697714358278,172.769339250909,226.191370518493,191.939223541541,235.185388954019,191.054184191455,247.608824314157,245.473775819785,140.56615272084,309.197421945299,268.901164097716,467.617130040509,351.092544162674,275.988107408657,360.991840186963,568.597649309284,261.117768564739,557.393453936295,337.172087409251,154.402489662884,162.447733420824,280.177350935623,149.63983929547
126.839245696459,134.296189637371,157.880154690726,157.397626695882,162.004193017184,166.09771582584,160.091900906238,166.524040281846,145.13693443924,169.336492210143,180.845928343108,164.026211755693,153.856276972813,189.267443759625,167.619185582213,178.121518608536,168.765035083361,189.742977666599,212.529647241994,186.710153922849,189.695849344509,149.51111351806,147.677511591652,176.706115202442,148.900900617355,145.060459918349,116.325361333317,115.918451976261,113.117226958141,81.5670784141418,93.1662262737669,203.92581943338,185.291704223178,184.102418760626,94.0372781777243,139.935921762399,194.679722773936,145.404547251789,178.768610112808,23.0397804815255,140.19837228062,136.402860094256,83.4847409512395,149.240770423892,184.716257058612,154.311513746968,74.4797143767986,165.990347533683,141.646762323105,43.3202981067768,198.462028897834,163.304533047273,311.647332843169,251.332383903711,204.308944094192,238.562355272465,386.511617572825,200.878756009162,371.152870556169,187.568951162922,102.674498798762,91.1070476926833,147.335385325639,94.9651607520797
43.3515695574698,41.1204909780477,58.8034312362126,61.7589051984332,65.898213675074,65.2181813490448,72.883822206534,72.8153272432677,61.2737403754028,81.7471506889305,87.4903800686777,74.7622107353084,67.8646135120637,106.14713724304,89.0663585799248,91.8669840945696,92.5353866445902,109.818693346685,118.707659519227,117.601439395287,110.564802799156,92.073528899442,70.1253057374409,81.0395048286913,89.8394076345158,53.3908941982469,63.6912956312257,40.4100181222366,12.9642215550426,31.8730333928922,-44.5511738000028,128.381252566858,98.9938036264006,106.30238056924,-9.83067374451656,27.6783456161968,107.97612601986,64.3477927836707,82.2570289416883,-57.3698173660511,8.2133860241979,57.8189768718387,-54.3500730172593,-8.54189885364898,124.808494794367,77.5499936536069,-66.0667516053498,85.8396503764412,39.1258132319031,-89.0806739101628,80.7696876057989,34.3813521227074,161.731514249632,103.577154493374,105.745896365675,95.9293814386284,152.113354235208,116.544601212901,138.554660876065,34.2651640105671,32.5328122126608,2.05500089557697,-3.89027343371939,27.2877942539894
-27.1905772980253,-35.3824560181661,-16.2026778842256,-17.8716301223264,-16.8329173484721,-17.3351025169649,2.61530133610799,-6.41815408820601,-6.68677984391003,2.27678460716737,1.16511629675647,0.436535746402209,-0.871939360712255,29.6214964583717,22.4057622167866,16.2555031900614,30.1771677809632,36.8648148053625,28.9275905660934,55.166218955564,37.1948363156492,52.2577691785529,6.21000219300192,-12.4901330755861,43.2662490160498,-34.2246462716839,27.5097120111353,-25.6831021765983,-79.2697687706758,0.368135702812759,-170.701478242771,37.5404793245958,-6.06538347244877,25.9769603894246,-106.349684584121,-73.3561388622064,9.55083580391612,-20.8171802652385,-15.8236743890996,-96.3803970627071,-92.5707929940269,-19.4904999912625,-155.724299503504,-155.832913500257,45.9622213941264,34.7354354447508,-124.277511081294,40.3424421542143,-8.49296072546784,-156.668926033218,10.2430344537546,-41.569329622514,82.9953607666157,-16.0188518001787,30.8703677093251,25.9061750015513,-1.52547823612764,55.791910421852,-24.5988077178582,-59.7843296387127,-16.2556164659708,-47.4012423082642,-100.960425381433,-9.95866584925205
-77.2208341510232,-77.2788378016328,-58.8766448872854,-63.546829271843,-62.6649435685295,-58.4445532265482,-35.5800644714446,-53.7170372435584,-45.8064869911891,-47.2590441046797,-48.7861707150496,-43.2595791293166,-41.1600293885887,-24.5665372446468,-15.2252535988046,-28.3824023850243,-2.21277345338997,-8.86783066777407,-29.8907260461327,11.9504167273562,-14.2761242855053,29.3939107118155,-35.0255817040952,-77.4822002227369,6.42102543624557,-99.3691072082633,3.5965225624476,-98.2908320651518,-158.3909326139,-31.2180125669031,-262.783489521784,-49.7445008304749,-95.8031069967254,-46.7066636005088,-184.961549772006,-128.089229993981,-60.1945831616277,-67.2376302962763,-106.0135953895,-93.6852228459865,-113.04429007994,-58.4779187171987,-178.857023438426,-194.382273027184,-10.0795118019914,1.28781848172034,-88.8545103999501,7.37917481115843,-16.0842139908072,-134.629947441915,-31.782201950801,-60.5025826357923,54.6272529689841,-91.474129309057,-16.1050207801114,25.7796707782399,-75.666552964123,24.4338726657549,-108.641416176899,-119.619983050995,-41.5462166744776,-49.1762815134732,-147.844629335153,-5.80143211716001
-128.971510873741,-115.758103842822,-102.508154583736,-103.42297789022,-100.87309452119,-88.9307225376099,-75.3480375756034,-93.0022696405087,-77.6542696982288,-85.0365343205851,-86.026878655643,-74.5377351227088,-77.7657198268552,-71.2025834716969,-46.7587407223301,-61.5266982060726,-28.9620311493392,-48.7104953157458,-76.9624350907527,-22.5011150461639,-59.8849997857891,-0.556756182640815,-76.8946720868046,-122.377116649768,-42.3566140507861,-144.790794967796,-34.6026734324312,-186.897736298572,-212.372932744471,-97.7333079982839,-320.667433718617,-116.830648217858,-151.003453775611,-127.248878938613,-248.702569947554,-135.982164378385,-93.3746839399208,-83.5686117616371,-203.636194671401,-89.4390563818691,-92.177422791058,-69.1455965368643,-164.705735353667,-137.909221742852,-37.0816376196107,-57.2420431752543,-56.2238268725101,-46.7329237407386,-39.0614692661945,-116.445521726079,-84.4236167369421,-85.8847439148605,11.94427597915,-149.447445307754,-68.6945396205985,0.572710733908917,-138.306246075097,-23.6236041473091,-169.163805612791,-185.310445837956,-80.6410621073949,-64.9812043165255,-194.925494698608,-15.6227314863198
-184.06864178889,-163.178055318133,-150.706940905009,-148.459874184816,-146.909443391181,-126.149213459937,-123.869701117089,-135.535459686651,-111.659255305249,-122.991286277081,-129.564061467607,-101.658596139798,-115.946709339075,-113.808521965755,-80.7879326480509,-95.8306941835122,-55.9599036417675,-88.6203772382832,-117.361592836291,-50.009532683327,-96.7227763366513,-29.5879280749766,-107.560264821347,-148.623771104523,-84.3755907031244,-156.159694309336,-74.8654241898809,-241.007313163919,-203.225704915233,-173.798976793474,-324.664511095774,-139.302563391222,-169.016960731162,-191.608005504731,-276.797182173091,-117.798076620312,-99.3140442805457,-97.3492501202269,-274.973650591789,-103.88849382133,-78.4043895464819,-76.1854033657931,-153.552703432221,-73.0458602309734,-49.5023383113484,-130.16163323746,-98.6051705608864,-108.152898290912,-100.413155648858,-176.493454825963,-141.598854393638,-157.670935789294,-62.4627783803649,-192.868220896278,-134.311477528498,-96.6335062618743,-196.251857499603,-110.577192603102,-219.715178131408,-242.617466852371,-144.778181880645,-131.649432625228,-249.500210780415,-84.0739929243318
-211.332344539633,-188.425460549259,-165.87065312697,-170.92900499653,-171.537504489763,-145.0977866761,-144.931770153347,-158.498135195817,-127.50048963956,-141.076657276764,-155.566508142785,-109.461873569255,-132.111738581272,-134.708510196794,-93.1295813107943,-113.94474193826,-59.47749131985,-101.473808273383,-130.191048183973,-53.6976375562932,-101.42810710666,-26.7092333810476,-91.794056446788,-139.847649448627,-79.2515481266728,-118.583106723052,-79.6460008573885,-210.95771188954,-132.611383283256,-191.450006669783,-267.987839971729,-124.374822133287,-165.407915663153,-195.874864153406,-243.833130632353,-104.999801579631,-92.8598592038083,-113.115870929085,-266.142034121092,-116.466661319152,-78.0285887707019,-86.3290633146115,-136.458605512451,-47.5382215370979,-60.2883086976423,-177.542324924216,-182.47388565875,-135.03285503033,-165.734469133966,-267.129766893903,-168.804687582896,-237.018976307351,-124.535603458286,-195.918669303332,-174.361687553804,-202.64965525138,-205.561383560147,-189.397666703904,-227.472418657065,-252.938677751289,-190.184981886799,-204.728684747027,-265.719785559637,-169.500312469981
-186.596155311445,-168.131817750199,-129.810793377981,-149.581214990086,-146.423601426116,-122.368584509457,-120.061290143167,-136.716640416325,-105.296683870341,-117.767426108928,-139.389999732451,-84.5211499595747,-110.05448946929,-120.889484158229,-68.0471191656108,-95.5701015250422,-28.6948910259583,-73.3240475727223,-107.268340211179,-25.0703519119204,-67.9829777928532,8.85499337301243,-33.7266950460326,-91.3235003431883,-24.8735489173795,-46.2579018128404,-43.7435456561927,-114.096529263053,-51.5899345337986,-131.488577193052,-179.771376327044,-113.524982037653,-152.868601733912,-138.221529077777,-156.510107990306,-106.533490566582,-90.1569916225993,-116.794987880381,-182.082903892679,-99.957569890909,-76.9161524146195,-94.7461580938493,-93.7053307682448,-43.6964782791485,-77.3338860590434,-176.157528870488,-225.746188628479,-115.023675551995,-182.197989478108,-292.938959583893,-147.862044126964,-241.627384475928,-132.300850913407,-144.20055907153,-147.039547316421,-230.025404110955,-155.405060342434,-199.131845742801,-184.260292468634,-206.518548670901,-173.125612542241,-220.188328769236,-220.057334291106,-194.381639767136
-136.857765269716,-132.208025759371,-85.4331286112394,-113.720643263816,-101.53713616382,-84.7231985387636,-84.9421652100322,-96.2364678570063,-66.9300137361522,-82.0913498806428,-106.921913029864,-50.8497911739128,-76.4664121770693,-94.8314027174216,-36.7097940215479,-62.4185878558325,3.07195005572384,-37.7802700365884,-77.3765385401069,8.34586357634685,-29.7521563707677,37.2565632275109,20.0129235911944,-34.4803845288049,36.2392918452646,28.3994050527205,-2.09182551682323,-9.20345609343979,4.86837262151993,-44.0252403980673,-89.3537181944877,-127.166053393071,-147.471640096729,-62.4682102631004,-57.5951204478423,-104.424487718446,-104.829772880703,-122.423967131075,-82.8963280873214,-67.9950626398314,-76.3340212539111,-114.034052201609,-47.0961836149105,-43.0038430149424,-115.277103531181,-151.122987171016,-208.663341904154,-81.7416063346098,-147.816941094344,-248.310097032917,-106.213611261501,-153.197867129501,-107.954616426823,-70.0884832489023,-71.7490823744022,-176.655425300232,-96.0059183950115,-150.776504320197,-140.381242233147,-138.411220296189,-117.036380803616,-180.582105987968,-162.256734443637,-159.440894509076
-118.548152263429,-128.064930095916,-84.7229579505784,-110.989167157547,-95.0396619816403,-80.3084048679841,-86.8004115429134,-94.2353374555368,-61.3729934355288,-86.0443117115082,-103.813906959556,-52.3082812933719,-79.1429309127373,-97.5491892205194,-42.9944579354281,-60.808971079808,-6.72063140790332,-38.1278757008051,-78.2131594250805,8.73998876665926,-24.6492296979998,27.5071334790191,37.8678545907365,-9.00310937361173,64.2316609982342,82.9912991112835,14.9809431788578,69.2715782405083,55.1977545509902,15.4922919604874,-4.55068896954855,-134.636841565698,-169.641631887633,-14.8812910740814,11.0682540368697,-89.6560353743566,-137.824868881705,-162.237563311262,-19.4768816171525,-56.5153600611356,-89.4201617707815,-160.397503577439,-33.9246315337981,-52.3413091807583,-177.450300716014,-150.562726011475,-184.440287768108,-78.3463789313626,-117.441327352065,-210.149596328057,-93.8038481380246,-54.4922918139242,-112.565531187265,-29.9128830646806,-18.907170331019,-114.542393278721,-79.4880734698274,-109.628627504254,-147.567752521407,-96.619364357738,-81.4151630060622,-137.956590507665,-151.502061641368,-134.360969418478
-140.780825827049,-151.164986446121,-113.545748104109,-137.357462323756,-125.904499505563,-103.875130254865,-119.013300208206,-129.27145113725,-90.5740977721125,-118.439153617829,-126.001798507486,-82.596196678631,-113.432758658334,-125.444662222236,-74.9173922239784,-87.402372250549,-42.2544038369887,-62.0971984132311,-99.1266637468897,-15.2323698002272,-38.4958687760367,2.45919780862628,39.0292065507755,-5.54769056248486,71.4857928579297,125.699276535694,21.3363211509973,142.995812807435,134.667179718926,45.1427014988949,85.4931688641676,-95.7476448918585,-194.577701519684,3.50411492434264,56.1760149292,-61.2841667790321,-161.049406819313,-209.651409835131,13.3980855216086,-56.5482543347499,-103.682227993116,-202.463909227993,-41.8204811829313,-59.8935944047218,-222.056201269056,-179.569749498417,-187.281292126438,-112.09813956196,-127.571184178829,-210.248291291718,-118.303462309964,-26.9559626506156,-158.214731615857,-38.036967596896,-18.5976768809223,-87.7078660925903,-99.2393600662577,-101.841985037765,-187.411918990609,-96.5229419216236,-78.6129991652346,-111.74684110266,-175.2028490378,-141.399568786001
-167.549439708473,-166.733508967663,-130.947163729005,-158.065370673336,-150.621717970616,-115.833480375414,-141.59690593393,-151.98421261165,-111.072127983346,-131.440122911664,-137.991540678594,-99.900227735021,-131.675302269513,-139.459193866,-89.9129771578473,-101.007192943157,-58.810324453826,-70.9534377041547,-100.414387474648,-28.6119494312218,-35.0587089883599,-2.3506633707941,51.204270493165,13.2574466703397,95.3503226202139,171.299405699216,42.4327897197991,237.522395971531,224.494327129921,77.0230255067048,182.59617726296,-24.5748853899365,-172.083865945786,21.0101115108899,111.030643700504,-19.0683767684669,-146.141955279335,-204.018394092149,51.5020421547605,-32.4495645525023,-93.849534847257,-194.200750605992,-35.0737817385716,-47.2752421193371,-212.21461439721,-206.659625239591,-208.185990308815,-156.069137308706,-168.531432460002,-221.437994776027,-150.388963933704,-77.5854256931804,-206.801491917918,-70.5483185724942,-49.7960280010852,-96.3369428675846,-130.683729222103,-115.203974686781,-215.693914804502,-130.398826967411,-88.8890103126711,-98.3224426876887,-195.149285249979,-151.265888900701
-182.144923592852,-172.562114105099,-138.172675394693,-169.364460239336,-159.023879493797,-113.805667983228,-144.431148504962,-150.988455254884,-110.522491743778,-125.935495906772,-135.236775593379,-100.432996297026,-124.811620205595,-132.534701078798,-84.5828711691148,-95.6365443443348,-59.9250639940523,-68.6002294913966,-81.8596652709611,-29.0732435580248,-19.6065981539364,2.93668177938865,66.0376731597016,46.0788558667197,128.404161569586,205.55538520037,63.0766208549553,323.991772888052,271.092020747146,121.365525324013,257.300191641731,30.1464230269123,-107.557992232873,46.0746991180829,178.667693245951,23.7046353445781,-104.070782655324,-148.021766822514,103.830688325429,15.254964651636,-66.2559570806809,-146.94784714562,-11.2703132911151,-31.2467506847271,-174.033902153916,-215.435158505294,-233.432767854378,-179.941125829378,-211.159042497654,-237.118355844436,-171.500100424325,-162.579186398966,-237.291728808389,-108.545802316116,-98.6450532357091,-145.774330583621,-170.84832018719,-155.15288564131,-232.834333710657,-183.411864025375,-114.368004625435,-121.613901288825,-210.990860639933,-165.089802036979
-185.002615126204,-178.97644305541,-145.505390267206,-175.9614164357,-160.742168857433,-114.741637183348,-138.987619315564,-145.553824324728,-108.524618637778,-123.269184349177,-131.182314555099,-101.649635065761,-117.137030636694,-123.046202663313,-79.8231299416893,-88.9722854259701,-69.6906314169239,-74.3651016386747,-69.411932932722,-32.3516661094277,-15.7904623258507,-7.44529747708899,63.8452834162818,63.173433698353,133.255586592976,207.747645238901,53.3004916085646,354.817600061231,271.198474307455,154.861656571817,282.520504257717,58.5894882993,-39.7718838894918,72.0976021335246,234.067320566985,52.8853742481406,-58.6671723783868,-87.5359746463732,147.710401982542,64.2492164938469,-42.8414353622733,-95.6160906862155,19.0734663709463,-25.3425681993731,-141.564371302292,-200.780305501661,-233.247782942454,-165.458787684901,-211.730240322674,-251.541584389026,-166.848341865392,-214.59248628637,-242.74294610532,-123.242694833613,-143.919487760063,-218.652506055528,-191.947389871924,-211.771459488032,-240.607573148304,-208.864344833949,-144.159492262768,-180.667893488634,-218.168212631455,-191.212622673393
-166.727157161028,-168.445150430331,-134.535700267867,-160.957148280039,-147.513144878209,-110.128383726267,-121.431392239631,-131.96829704929,-105.915566634278,-110.77931917609,-117.235770209533,-96.7797290761661,-107.335781187611,-107.240934191221,-75.9135888450443,-77.9767663206143,-77.4272330951422,-75.6790261150115,-61.3423391843244,-36.7868052178336,-18.3248407574559,-29.9230941272866,45.234824675362,58.8638222740047,104.994170819025,185.218055072397,12.9557469010702,318.71814054111,260.763610056934,152.122607218091,263.202227524284,85.7824786181217,31.310114969107,96.8116976223245,257.654635293185,70.3495622944699,-8.58154817793079,-29.6231937263737,164.832219408065,106.174981307589,-20.6946348356556,-37.845813717973,57.3444030773349,-9.29945089770663,-100.771788833787,-160.152560549908,-169.157261149541,-116.218687144008,-138.113202240772,-214.265986653448,-122.782344518664,-182.612928213533,-203.592240353834,-77.5089200706535,-135.25855228704,-250.239437176058,-148.737684850318,-226.053934810336,-206.017390152036,-156.61336035107,-126.825306350409,-201.603657721192,-181.404375529784,-176.453719153488
-125.257830527224,-126.025976567283,-96.0292005683115,-119.183310312995,-114.628825714104,-86.6793967822049,-85.7234920420618,-98.2489788692986,-89.0208541749864,-75.4149363907185,-80.5244958263387,-76.6976031609534,-79.3115733920204,-70.6088371505636,-61.0014061027135,-53.1890197596856,-65.6951366144261,-57.0300240583846,-38.1041742352137,-36.1114862852988,-6.77335775437602,-50.4172768908495,25.2463738774965,57.5073004673923,64.1595647762137,166.099103617408,-49.1156863867542,239.806436994857,256.336465125793,113.710072716632,228.444644353882,113.526661282822,116.761917355265,112.273450405692,247.114377252778,85.1110201684407,48.9419988036057,39.2839882747426,157.663102269234,138.1339782555,14.0292188149345,31.3256477641501,99.9807602050488,20.5087296327078,-34.8955824085217,-111.819815869385,-60.2795479444283,-61.3535364300292,-26.0090423818959,-97.6329305240782,-58.0400601799509,-90.4314504336343,-118.9373734389,11.8596016275084,-54.0159882775234,-207.081579216196,-55.5406197364271,-163.160111171318,-123.131764286955,-48.8143310676246,-41.0704458214228,-128.629997655725,-98.1777702111733,-59.8370252026056
-78.6467463626202,-74.253178545518,-54.191487049594,-72.3266065201551,-77.4127357288854,-54.9028658622637,-47.2720807230672,-57.8670934227823,-59.3834038588838,-34.8743621120636,-34.5543345982587,-52.7721823581983,-41.8358557044781,-23.7156083810431,-37.8727462981496,-21.2911647977694,-45.5640931322491,-29.596051919243,-0.449543611178696,-35.9342211874803,21.4818135597946,-71.5307303939716,20.5505913942371,82.0935979018102,16.0474878437202,181.442410852321,-142.053979190731,165.154884860056,261.41425291378,54.6510808821153,221.841507986225,116.939585193399,191.062941341451,98.4822705251009,212.217789718052,99.0333217231303,90.7633650077233,98.2995292671012,130.150396626897,150.997286165301,50.8277546704078,82.5948331391105,132.802147329034,34.7608202291691,30.4503705967497,-76.8237524058974,16.0455149591784,-31.8461424202169,38.0180606441347,34.666542471492,-10.7688823770348,-21.3145999410263,-24.3563257982478,77.2121994720558,39.6932910960516,-140.261351848872,22.676489682146,-74.4742669567216,-41.1508314107856,35.7964794421686,52.920446913996,-11.5079494395865,-26.620492044062,109.825679109356
-44.8209129049732,-39.8441906639785,-29.8376454372992,-38.6016243557061,-45.4438601068684,-32.3284307524769,-21.8911358647152,-28.9376578805103,-29.4463186762102,-5.46104176446864,0.645546883007059,-35.4195756793159,-14.6137438195573,12.2610690549672,-18.4592255650289,5.30226416027006,-36.9741639408839,-7.03408574102032,35.9611406741168,-40.5622306012567,54.256384902248,-103.634768579605,40.2553424436332,133.682084119957,-40.6692837259123,246.709944618972,-260.366771278066,149.841397804695,278.846280346743,-6.40348558285792,265.741034145478,98.9416708489699,237.225392043515,47.9058106338374,177.066550421343,110.981089776828,111.443555893543,132.711203406802,84.7093363179258,144.201468115105,73.8400141166739,109.586695465456,150.92599955744,29.946285042615,73.7581088527737,-49.9134166364104,20.7930453591153,-26.4044944276003,19.0191705731079,93.9634781386668,12.1422091228269,-24.5081562618041,45.4257388847607,94.5973656237461,73.3558184156714,-110.375897720928,56.3650607074544,-33.4798686758416,-3.43626175367795,58.4464619488129,83.8450045377776,69.0193591676023,-9.69060103518317,202.375298547178
-26.7058819194726,-19.0597622469046,-15.915219369792,-17.6084393614215,-13.7775994667484,-19.3173002976665,-4.87173089289162,-8.23311997504807,-5.25156724406829,17.2302707740311,26.6845562657632,-21.996769614675,1.38114048339056,36.4459414796409,-5.92943473639676,21.8787953562539,-43.8148369722978,10.064289904084,62.9769051631969,-46.7882954204999,81.9268053830886,-147.950643122989,72.0677742032807,191.254102440062,-91.5047900355985,332.475912182315,-357.785994873219,207.326426566152,292.018837078666,-29.2687621166659,327.209545410242,108.054991668028,276.909956334054,-6.37802557547108,177.332092138938,129.431661568887,146.286652045423,174.45916552549,49.9864546712192,136.485019776317,93.1272135792157,151.07411221234,165.779288961821,24.8787489491975,113.571157406983,-24.7968794947305,-4.5259002629805,-19.8556551528712,-27.0960310145645,69.830666765554,32.4428205393842,-66.9444814108703,77.8738131883907,106.438140854422,55.3466547127125,-114.659010283749,69.8006213301734,-44.2326250393441,-7.11261885505087,49.9479869605593,61.1240909519844,111.798953810525,-21.1362902138014,175.6306182229
-18.2155089430657,-1.01877146431809,-2.1941731023321,-4.37231009709436,14.3878078961318,-10.0462814249533,9.46276723396825,10.6902176373696,10.3859058085176,36.0592588967302,51.9291072561654,-12.3460577240939,15.5735815719051,58.5880807338394,0.531517111814359,31.570488843234,-56.1657849882461,19.0697779613841,78.8949886718517,-53.5235824662361,97.4750709098989,-187.849827077984,90.984856162774,222.221097520272,-110.371506647507,376.426906020611,-378.62471942583,293.045005723534,268.458778984077,25.4812238414191,367.292633316371,175.032349821812,321.488953574757,-21.5458355974706,221.927620584362,161.85560298401,208.754099185286,236.421059476383,58.5877376283948,146.633778374781,121.61159767302,210.981751763856,181.362247067089,-2.82741530737467,147.259227538905,-17.3672608174014,-12.3556120505861,-9.64202563525806,-39.5860575403387,22.4093938583557,48.8616993461942,-89.2044982989732,68.2159500631981,137.268709987468,49.3932600200008,-122.189003394134,78.685698707129,-52.6899468392582,-29.2121313798111,50.4884386310574,54.5278336212022,166.756175101099,-17.9631073322395,131.621261761413
-12.6370203079672,9.60741430508303,4.93531881431689,1.14579403633099,28.5459494384622,-12.2432484506595,14.787997370174,22.7706275029445,11.4064324989496,44.607258057016,71.2274770464521,-12.1145222769527,25.977714688387,77.0079586080968,-4.14884708409396,36.4216866465353,-65.8640080897494,14.345157629927,81.2939172524278,-60.6887319353912,92.4984406626085,-200.954747108304,87.6818163545903,205.272156991642,-80.2998813632653,344.697692277435,-305.464606885668,355.436051241171,194.761003848482,135.862634886588,386.617394204485,266.100152350567,361.777537263509,-16.943715646347,262.82802218526,195.057290616956,269.452669634295,280.787849561945,82.2889059062938,165.907349405201,153.048652344227,247.691687193261,180.266767311018,-76.176483614835,135.858013743125,-36.0881489737935,-3.06314649272489,-17.3007397182729,-24.6273969404074,1.99553273421408,35.306816462705,-75.8223683313898,17.5928526914734,158.645759881105,78.4594862586872,-118.801527946082,63.3000375259145,-23.1916411936491,-57.370415997528,63.7053312750048,98.9138808085285,237.585190837545,0.234348404727599,168.725066152838
-8.41462929132039,10.2946749014433,-1.11845157003214,1.14148739162199,32.9302187289668,-31.2891162199034,7.70597050878763,26.5448133259521,-1.07402008992301,43.3832912021662,79.2936822744157,-21.7597121161856,22.436973782165,82.1309949038609,-22.9537172168369,31.9381657695081,-76.985335120137,-3.2519182385362,69.6330519327098,-71.0415763390242,62.9933335782696,-195.221283459911,62.8051606610241,149.001318392495,-30.9524413438595,252.70464558213,-191.102067135032,357.898545972974,108.310061362433,213.745361464657,379.347734498502,325.41144793255,396.320431442603,-62.3760660026597,232.903739412464,206.296258591058,306.964884962416,291.962601915361,57.1371407800657,156.354572587818,176.403880923786,254.279795928359,148.23351123016,-129.031206665695,97.1195835327776,-63.0695902820209,9.85412462871232,-40.4297127717531,-16.0288323421463,16.8323839601397,-7.29023706226693,-47.7878048017401,-53.3668528103212,143.526290958836,110.035285656694,-97.3515743253946,14.2493136340176,25.1218831980802,-88.6731531401048,71.1766996573899,154.335963098083,274.020006934685,9.60012247037819,248.134831706035
-4.4608075648626,16.614980659182,-8.33632676115499,5.23189369676113,45.3251279437276,-47.0518410201028,0.856888436329807,33.8441783492889,-10.7885073784781,44.3385604875607,87.5409300870287,-31.1776276363225,12.8875162850232,78.76853929571,-42.7581891566701,22.9507825261897,-91.7975696460769,-22.4535108724019,57.7242888806331,-86.4062021822774,24.9198926666726,-197.492698057584,19.8819435991903,91.805981101994,-18.5702829146681,140.203955627861,-109.756982441084,290.677863353822,81.6149516852597,194.838572662268,325.681480909163,333.903151653598,410.19245875269,-158.337792658884,124.413672768942,191.487769464232,317.182571792045,300.808927610364,-10.7925908460926,98.5298536276842,180.097957505884,258.900361460651,98.8620109402725,-68.2347831668638,105.531041393105,-75.3837152550434,32.779449650738,-47.4380258302227,-10.1386762070802,58.4797185221834,-40.024817217312,-14.6257807745114,-108.001682516833,105.437927553654,117.371135638982,-55.8264963581034,-37.9186868462599,53.5292626720382,-114.499425200805,65.9540375737635,167.369979898724,249.999630159431,6.33352014434281,265.35601704053
9.59871455506407,44.9085710074308,2.14404887045317,22.8563091140319,77.4764054215102,-35.9362458616991,15.0742072972092,57.6075606302659,0.0662132406031675,59.1411819727315,110.42373577587,-23.1167912589665,23.3124617931176,90.2933532773995,-38.4980071210981,31.1976424629737,-93.3166566909743,-20.2976696653953,72.075009318065,-87.0317372248074,17.3396090006913,-195.63408883265,-8.51573370737822,85.3554047363636,-34.5990953856461,60.4354466931069,-50.799715940773,211.245733045374,142.135582869419,125.310036311689,253.92598887805,312.760480590064,381.388574037968,-211.623031562123,4.23679411334902,171.341010543164,295.568761839544,324.199510330942,-53.5644945747758,41.2820491931462,156.296528396853,266.499799094344,53.1346484233942,82.2075975205308,177.451070118325,-64.4719696867991,72.0922822369623,-21.5364463970473,21.0869331297031,111.524348554875,-30.8760024504643,30.5330470717365,-118.719900503214,81.5077202398723,109.543774897786,-10.7118351757708,-59.193724961802,53.868825014867,-122.267827238281,59.2869931423954,141.710258152528,202.15252502887,6.86445509115107,206.173115302485
41.1258203064031,89.4124519434373,32.3092942552363,53.7421475510295,123.843453228237,-2.87075304588661,53.421530475634,95.8805404794416,30.5655397868003,91.1493035316105,146.213509793606,10.2152409967588,60.601880019095,128.367192399792,-0.485650755438768,68.6622817211476,-64.8171292034154,20.1184986723757,124.945460320311,-47.8145453469891,66.2626227677309,-152.808599296246,19.0361463768363,156.40128244551,-14.874568961001,54.2802534193921,48.5449267121825,189.617459748205,243.363589736462,96.0192567198492,221.168123914262,304.031036183333,352.007849003937,-181.95581341562,-68.4670860124368,182.408877197416,261.985956593476,341.996904378402,-59.505901935853,54.256534072864,131.710262782702,267.54584217866,7.74336474828632,194.736778072604,259.511016504134,-35.9072471588322,109.557723272954,23.5058088675575,71.927152787546,149.510939922108,15.4568997938201,78.3553111342601,-89.3852801264258,97.6984929706689,107.574606695023,14.8976382735879,-47.4252946099266,47.3559547809987,-113.669631241871,64.0619163095611,119.534983966955,178.391917536924,19.1227165694325,149.919614226335
79.6513399031202,129.218622409043,67.3532408529555,88.0051584599057,165.045679523498,32.5531647868984,94.5791513430748,134.655492680374,64.2930283158933,133.835957593666,182.197505610234,54.6924357981014,105.17703269022,175.395544515974,53.3639722037387,122.574359831788,-14.0029091113878,86.7110803980487,200.358600080052,22.4414579864627,151.423934739528,-72.6481628452979,93.633272234612,278.150943322149,53.3158571197952,110.658116924832,175.706777089167,212.88443254374,350.138994534356,115.345718059686,239.869507052957,347.718344397502,391.93723128181,-129.583411425522,-89.4477858883482,258.649652821415,259.639664693659,327.81340452877,-73.9814391015464,138.214997835547,159.594961878511,263.831079544217,-30.6052336188095,191.728316426612,302.095190508068,-0.769506067403747,119.816484884981,64.1429840379866,98.3953714509018,156.146658012286,69.9901107227632,100.704733376902,-52.3441251487178,141.883825249624,112.917860787699,14.8087508549693,-21.1133569118852,48.6374601210671,-102.365663235737,81.1584257146699,118.13751974561,180.737048255307,36.6187892291967,142.916797321747
113.235538678098,154.553482071408,97.9216724557967,116.912115629011,187.097880059993,64.8921062411266,125.148670215127,164.21278586401,95.404915616059,172.950385001401,209.299687685917,92.8986977074533,143.926603255203,209.74363733469,105.025321114966,174.654484174019,43.8413068913385,150.595336490229,266.981681750287,95.4628709552563,229.719105240888,12.8512375301874,168.036226116808,390.984377409366,124.500727509302,182.809140786677,269.078307800249,225.99828793669,459.180466452493,131.797170814649,271.606375305339,426.47531191064,461.020666622778,-83.3856789291718,-73.6712154135841,376.950579758526,283.261964107984,272.60452818415,-102.072345574922,228.933355149846,241.667033578639,244.361256899042,-14.3697911383702,115.199318936172,272.653815040597,31.9484855442182,106.064008329662,82.8579529936508,77.3116299934399,143.727234840474,105.780370840372,90.5331561240755,-31.5185281372405,166.813677211138,107.531393671602,8.86440782507607,-0.151523297070858,54.5485251357162,-91.6359189673751,96.5443749246171,121.788356185198,180.735439325741,53.9242969803409,153.382157931598
143.347969115684,171.118077347737,128.333593451751,139.277941227148,193.642681396307,99.3495666377669,150.432901423951,182.020722678188,130.768766641953,196.838831436263,224.579026862689,125.212426447711,177.280522292554,229.029279506866,153.08010085027,213.36736890693,102.480327434585,195.79433525765,299.071122745051,158.772481478772,274.091852653374,93.2386265544348,215.95648766564,441.164122092535,169.467041387175,231.242705531426,316.550896412892,211.15139070422,517.924081726692,126.302113516475,264.0609143493,449.388658794501,434.290978376755,-6.09334439114506,-35.2267874573499,433.283377156345,256.700972860466,185.041784342605,-102.672104722073,264.812848639004,292.023876304211,180.538457719378,64.2610031042742,43.1006661610103,161.937561543858,55.6282819610383,92.9104846993478,74.7950230951062,39.5296266623337,137.124768180686,114.322506958767,74.1493196982457,-12.2822504220028,139.053295064784,83.3996018849257,23.0349619842285,2.33702040899784,59.68632796824,-70.9843023190757,94.7241359202536,115.343206214672,165.923020490454,70.2534938736482,144.02543320157
163.445747338983,172.769705339867,151.632045357874,147.924197604275,183.186791883952,127.321378741348,160.360104796639,179.26231857421,157.885695808823,197.774605841434,218.160344831977,150.818187216449,192.125680109457,230.984435659678,187.040532112055,222.110706568841,146.709815271991,214.687953397244,284.544278580329,202.35774233514,273.035251496108,162.850196308872,234.130494003182,403.327210615842,186.730452512975,231.709417648392,328.300457324957,176.896648648391,453.399087419444,108.46634963825,190.01291575322,344.483821202837,268.546194499967,101.870447438486,16.7519991506686,339.399435637377,123.832067602251,70.7758336367614,-58.6348468783664,227.973329300191,227.151872971786,69.1440132682606,125.408197048658,-2.37743010429603,18.0326890005509,62.4819209746176,84.1291097531227,50.1423150905461,23.2301939860412,136.235624573566,104.300416921663,69.3069107042989,26.647121229819,78.2174560509958,51.3999798534638,49.8571538891437,-9.27898220931735,56.2268634084394,-31.7925731850371,76.8803669984698,89.7978833581962,139.316947702484,80.2229720761512,113.429084189847
146.857002429958,135.723965923497,137.484114713968,120.571596094458,135.222718698153,122.63362490618,128.037926186681,137.104485789832,142.455212823233,161.308182445677,168.631359246799,144.065058959823,161.419726382317,191.135226639808,177.678719457236,179.086688042343,148.650010219249,187.355189592381,216.264542780379,198.291196563544,216.926730423215,191.356909469743,207.823688922671,290.429622550607,168.263156079204,173.059970056503,286.710854265838,122.900853937032,282.229668554242,80.3426432180699,69.0706903661123,141.963094426651,40.7833679633564,180.938999310748,75.3762490585565,128.379327449075,-67.8262386217336,-68.1424558589335,-4.27573670808058,139.996700833845,73.5448621078245,-51.6162018227165,104.524648285127,-34.438799438567,-85.2225605182518,47.3218062006062,59.9588759563633,22.5299507570984,19.3540050500984,108.469848559853,86.5447621530639,59.8213650514074,69.9097212777655,28.2833695701283,16.4222120991628,52.4065130152741,-10.4985920012598,26.2772633099201,21.8176904657292,53.6747760492999,34.8946344613703,90.9054423700494,74.3107024838027,60.7415025282516
85.6740396823711,59.4560899293604,74.269730682452,50.2239397946966,48.7113035351354,74.5902886069301,54.9025037917463,52.712973580751,76.234774707839,81.6431736137298,74.7549579558475,86.6058536854672,83.6670554584409,98.4947646512741,115.851389046799,88.8369070644427,103.190787231439,108.391442488286,103.233207733919,132.58195096181,113.024223406338,158.298292417145,127.553995841377,144.295646937666,108.431722414166,70.7138508034325,192.236552041267,43.5714771927911,99.0360358655166,49.056315299768,-47.2691022354387,-57.3778295289329,-143.285327816303,192.22883593182,115.811902509145,-72.5213693206651,-202.559729713182,-194.571946358683,25.4526377720957,44.0204855068469,-56.9450035452048,-139.636857656585,41.000823554248,-44.8791426987316,-126.663095472103,15.3847774643706,18.2240248357495,-5.73946666629939,-4.36166558272247,41.0680714163508,61.4863145236819,26.0218707466255,84.9179294749973,7.03665932368908,-28.2106862249203,18.9858057419079,20.1998373272484,-33.3898198355781,72.9909406992712,28.6738247396844,-44.4948244767395,9.77355057504257,52.4249650379386,-24.6552584655776
21.7270573806984,-12.2276152386614,2.84307249505143,-22.5220211147082,-30.4463975860359,15.6973614810115,-16.4989818874182,-32.7667056484151,2.28221979826262,-5.79573659801,-18.1941436199172,13.7098801805238,1.46290731770316,0.0592022827415923,39.2719295071109,-1.92929977372499,46.5137164904602,21.8101690979534,-7.35149585726131,45.5384219691892,6.92257891617315,94.1831385094659,32.0236467877243,15.41001774533,40.8523914380637,-27.6023659172944,99.0558305970812,-39.1715760507325,-18.8479954384334,39.6167064698573,-103.210108514259,-162.785480957842,-228.090898702984,151.900172454606,121.526101881098,-147.942850287373,-210.154711964337,-248.534459128785,45.9087407013643,1.73202134244367,-85.7538913082112,-181.332628577309,25.6591009768047,-18.2278544887859,-134.946958231429,-15.9705284870917,-15.3770316508998,-34.9935860590873,-43.0841650817889,-24.956625918808,27.3750210186411,-19.4663915954051,63.1172559262069,2.89394288207075,-74.0819075007288,-20.2835609383714,73.259105267903,-86.9468549776916,104.679927671114,4.31379625998029,-115.808527617963,-77.5632096751211,29.9611411927065,-120.31939948027
1.34859537196049,-37.4071579293717,-26.9325352716888,-46.4169680699825,-56.5499234388443,-8.78520289928301,-46.1135411057513,-66.3374716237524,-30.4114099912934,-46.6013850729405,-58.2163814597719,-21.2852210041188,-37.5417768257824,-43.4272136818575,-4.11393167555348,-46.5527683374568,16.6799132684481,-21.873161659915,-65.3297533871876,-2.31716593566086,-49.3869333356159,51.5595606081442,-22.7175089232151,-60.9386580677576,9.48351285551416,-74.9634775270112,52.6510284904187,-84.6348060646574,-58.8990022553688,59.7948836116183,-80.0970341494186,-149.212592192945,-235.273159261945,85.1269450817178,112.980937592972,-84.5055509203129,-128.588769673165,-225.73700958905,86.0593047309639,52.6399118955397,-24.7764364707826,-190.075167761152,89.1243970720935,23.7488096442043,-130.716256164192,-27.2517162811842,-26.0251516549222,-51.511380412408,-62.3798900642047,-48.2339512832056,-4.13447048014435,-46.9558174486557,22.4050920816028,3.20528372283566,-94.4339602701706,-38.9225950932136,108.338399003745,-94.3829092925355,109.08776446463,-13.7398179964599,-139.96707201419,-123.604888038583,21.0480262737323,-171.83632135085
12.0227872542856,-28.3741039302197,-18.4108400303294,-28.0862025414169,-43.1992022651576,-0.0418275352365778,-39.5661528395309,-51.1805794719133,-26.7572511179174,-38.356277317619,-49.8926844276921,-21.5564685710137,-34.3027189858394,-36.6036198173868,-11.4961206754291,-51.7628527994129,9.34079266579795,-28.0032038513312,-79.1882033861379,-7.45456714226813,-59.1768981545936,42.7123986379439,-35.5729343100354,-94.1039763088889,0.68196325588343,-76.9994140861632,30.869490658153,-97.2974066637446,-62.4917584203676,62.0916091085738,-27.9730459143611,-63.2199125765734,-218.539223311051,-5.68540543325585,97.4413074607091,13.3046240478807,-39.0268147559474,-186.596982267114,129.139059775926,147.224597428131,67.4532866226567,-184.125720469793,164.172974136474,40.1631465915079,-118.781073379433,-16.6869685294739,-34.1423368980506,-43.3835570399365,-59.4059677217682,-45.7862117466766,-20.7031512738067,-51.8177484008585,-19.249509924904,-1.29690438607138,-84.8218222391021,-44.9137175761731,83.732917780089,-64.8896583278205,78.4312514860995,-32.1306553310648,-112.816201243419,-124.622108738498,16.4316112498361,-162.650929546767
9.01586849813185,-28.5055791919075,-14.6996523500179,-18.6500155380474,-39.4485666975829,0.903844687684462,-34.1141217908967,-39.7837474840801,-32.3791586029637,-33.8330477197528,-43.7972503234569,-30.8858849589173,-33.2937745717587,-33.8005476179848,-19.5131503895484,-62.7691498949727,-4.30686071675416,-38.2058917035709,-97.0357567238274,-18.2701171197646,-70.6097510157556,34.055778029591,-51.2277050100955,-122.550018286211,-37.2570502094827,-84.6596359264133,-14.3702740972458,-130.03000804829,-79.2586113288674,-15.5149606491505,-18.3309716359101,35.3144959489871,-188.811094158566,-112.095573373194,38.4288659270744,42.2352517369012,41.5376926011706,-154.2075219544,136.716893355453,201.441094468047,153.634005013749,-145.693542415988,174.487700375821,42.7734490155766,-78.8958111201117,-2.37028552505821,-59.0243232212171,-24.639978038527,-59.5302595717489,-55.4950427712189,-30.3937519539538,-53.7348287766483,-57.5216062730224,-26.3784823228719,-75.4843003331471,-52.9106764081748,-1.15508229871279,-40.0153769740215,9.90354710705224,-64.5049663759065,-73.019629204949,-118.90991298343,-6.44801384689609,-134.039151169495
-14.374908632719,-47.1066036643822,-35.5823427158014,-36.096803901206,-59.0025462597389,-20.8102267425753,-46.7581327674636,-58.6036409897727,-62.7436525160293,-57.9964790163586,-62.1402111185717,-60.1053807478447,-57.5179886505446,-57.1215151518226,-48.7586095596261,-96.4457685699828,-31.8702814823674,-69.6800713495336,-131.965698750859,-57.214265977691,-106.258882661767,-1.96692903555257,-95.0890234685821,-159.071090731086,-117.511925692796,-129.394981861015,-91.2470801516749,-217.043549672972,-121.354789205031,-172.097319260615,-73.737829619238,130.348972004814,-118.054474343576,-205.798236640602,-95.3071190413386,50.6411122659025,153.339028736689,-69.3831826897994,98.9964839974961,216.640723536068,252.615729019728,-27.6664771810983,146.078390531571,98.6360422144526,41.36778962446,1.76196167201344,-73.1137476449278,-19.0362931399581,-59.5953548948819,-63.265451131328,-47.0927074695379,-58.3982335265879,-87.970811547326,-78.2025654517793,-81.5161707146138,-51.0547858554688,-93.74994536201,-33.8085167589949,-70.8916944157402,-105.889203675356,-54.558003759082,-116.598170306601,-47.4841161943386,-115.173369364765
-38.7401974519334,-60.9975513042601,-66.0081259566363,-57.4956410012932,-78.9221598466686,-46.9938153487434,-66.4470485926635,-88.2657097553922,-91.3808118113819,-84.1071270051101,-83.3068403317022,-87.9565806482111,-86.2670725998712,-84.6735109780548,-87.8172013384284,-130.306249199617,-62.3301516748487,-109.320610022523,-159.886890234727,-106.06511890377,-149.314015585615,-58.079298978352,-159.295322237856,-194.758714304482,-210.569317313658,-205.833037812644,-169.743926640059,-346.997298277398,-171.987668283333,-352.121564342579,-173.555918157439,212.59857392864,-27.380136249692,-271.774414232158,-295.982694810985,151.568917197512,281.56760319617,83.3076501791238,13.6330129847175,221.851003105695,389.89467414988,146.217424654393,157.534238496787,218.868591558873,229.566229491043,-8.22551411021082,-40.433307831134,-35.3977073432195,-44.3587546509582,-32.679479520975,-72.3385549474655,-56.7258993289261,-104.942967739726,-141.267706249295,-89.6698992364352,-29.5865378680485,-148.271285922481,-34.9121472327341,-130.051248071193,-143.64288059279,-59.0452323952481,-101.66413577691,-86.424189046454,-97.5597788180419
-67.0310642113488,-71.5278355928292,-97.1655999196702,-77.6737481166475,-96.9001123681472,-76.2983235716859,-91.5380637183793,-114.523628084127,-110.314646604311,-101.550075539368,-102.431965223868,-113.341464263114,-108.506375596299,-109.800975691286,-127.028884662041,-155.704638429467,-97.4674753552944,-150.416573854794,-180.384379494459,-154.742228202081,-191.085605019078,-113.680102401767,-229.486847338643,-241.975604104069,-291.762257169324,-304.912093512246,-220.199604858502,-479.573729966848,-233.795030997045,-506.084940198553,-294.710674809475,215.443158354842,-17.4326254933306,-315.398007150583,-507.377211753674,271.885931147113,320.849448006507,188.237792387563,-126.844978633844,149.851159568324,497.069186053,250.73895791051,182.941160501484,305.448310512224,357.359520104755,-40.9814412130554,8.72517851840717,-73.4084056673201,-38.7436907791348,4.24722519100597,-106.685943075174,-62.796569400643,-123.457094152263,-198.764219708705,-107.385800098545,-23.4250804015443,-180.789750422359,-53.156590954103,-168.320892140112,-181.921878658022,-83.6151409075202,-94.4649860027475,-121.617521796376,-93.7212864290904
-108.163760238979,-102.140287951538,-135.740378061462,-111.395720473258,-131.390688391539,-122.069566060857,-129.474151912108,-146.936391645379,-140.289151701013,-131.831988811795,-140.335250564281,-149.4481300131,-140.61999549661,-149.511324698253,-168.185190801013,-188.778708411081,-143.32456895764,-195.711343665661,-217.468137463441,-206.584587290791,-242.037863830718,-157.76329771365,-293.721548372469,-316.075630788307,-349.393133253207,-408.748401486673,-236.106940896368,-563.964630824104,-329.095058450135,-601.724000388043,-412.415342928992,75.9648047351081,-147.58106324154,-335.633042274938,-634.600021901693,216.276432135009,200.3803608694,142.981775037063,-284.926653081193,-61.3289085799169,455.330163962489,202.450011701162,121.131950373334,274.428470567183,329.960316567846,-98.1168362488326,5.59728415358939,-127.1288707913,-75.4647452933474,-24.1439438129693,-152.688120823994,-105.668313821153,-165.461224916971,-244.847876044853,-157.198700060558,-74.1395246362223,-223.833988332025,-107.308041716406,-202.658024034419,-226.260623335438,-131.530907928425,-132.139031162116,-163.423716957479,-138.270911864415
-148.163565574581,-148.851254884827,-177.545723435023,-150.702403089399,-174.42245437738,-174.458182880396,-169.372390425712,-182.835375185023,-180.283220938716,-176.078146490898,-190.274137618276,-187.204846111737,-183.742051041105,-199.326758375959,-207.713736536758,-231.239990102313,-187.632122201753,-238.640765562445,-270.634493922484,-251.607505076142,-299.31237611715,-189.427918795409,-339.109807122623,-397.979871772866,-374.811077566914,-479.917724146732,-234.621920877277,-572.101627736602,-442.763173359598,-622.699238467685,-479.870849671521,-151.685884074942,-331.818949099017,-333.412368944854,-632.829301625335,9.3304311592804,-9.06315364216676,8.88176248709189,-399.943851635214,-312.279020389719,270.050305630131,66.161282021886,-10.2192683189692,165.290344615224,201.023921687409,-156.768626681197,-63.5357422865632,-177.24103966988,-139.42526399828,-113.743683965868,-200.085807688495,-174.164751978973,-221.063231308936,-275.984417612146,-221.940291132152,-161.116437002306,-264.075400493275,-179.00543184846,-227.128814369042,-262.152070868438,-188.242536494892,-202.614530652621,-201.39969826398,-216.929289997938
