-1.73991451006305,2.68236820301387,-4.20479339931904,2.17489313757881,-2.3198860134174,-7.0321544781715,-9.2795440536696,-4.20479339931904,-3.18984326844893,-13.9193160805044,-10.6569763741362,-5.29223996810844,-6.59717585065573,-24.7212853304792,1.66741807214376,0.724964379192938,-1.81241094798234,1.81241094798234,3.98730408556116,-1.66741807214376,2.60987176509458,-12.9043659496343,4.05980052348045,6.30719009897856,12.0344086946028,6.59717585065573,0.0724964379192937,6.45218297481714,7.68462241944514,5.14724709226986,7.53962954360655,6.74216872649432,5.94470790938209,9.42453692950819,3.98730408556116,8.91706186407313,5.43723284394703,4.20479339931904,5.72721859562421,5.00225421643127,6.37968653689785,4.56727558891551,6.01720434730138,12.7593730737957,2.60987176509458,12.1069051325221,8.48208323655737,10.2944941845397,13.2668481392308,0.217489313757881,13.7743232046658,3.91480764764186,13.0493588254729,20.1540097415637,9.78701911910466,-0.57997150335435,12.3968908841992,9.85951555702395,8.55457967447666,8.77206898823454,5.58222571978562,23.4888458858512,8.91706186407313,6.81466516441361
-10.4307477955873,10.407889917679,-22.199038332352,8.0724287470125,-12.0227563415481,-34.2373698311492,-45.4086571631785,-21.4015775152397,-16.6581587359874,-67.9317446499695,-51.6545563490914,-25.1115579181092,-32.7533776700014,-117.156942056699,7.76686783808622,2.85996793748252,-9.61479873296229,8.16486997457642,19.1371562383607,-6.60692483137752,12.8912570524478,-62.4633614915243,15.3488532210446,32.0298698349403,56.0155481491026,31.5934346632927,-1.46841700389866,29.3105251409009,35.4484079420007,22.1761804544437,34.180448550479,30.4690116034777,26.902567532315,42.6168160312198,17.3247452903783,40.5713406122304,24.2771206099714,18.0667413709522,24.8556355691939,21.6331854421149,28.4590561313821,20.5116754705636,26.2316113455286,59.6729769036974,10.7888603527883,54.8371168968811,35.3175336792794,46.3822611706276,61.0659843814131,-2.37535074995575,63.9089206175147,11.6885113781862,61.0489526800322,91.8605016834617,36.869652645951,-11.3790276650655,54.7631639148301,37.286143027954,37.8364207609419,37.4184738348071,20.0353507196268,109.931612686809,37.8164759712973,30.450523357965
-26.6603342497297,12.6040043007935,-48.5645121596427,8.76500662103925,-26.0716292420556,-67.3948364328551,-90.3987980304173,-45.0705645263992,-35.3811571506633,-134.810708623336,-101.267327184651,-46.3464216732774,-66.5510099596752,-223.258184225478,15.9352716960949,4.57011318560013,-19.496255166881,16.0962053053333,38.2584875001237,-5.42911437432462,26.1575189012619,-118.056539910799,17.8606139648753,69.328001326215,105.294410492368,60.757121102659,-8.59260650745815,52.8122879539533,65.2583414648798,34.7256715244643,60.4620054612019,52.8242246311085,47.2518640096487,74.9890194724577,26.6137885054211,72.1635153794418,41.3119261743668,29.1743466606304,39.151882802207,34.3842250924936,47.569727171881,35.9128362810056,42.7331766387884,111.111081735714,15.3842337057227,96.3378652511819,53.142018062233,82.3455131896401,111.783094024927,-14.9135496434032,118.537524378703,1.42249205475874,114.547382696457,165.004229824545,37.3464641295099,-50.4902494704585,92.1693229510584,39.727600429968,63.4690784793776,57.915861764153,16.7023827213162,206.522178808327,57.1343416804408,51.2564898811626
-38.0924710245709,-1.04508678632498,-56.4146734988522,-2.59445116178923,-31.404863927559,-67.4067116433104,-94.4013453937665,-51.113810383556,-37.9210856864907,-139.499276127851,-102.82366303281,-37.2771267056991,-70.7210443179796,-219.100751854143,22.0963898503795,5.36440246474461,-16.176571289282,21.6689730247242,42.5105141341957,14.8044246310121,28.0228101319712,-98.3774569061249,0.5017913345484,84.8723792528616,105.664265750905,59.7321616600722,-17.9115290827933,47.8585527161935,60.5596219795067,18.4540903960453,50.517567889845,40.9604245617554,38.0261467984416,62.5202411340741,10.9175496437154,60.4398184234371,29.9630242109943,18.0307723363836,20.6841601978037,19.3175768171975,30.9536110789998,26.1265476513854,26.9349929389855,101.533422102952,2.71490325439115,79.5983468265593,30.6106287817479,75.354568432267,106.715651352424,-31.8071916448793,115.363440025748,-32.4691804026424,112.243514048236,150.93582223951,-26.0149568353705,-104.678845923556,71.0644268477604,-17.5046767398167,47.4607264775702,32.0697852362185,-23.9451938399488,201.429420198328,27.3879364512345,36.4961054577668
-35.8055533851192,-17.9478075909525,-39.693519822253,-13.969905548447,-27.085358805494,-36.0774802664815,-60.8574543039766,-37.1474545886786,-20.5214126449724,-86.3614222791524,-63.3760633248275,-0.975274115311494,-43.310097288429,-130.392749047742,28.0924082943167,7.16746300741118,1.89111999675354,26.3429613682598,29.8602886979502,40.4793375007473,16.3270666790447,-8.12766946814092,-8.79774350521677,63.2990786673027,74.3615333256499,33.1702712049129,-17.1115522386251,24.0740399396315,28.6192174742523,-10.3052765891419,16.3186392742974,7.95026976905444,6.86796387899897,23.4222642326324,-16.556454133511,18.5656700545074,-1.18903120439202,-9.67583219309305,-14.179991756533,-11.1856003489003,-8.9224357314697,-11.5816116937565,-8.70271851573029,38.5066663588608,-25.1106640093304,29.0536669507501,5.04123141235489,48.8011111567911,72.2184304429451,-30.4644263090695,77.2580413579948,-44.1233683548226,71.5103722708655,92.922469175676,-77.9536648955753,-121.884160448962,25.3373677500458,-59.2832482009003,10.1680932506949,-10.9550674923248,-54.3948737950911,127.107292551767,-19.1613164841339,7.39831807685165
-28.2623123572108,-23.7163278491472,-25.3738051994693,-15.7944789841933,-24.9409670727234,-13.1978769666177,-37.4490716193622,-25.0729790258767,-5.92745301699295,-49.4712974021516,-41.3435729685728,27.4449261383451,-19.3892090258184,-81.7271760354535,34.5759686618192,8.21281409418835,17.7652841691832,27.8545550961506,13.2238769806305,45.9961247494696,4.69531514076417,56.523926461364,9.65678627840978,20.4029878581932,65.1681346692114,14.9547911715359,-3.86479721907632,10.462522171204,2.63842715487837,-19.3712936761093,-5.06086494490896,-10.9878594660153,-17.7120399538946,4.31188799345563,-25.8387370598442,-7.98454189575169,-25.7094899110749,-35.2334467944581,-30.7598672615474,-28.2082330095486,-34.5944221259677,-54.2653325448417,-32.3746546585893,-16.393684497876,-53.8221244959421,0.980898327406489,16.4322528810813,37.1690749595662,61.3518121162441,0.85125457448998,55.5809224332088,-12.3325555855901,43.6328755414791,71.5039686931915,-44.4269654110471,-82.6738455558483,1.33588913919507,-13.9540144853604,-19.9621696034637,-29.7963356354857,-27.2633097030155,98.4337197928086,-38.0600297202267,11.7792901853476
-16.8908254759208,-16.0064936167745,-19.5870489396763,-8.39101139777193,-18.3744122971165,-3.70194950875547,-23.8880562298424,-13.9672521620093,1.05996420668249,-35.683862811816,-36.5529410371378,40.1960714596823,-4.87275339731551,-69.4415716197245,42.0971755109666,12.3564681173056,31.0067899652183,28.1621021164615,5.3523062921119,41.220877555184,8.20398092947623,65.8709167672659,34.9735839804105,-14.4804856564747,76.8098266476751,14.002282023886,14.7948190925584,12.5007842326635,-6.34238719088451,-8.99688978248383,-5.37513176844626,-10.6125770143578,-23.0058551948544,5.12496833391695,-13.1524507033477,-8.53025037852276,-32.6376764842881,-43.9762844923627,-25.9412893045937,-23.6586501437676,-35.5576999553832,-66.4713051930053,-33.8758271472165,-37.6362149463178,-59.659846578716,-19.4391428825694,29.0515696949274,10.7792908185874,40.2212711865961,47.9719280835658,19.9513224871925,17.3936627466365,6.92620027328296,40.6484590969689,18.4569895010435,-20.759352180877,-44.1800505494992,62.6083190072932,-65.491903951115,-43.4094175589044,32.1019540518201,108.974468839787,-48.9509704469466,50.5930092673539
12.5557420914403,10.0997813134373,1.24588127289694,15.4385754744049,9.9485062050474,17.5132872721851,9.16514168386835,15.4696028495896,20.854109300536,-0.785245704395261,-6.84924157513319,55.1587964101785,20.6711060037505,-21.6637600542484,56.2496264286977,29.7239609244345,54.1190316677417,41.251560755659,17.6206276310002,52.7239191740069,32.3386821676076,74.160578743123,54.0202376263121,-12.4079590583884,86.607389207485,23.8890890485165,38.5855403498622,26.195575992446,4.8603681945458,9.01183412425968,11.1860798181131,5.12051443202063,-5.10853808319538,10.4165084552781,10.694605204958,10.3689084665914,-14.307426439444,-25.0370801259748,-10.3903364372661,1.47121304428286,-14.1492173118849,-29.8786876291552,-13.5290604165112,-24.7157427664183,-26.2818834757021,-52.1301556708866,4.79356259423734,-40.3988132493684,-25.5546130112571,71.0505669050385,-49.3840212077201,16.1413546202786,-61.4561592410432,-42.5802573607656,44.0099575256183,35.9350281493582,-132.22145712616,99.3195291847887,-126.890525476221,-67.3904527956078,80.8592881360356,94.8393150922423,-65.2404004426329,94.6339934065468
53.0557445679516,47.7089159299879,36.2709791507532,51.2201253275886,48.2069555647754,47.0492785415721,49.6727792828708,53.0374137199983,51.4550504296421,47.7186348775441,40.2556412818652,69.7703855579942,50.122305953083,45.4373587129652,70.7847039340183,51.2260971231647,75.9186792669743,64.7267677221805,46.7192839113596,72.0424370118184,62.9550378517808,99.1256364717938,72.0732323253843,25.1249588014923,93.8331470110313,42.8705860095325,62.846090136109,47.016937142639,33.4916009575337,31.0994691161746,37.7552497656147,33.1167114375063,25.8166600521501,19.1891906624118,39.6560533676069,41.75401631523,25.6138751129838,8.12184071564951,7.94557159489922,39.2125015230939,24.1237096194409,21.8319299957415,18.4699199194014,13.1062995803105,19.4045872367191,-58.4698884034404,-30.7697744198449,-56.3292333937765,-73.3928552842049,25.5249281515171,-87.7843032892674,11.3436614864058,-108.953802478312,-112.984780171822,53.6088826637781,74.018763940932,-185.383149080495,91.2386606389231,-157.929922759274,-71.4065430009754,98.5330871724783,38.6267206435054,-62.9539630964277,117.250827143865
72.7982494082581,69.2020387804678,56.5664135276263,70.2531183682001,67.5661638865561,58.7260626127074,66.8793212188918,68.5306399340175,63.0351972062294,69.1371654113582,61.0211036483681,64.8915284362096,56.6834040571676,76.5989454466574,65.7602861819159,54.6466911750848,74.1886620115505,73.2086417012028,67.6056025637487,70.8230004165881,76.9999870729994,105.834901052623,80.0617610330634,60.0764558150804,96.3127270615553,60.4241885601827,71.6094726525674,59.797671945144,55.6532043637342,47.1958383977757,55.3350772211097,55.1043435607833,44.3581162036581,23.5378449293811,64.7057416165688,63.075232017231,60.4276987708471,26.6311953710358,19.6814549126753,67.4800647109398,56.5285503665967,44.9954488686519,39.7368311697946,43.2192829771527,38.2898103081355,-17.435119240487,-39.6651436399523,-8.01246697795903,-43.4463721677988,-76.1346627837959,-62.8795055405792,21.2546154496117,-93.8684466583592,-120.674334505154,66.448286854485,66.2988039327832,-151.715012181824,25.5731087918499,-139.128886590457,-37.6320528747408,60.3773182178992,-96.9082330387187,-45.1548270089805,79.510862097937
57.4262062579807,57.0570756874888,47.8287741681518,53.9957615883857,58.8326177587652,43.9713339028542,54.7447141361249,53.4379180466538,41.0094516164699,54.7485012786972,45.2211835498437,36.1015105242604,33.5416304960117,67.0381125886189,33.3076461627419,35.1442220006213,45.4899562729463,50.8235572274859,55.0150900444271,42.3174686761916,63.1555176663458,79.4411852317261,61.7574037505848,58.0507959876804,79.1353919689882,54.8898697220751,55.6249222082654,48.1973128574869,49.2027390461245,43.2650200562995,48.3326608693237,53.1396171350828,35.5701215640408,9.21524844223434,70.5846761719514,53.7400524719431,67.9838265177816,24.4065994960546,19.1010508581557,69.5562982945438,61.1033609421561,39.4903986575327,37.5110964100337,41.5345188725171,29.624169098432,19.4594221980678,-26.8875194267957,33.7312790480307,0.120601801002161,-159.819143838614,-45.0683621897201,17.994204604413,-63.6161012390852,-108.690741403555,44.1752095004872,8.15002708257867,-86.5144450019699,-101.672452859271,-95.1019554800418,2.68457451673853,-35.5507991021047,-338.738267542935,-33.0570556022818,-42.8024230324869
22.3544567278792,19.0420493330179,17.9226311459269,12.3327199953878,26.2379842284481,11.6298576996963,20.6749240048175,17.2672297371939,-1.03999302265103,19.7164033257569,13.0916093379826,-7.36111442470787,-7.04611616127123,38.5786268618891,-14.7548479621025,-0.272502192246713,-1.67962136410546,3.93404825755837,7.25338839748622,-3.54398669614507,19.948953744201,34.0683650327493,17.0377331887508,14.3477650909778,33.3094869157621,13.8811498970508,19.6794091064914,11.0939736278295,16.0309032957381,15.6614540792603,15.8449269278841,25.6997812292051,3.44463675327453,-28.5579603902919,49.0296418341893,19.9168308070803,48.3504995048406,7.78563511070105,6.28977755620309,48.9547789935038,40.3081829993441,17.6228352075191,16.2415100812896,18.613534463869,6.44956809753107,1.10795829852908,-9.28220551811014,-8.38246477778241,-31.0405409033593,-162.288719627037,-91.25939956247,-3.12122253004384,-80.1530497210936,-122.018760501119,-14.8763651018826,-31.7113203762096,-48.7214619754797,-187.28509486047,-49.1408011145004,22.6470370891905,-113.179276240993,-548.658066803296,-12.1050251390267,-180.007870415561
-6.41484784532244,-22.4940238335347,-12.9375902559776,-28.6076335069356,-16.2282173592447,-22.9892907208426,-18.6848561640033,-23.7096421901237,-37.2674763901608,-17.1064529759309,-17.751004563956,-48.2018561897113,-44.1657883610336,7.89919720455691,-59.1132951324969,-42.2810315335926,-50.1956579119107,-46.0721891666443,-48.3760763818778,-52.8218319236111,-39.8865697903289,-12.3793389059507,-34.7411611175562,-47.2575383026916,-24.5120320827375,-43.6913693271615,-19.4883880532363,-30.6539021586959,-24.4513148753287,-20.6723277082252,-25.6417408100937,-11.4941077445537,-32.0485499694917,-73.375276316754,14.8376694877552,-13.8049493483947,15.8502953822305,-18.2822889409673,-5.99152510448961,24.4179874616246,15.1320141579354,-15.1879028023488,-7.14729116487396,-2.51831735038641,-22.7411197242639,-43.4957490813259,22.9569485681282,-95.048616984535,-81.2665512977747,-71.1393657345947,-143.948682837157,20.1581554920771,-123.412360679853,-119.650634701789,-23.6319657547296,26.2429032646746,-9.30629186036238,-114.827059909758,-0.456957951922266,47.5608432701534,-82.24177642264,-511.038182546483,37.7800950483394,-198.407798155603
-7.55963122428009,-37.3414101452197,-16.1789801425206,-39.4589536502017,-31.9569517931565,-34.1650608630055,-28.5281095055945,-38.1630229301812,-41.8858027763108,-25.6525607120577,-24.6549852194565,-58.9912233350039,-49.1860697551918,1.56225842415502,-77.8197121918315,-64.178408730502,-68.8832426394535,-68.7031199352543,-71.5119931772157,-77.9428739030636,-76.8078800044579,-33.3499192752144,-62.7841165590316,-83.4772666989208,-55.8459147624307,-74.6401746647132,-36.0754765782034,-46.1441201079933,-46.4781027083315,-34.3142081577652,-45.333579729785,-28.1413886642399,-41.1237681937657,-87.1428355194168,-0.411983873131851,-24.9548574465759,-6.77608513225986,-27.9557188679177,8.1888513617296,17.4558251769854,9.60073733103626,-31.470744659382,-9.35613462155963,-3.7080783308374,-31.3487746676413,-51.6871735305027,56.9727701178951,-118.02791040753,-47.8763051439252,54.2202950144081,-119.056523655968,104.664520625657,-136.22477307418,-44.3445524989697,59.08806307076,147.202598054623,64.1619176970058,52.3396077585284,54.2024935676946,96.7986882041326,32.6844397401805,-235.901795206524,94.3758482290332,-70.0456376210693
16.4530568986562,-11.8577876382921,14.6595288593414,-14.7696079233208,-0.849042543336403,-7.95310956965762,5.35444751817961,-9.39192413754776,-12.8614833089295,9.49492546001721,7.02356347854821,-30.829929831303,-15.8022890412661,35.4432924512297,-59.2793485843762,-43.6371115212586,-44.4309265925645,-49.9949923382663,-48.3080217176592,-59.9958989375159,-61.6559565217734,-13.6452436897132,-51.9473944905833,-71.3198944658874,-42.8762676149954,-59.5392573921103,-17.1784391794092,-29.9350199228303,-39.6090893086865,-10.3897592085676,-32.3304999746542,-13.2106912824917,-17.1247732883924,-50.2169413620006,13.8026483055064,-10.5711615440908,-5.45299459168313,-1.64878463483215,52.2472221133697,30.6198440517647,28.8273887814037,-8.82544616946419,13.9843444941677,19.3886717551087,-1.41218710315485,-20.9851597768242,33.8000796827576,-56.1955093778777,21.145223551397,105.79731626619,-40.8162602459077,140.922168678106,-115.032726584642,47.8973719820609,120.547933174245,196.045868486912,114.381670535648,129.133806493584,91.05958377962,120.773008158647,107.301969258997,24.5184365527591,115.986463924207,72.158307896229
35.2453432109728,23.2013448839202,43.9645973584094,12.2977484664311,37.9512437597325,29.2808767274601,43.9447769347484,28.389240432761,17.059139461343,53.6976528688755,46.5919351192448,4.29474265866557,18.2711533441302,78.465262857679,-25.301316685583,-7.2653264442225,-8.81665175252115,-18.4991229465142,-14.9924611037954,-25.963815978273,-24.8313955624348,18.0456049794667,-26.8569621275353,-45.3676799186228,-15.9470484329841,-34.5961857490743,16.6316058638051,-14.9955805785982,-29.7775607802445,22.7229309551871,-18.5088084065745,-0.482915069377635,3.94104351452118,3.67500613680591,27.3759432857997,5.87599779440061,1.46635795011647,25.3723220256628,85.6715186030179,36.4798741100113,44.6994493628961,18.9015389979814,34.3225291150503,40.3723296145359,34.0007077389494,5.2305663487195,-45.2092527006006,6.91512356982138,21.7282915568171,65.0456448410099,-3.17435899517466,52.7472254954958,-86.9502779408773,40.6559678925352,47.9073152541972,113.862472407139,78.2768379193496,50.8294539600614,80.0922493901666,61.1264447917497,69.3024273482831,104.853933461135,80.640072282342,103.693587871769
24.8988289150036,24.5400178646816,38.2491686354836,7.94892110653524,35.0383199590982,37.2757193980211,44.4606326173702,30.288631000984,17.0831875990103,58.4839625199101,48.2442689937653,9.35749140569163,16.4274728156664,87.1514099899457,-14.3073411900001,-3.25316302010436,-1.51840330176209,-16.1648668352834,-16.7687076556582,-20.2705592962184,-22.07570505288,21.9305992572463,-26.7471334563465,-56.28419153996,-16.0072677170487,-48.6805901923501,31.310503673158,-33.1869754058332,-51.4542661119045,23.9265731459765,-39.5699388969356,-22.9397099750613,-12.8057416693377,24.912323669971,6.58463209812727,-5.68757681392623,-17.5251718504428,6.13514121706263,70.3347877406162,6.38977188549129,25.7603611916998,1.22449556114944,20.2090386246469,23.4548770852941,27.7985766749959,10.1810879486006,-87.3727003031969,9.35706293858679,-23.7866193446095,37.7170936186067,-29.1022146158435,-59.411738486078,-54.9149815210052,-60.3998141190938,-86.7819211065721,-0.971043617273243,-3.70581808423701,-69.4154317190492,35.2098156510264,-57.8905980322128,-34.573216554396,64.7116608906954,1.90956973694473,24.9786823023389
-9.29874965141943,-12.3937389788933,6.6086745623195,-26.4350902626978,-6.52202283315798,9.59144168483702,12.7118849804466,-1.67016673616372,-10.1122749975922,23.6659009986887,12.4365035960211,-16.3420500544716,-13.1913023516197,59.5099001196021,-36.3405974502447,-36.7907461243418,-25.0859569848312,-48.4872561550875,-54.5681734603233,-49.4593047832824,-61.6706681704541,-2.68712597876823,-60.4284172146068,-103.945258617369,-49.9455137611646,-100.593747700197,16.725114537517,-80.148699703706,-103.299862030562,-13.6610775556615,-90.5190569058021,-70.9349293641442,-56.1787685693355,7.11468369513838,-44.6313848252758,-49.24079405378,-63.1842642038695,-49.801589839346,18.0727265990229,-51.8271605359251,-25.3598482336589,-55.1065123503785,-28.5400087454013,-29.7396306418162,-19.7084138032189,-2.88017220198743,-62.6748087690729,-37.7357222411,-60.4793037967194,69.9638273392049,-65.1904199197377,-86.6876299971946,-23.9997708627147,-139.345180423297,-149.8657925812,-49.120785437404,-52.2600692333472,-130.128964910874,-0.389947215356726,-153.234120663,-132.434684609645,-18.2158406358663,-75.5744542691564,-119.704257156963
-48.8108791187264,-60.427587454578,-25.2849808678258,-66.3272071632353,-53.4452447682213,-27.5561670691867,-21.3265249996758,-35.6856976030636,-43.2611877987656,-12.983035659129,-27.008194647189,-47.9081631191926,-43.4538851700623,24.5774879909846,-69.5156380918403,-73.1355965466242,-56.0339486691702,-87.571125170496,-97.2597524295869,-85.0504027513668,-105.386112307935,-29.3813899459823,-102.695727038378,-148.718160431397,-93.9544608816344,-150.920026778483,-8.15760934843854,-126.650481398837,-156.129550049707,-59.9575941834436,-139.303613801781,-117.132325242734,-96.1362712764521,-16.9078393373592,-94.6171870563797,-95.6203913481814,-107.444294772416,-100.198652758652,-33.6156910302247,-104.634627457758,-79.2101685468043,-103.177372494207,-82.8876869357978,-85.7240768045264,-70.2268406230528,-39.4732499867932,-51.6030873015323,-97.8707082357058,-113.46943351948,79.1796618590325,-82.2215366287781,-83.086527389955,-15.0343566580649,-149.285060035158,-149.995016303971,-59.2553890157433,-57.1738371598532,-154.767996255378,-11.2228769830607,-178.150403521651,-200.76336707899,-138.562773604519,-109.080464821747,-276.622771511937
-76.2805617390383,-94.1448017386838,-46.2928209388757,-90.6123908304193,-85.6551931848333,-51.009231670861,-42.6378401789508,-55.6840844931811,-65.63524529195,-31.5712372956421,-53.5687835903581,-66.7610923977089,-62.4581173108902,0.995915908285771,-91.1762350482553,-90.0684846195146,-74.7355887726781,-109.394792109553,-125.129285513459,-104.303570272482,-126.937425531096,-43.4618047407642,-126.804657767275,-168.160869665944,-123.108028309714,-178.115310361254,-20.7826300574885,-152.449216264404,-187.647065342853,-88.1741399804305,-167.212386670452,-145.092062552892,-127.564849553669,-27.4002155057943,-126.354267185957,-114.427741641953,-131.827057928658,-130.324334405203,-69.5475605569798,-135.838884559917,-111.363160434464,-125.764113226287,-115.751602515474,-124.659822178671,-99.2424615905722,-87.3727973638455,-92.4893665529115,-137.166565478347,-179.255298712333,20.2904300028377,-88.4144372817199,-117.609127730263,-20.9022969236052,-132.862114343803,-155.85203077201,-84.2369103925587,-50.9364612618693,-173.81231914,-8.60196318405247,-150.516066061077,-220.43536353096,-229.244292416944,-92.9158513570103,-335.518307163073
-80.5608782705878,-101.866294295542,-53.0296498621392,-93.8097946853779,-95.6144106862273,-56.3389323143919,-48.1141569190622,-62.3768849949847,-69.9878052159207,-36.6257150656702,-66.5788772857221,-68.6557395883652,-66.3809591967312,-9.44378964019728,-93.7096535288065,-92.4686313638517,-74.5701013893272,-109.472868673227,-134.976844793414,-104.850244034947,-129.116873189258,-47.6264362556789,-126.472349399007,-167.594334554167,-129.929156056892,-184.88584430564,-15.1911855339587,-160.392359536114,-191.925848082317,-100.04713333341,-178.580587312721,-149.091541091681,-155.005795178407,-35.1936898804224,-149.724533288169,-108.727501171588,-141.402788596728,-147.154248346785,-96.3328186702362,-154.192234967356,-122.737164364288,-136.829342012845,-126.652997058406,-150.272619330508,-107.532661862792,-115.580495095391,-128.41599862331,-138.573957279688,-193.301399307731,-40.511374633711,-84.4121036602394,-139.880559266728,-12.9942141195352,-113.038011806607,-153.843565637845,-99.2183836802139,-43.4681204444861,-153.886956111651,0.940938384631304,-107.106878035094,-172.092567890419,-196.402335189784,-55.8701949508705,-240.415271676059
-66.8005162029431,-88.0796144363088,-46.2853940500945,-83.7975770078416,-82.4582164138477,-48.5778825895982,-37.13959110343,-56.2820652133798,-58.9569379170109,-28.6747302511183,-59.9612458116906,-58.9931551389318,-53.6613856702668,-4.284418916149,-82.0141564034486,-86.9777548143705,-60.4511629216722,-95.5379406269663,-125.387965230025,-91.3105398696171,-117.448741626405,-44.6448842246602,-111.26829192891,-155.520147029726,-121.364198480218,-174.818900329699,-1.28434593309888,-158.61887303162,-179.363226216482,-106.785424046243,-183.323765625144,-141.543175118247,-166.379514294468,-50.4565337964704,-172.117263836131,-121.797121916026,-152.544613652793,-142.029304902942,-118.105549847306,-172.679863655611,-143.11405010797,-135.682226116458,-137.179985220163,-175.799628632241,-97.5469249252819,-115.024448662923,-118.984708232549,-118.032708212279,-155.81405876976,-49.3280351254585,-71.8307172328181,-110.10473916151,7.24035553573389,-86.8318778041663,-118.988479468604,-78.0786324490358,-33.5754394064895,-94.6623845913295,10.4154655199174,-72.203375965461,-96.4209554428888,-89.4571712392564,-28.2021067815464,-100.615443602361
-50.8553570082162,-68.7569471014238,-34.4260352009453,-69.635819523837,-58.6248537142854,-33.9771350518891,-17.7169215856323,-40.8723081468377,-42.9079008645905,-9.36544631679746,-35.0525021362724,-47.4880169737282,-33.8310429941017,16.6439872586365,-65.7011846291918,-74.5771753381871,-45.0397870203992,-78.7639501835949,-101.444007489299,-70.5065631188647,-96.413842285701,-33.3813614080557,-93.2604208509061,-137.88518379995,-110.291771682128,-156.148128685304,7.20096477604524,-149.087093250463,-175.012021935662,-110.911927818497,-189.010426867986,-155.6030824465,-156.884517330179,-65.0482074877366,-186.231695229409,-208.369436086198,-180.838893330745,-104.726314710115,-134.218773442445,-202.047945259438,-209.444727231083,-112.744645629435,-166.841296009496,-215.453836044833,-71.7211833932186,-98.2856483990435,-85.9956672577744,-98.2616846927381,-122.544718311169,-30.9495648341795,-62.5883634403011,-75.8428671956138,15.2893765010697,-66.3063159849177,-82.1133808576687,-52.5002365705429,-29.5542370761156,-49.2450263493564,10.7906703308881,-52.8610240747016,-53.1450878183481,-28.106254923683,-16.0422105800134,-37.9503232342409
-37.1971934894388,-53.9122089296441,-21.4423095837326,-51.2233829651971,-39.5249943992215,-18.2971402269207,0.194592844037201,-24.176955563825,-27.935081252652,10.541241954962,-7.06346491823551,-35.641934956948,-16.1751840257041,42.6073192594516,-49.2617202874074,-58.4100474785427,-33.4805828051572,-64.7152132038239,-75.1617126019756,-52.1924545318288,-76.2377597793623,-16.4159075988883,-76.7137630191257,-118.068810688111,-104.762529264402,-137.614427620189,6.05933111016322,-133.874151691041,-186.931836291217,-109.256780483591,-197.318919526457,-202.241487177642,-149.871097939929,-68.1650036662868,-181.709821456988,-357.574640379596,-227.724916609875,-56.1799041007467,-142.053630043582,-236.000615040888,-313.074250919858,-81.9227556145411,-205.713555701445,-254.780746071009,-44.1933389091263,-72.8322263127374,-50.8760027539525,-73.7615061742657,-95.3892167878601,-15.6503996339439,-50.213052835245,-63.451130230444,11.7343994501754,-54.2511263398652,-60.659797797214,-43.8542311146862,-28.2419850475665,-31.6523328832264,10.8336459187623,-36.5496684670218,-36.9624013159331,-17.408872209541,-7.4246200624132,-32.3081914536974
-20.130610788743,-40.686544092157,-5.94935986877408,-28.1243931144227,-27.511297825717,-5.77284657893279,16.8325088020087,-10.2375912273963,-13.3242476618341,27.7265931634029,14.019818528064,-19.2748204479181,1.34146668814834,63.3698940141011,-32.6690092978826,-41.5600428757022,-19.0411021709547,-49.784923358023,-53.336029958471,-40.0294438929025,-63.0465515367461,-0.908590418775139,-59.6570272857868,-94.3928986153489,-101.064796306834,-115.075635349064,2.62721434818877,-115.246027959014,-188.020207400169,-101.237911606525,-195.109825233121,-242.703545591036,-165.051461605303,-64.6476936740363,-154.184014817513,-458.10330952124,-274.044618133603,-31.690451948502,-137.162847435858,-245.268422782831,-385.524481385807,-67.4703143755418,-220.970213280339,-254.813030293266,-32.2848277341135,-44.0674612998297,-13.2996495287696,-33.5371937204775,-48.7136905313668,-1.7466723308494,-20.6804899329279,-46.2985862248184,17.771658830782,-32.4415345238317,-34.3100065404902,-32.6229221210189,-14.8130088016534,-13.0455536206705,21.375624096893,-10.4186537054806,-13.2254172109529,6.30215157012086,5.09583256376414,-15.7216523656979
-4.15546436038721,-27.5070215347278,5.08207037581933,-11.0427303706811,-17.9243545770421,0.552143966633995,31.6563716126821,-0.116537985514312,-1.94407225778209,42.9228763389022,27.8629543950733,-5.03324703408477,17.3436302732884,75.517471850581,-20.576313552847,-27.8304027134535,-3.50653445678949,-33.9719904508997,-39.5239535381267,-30.8788603798877,-55.7647579262744,6.89448362725536,-46.1330649889745,-71.6988164508885,-97.5152944542134,-91.0394678053995,-0.821264335418782,-96.8304252120684,-160.693085487894,-94.2349169205763,-169.996596721064,-240.329680388856,-185.554770913808,-67.0140832709931,-114.908883380874,-423.649365024056,-290.921728614512,-43.0946805184545,-122.101165787055,-219.774250951959,-376.807211387211,-71.134090990868,-200.983650001418,-216.660544879804,-40.3940454614575,-23.3244256174418,14.6725333568848,8.18129323172005,-2.37641454457061,6.73920722754307,14.166078510329,-22.1825170234953,30.654246553985,7.60828121129759,1.26087158249894,-14.2818987908033,14.3027669943099,11.1850820760113,32.7585464769497,21.1616940538741,17.0646752128027,40.9517321003432,20.9723105336241,11.8189972601602
-3.083549055988,-22.4408647950943,1.07154573416705,-10.0465501523597,-14.9428948187529,-1.40934632201003,32.3794585735411,1.53256087300161,-1.12045310651883,46.0365260104475,30.7850389973087,-6.0846185958375,20.2738207055854,71.3704910089548,-20.5737854673214,-25.3299292828667,-0.17055349482262,-29.6866050346235,-40.1074965838291,-27.3462458763135,-52.9293493294044,2.39022451615359,-43.4904251512985,-62.9071715179243,-101.320737100495,-81.3792920023343,-14.4303734457084,-82.4812953023536,-129.203918612785,-88.3210726097484,-132.109055843592,-212.124163364854,-180.715775302617,-69.2522183425882,-74.2371988996562,-316.621658694016,-266.855852135075,-74.395421516743,-98.6385789884897,-184.354103791879,-321.17000940508,-79.6114126524516,-169.217073242545,-182.85721747249,-60.6859297234047,-14.1992396168963,17.1576977530062,35.2106692718277,16.3754412882534,-2.38430398459276,36.9026711136906,-12.3158161641855,19.1652306617238,57.2492790119963,30.5039331205512,-7.21989051192732,54.6248015987057,28.5372985164695,32.3394222793724,53.0667010271965,39.6660288695447,51.2578669623275,38.0489149422142,24.1529875299301
-18.6733811993015,-28.3838558841425,-14.5096206338499,-20.251415852701,-25.6590379222583,-9.8468156883577,12.6436994760988,-8.14495382953301,-13.5241802742916,30.8816765127332,18.4698692206389,-22.1599953262605,6.28507079883878,46.8020459509184,-31.718455947131,-35.543109587526,-10.7822490805018,-43.4097205252294,-53.1217127422884,-35.730863555247,-53.7928458389614,-17.2640648339353,-47.436083366314,-67.9111569962023,-108.011743401802,-83.7120754019075,-39.582006235747,-63.5676229399206,-116.01800563782,-63.0564262178967,-94.5569477029737,-195.735860882385,-151.164607727783,-52.6948142025503,-16.5841328172378,-245.97509447994,-229.74064771638,-103.899107226331,-55.3939305508247,-155.021781369591,-281.046670350609,-93.2059689673596,-149.384192019117,-167.55313250535,-83.3343382363889,-8.46070401143871,4.97425204799099,49.523325881494,21.1619445536653,-22.7439741209962,44.8348280758828,-10.7369996810488,-38.3172209325141,98.4819564052108,48.9909297434057,-10.0880345581046,90.3360530645643,43.6334640580017,9.86278842468376,82.2049818605888,56.073059177575,50.9068405396467,42.7409832170645,26.9483325124609
-31.6003411939984,-31.7518373583964,-23.9524951837844,-25.9580281207883,-36.8769623363511,-15.760169889173,-7.65867458339467,-16.8045959344355,-27.0369563164284,14.4381766197449,3.9856860158419,-34.9547518547659,-7.68897206745496,24.6532294141281,-40.040958786466,-41.3627251665559,-17.9990811536803,-55.903839300381,-58.2062560345414,-45.6629220449764,-50.3816483319899,-39.2275037088029,-44.6904089983676,-64.0916003126675,-98.673381334735,-71.6987470458463,-60.1184087803659,-26.6337815881463,-99.4933315803145,-8.93587469975057,-50.0621935645475,-183.434939594415,-119.111857265262,-19.8646213689892,65.9684368998462,-208.700732234409,-208.013843478233,-115.063579509409,4.82773976807799,-122.193949504871,-254.933744742992,-109.653683290592,-136.005073905381,-144.782837200765,-93.8158109655501,-0.554943632875072,-0.568218243339313,54.9722867387042,30.2598876201154,-34.669639578973,35.0539231423894,-1.76275188203777,-116.940735861694,106.702231556126,56.6084859519078,-6.11922516099628,85.0243615697639,58.8642866462092,-45.2864881846173,90.2820840420629,66.614074381696,67.2075890030776,11.8298345608568,32.4280506596968
-24.770369356978,-22.1622815631665,-17.2539425420874,-17.4129632269732,-27.5126790764817,-8.95762275756019,-4.81932688064018,-7.78112024872675,-23.5891957058651,17.335036953184,8.78702557785835,-30.5090191211888,-2.98029606774945,31.035450302937,-33.7495293224457,-26.9445239055612,-10.075002468338,-43.9258699091193,-39.279325471921,-37.5843297684168,-31.7686005797999,-40.9397313381516,-31.2325457337114,-34.668997193596,-75.5827016818324,-33.1946075714703,-71.8910949478056,15.6769762903004,-54.3590061938995,42.3523285344828,3.8015603786764,-136.963729314874,-86.3483839209893,6.54401489441116,137.175162722396,-142.115198773242,-176.522986333352,-95.6101470930247,49.1165880824615,-77.8408584190386,-196.067382502572,-99.0294596088919,-107.292808312134,-97.3393296100926,-73.5852950915985,5.59041885390928,3.24272635241647,48.7839879324314,34.0458283555211,-30.1534020972314,10.7610237463305,6.2694255431684,-152.034110126599,71.5105222517288,47.4715467102463,4.41146889674132,20.2057071667227,61.861405135807,-115.123868129545,58.6732083097238,61.4692131008723,85.0979880686187,-57.2414210423061,30.1352144995838
-9.03387016327488,-10.9287293012857,-5.65421205351028,-3.9885435068013,-7.82468631156298,4.4123063103353,8.57723491901137,9.87239351510907,-7.40679503344223,30.3258044381633,26.2249946863833,-19.3823980602851,12.0845684770952,48.5075248091175,-21.2407649681258,-6.35970970783789,-2.05697157649028,-19.0592460071246,-14.1046077737077,-19.8346774432553,-7.96246137965592,-31.7623184141985,-19.6319796847705,0.610453394037809,-70.631115923405,4.84025325408458,-98.3040356639849,24.7377764328043,-5.77472740266986,49.3508394225192,37.47544065776,-65.0549942442441,-44.4997874094923,14.711098688921,156.392558607672,-57.7149530667685,-101.747844139245,-50.3811314046563,57.0623783596514,-34.1290934727036,-102.122375410857,-48.6699731656013,-61.0081610016152,-36.7360709985373,-26.9758151992054,3.659362429587,5.09282167504611,32.2118996896481,23.7460865668977,-22.9395051176161,-7.60305960319576,1.22460630694461,-108.864438269524,17.0274199868594,26.0210284432405,7.12866295955966,-65.3236843160012,49.5915103306106,-152.646571685,0.289665011675853,36.7454615484567,82.7746059358425,-125.837103030742,12.7156955429637
-4.36772536819006,-9.74190407501274,-2.15656312258127,-0.529030033536244,-4.32356066222471,6.37835919121132,4.74174929890869,12.1918508353644,-0.346571125355892,28.1408437457065,25.9564466353304,-17.1004481934556,14.5372630139838,41.1213289805123,-17.6892721764364,-2.57042361269443,-11.4801316758816,-11.6645295324991,-9.35884342159752,-19.6551729190721,-1.94473193141052,-45.1759156231013,-20.9535805571998,13.1291329904298,-95.3375359685137,11.9499536561427,-150.370592841921,-11.0936036088143,8.37702516713095,15.054878762631,26.0419097418075,-18.1469674462696,0.294990837254552,14.724677828553,127.636200888247,-12.8121760894473,-7.58305750993799,-3.22279317492473,47.4815145967969,-13.6252814924714,-18.8054874104215,5.89453997600058,-18.1108970507125,19.3731664898599,14.6781151795292,-1.23229147076326,0.474801062426655,18.8866854281866,14.9796314285977,-27.2730379783293,-3.31304420372656,-6.7512684734551,-28.3557147281132,-13.6906046902127,11.0233776419184,-0.983357240373551,-104.091696292192,36.4311873327682,-128.460138889377,-40.3095066471165,10.749448402573,74.1181225347542,-137.950881477838,2.35900824856036
-4.87030432046311,-8.71194692793742,-1.47093571494679,-3.80313918340379,-11.12812062394,0.609686129164737,-6.1682798772544,0.934890061854855,-3.84065723292267,14.2930439183511,7.43139342815311,-18.2344844826633,5.5607302501597,19.6093042209056,-22.3449218621139,-9.21988925986302,-28.3190357561512,-20.8021726408225,-16.5452109663698,-33.8719112390642,-10.6255873297926,-75.9024546689951,-27.2523438414238,11.2373083209667,-119.751202411314,3.98617864123405,-195.136992891134,-48.0611145848162,-2.04260637115863,-11.4681137601705,-6.91577153362875,-14.5399769493432,45.1468873502636,20.6559093353252,89.2120274906157,-11.6794179614088,63.162214883273,32.2136138156074,43.836021990211,-20.9308287806999,30.8809981133441,40.2415550832465,6.09320767662563,62.7946080862771,36.0038287586669,3.69439739780986,-2.93640884259757,21.7643387074184,19.222049530235,-33.5020814264883,16.2635931171998,-4.49245588554206,29.0831150934082,-3.53802774510239,11.7368979967087,-6.99661895100928,-72.8277012512962,32.9419640505465,-59.7881978635972,-30.6999482737691,8.31053879540581,75.2803341208673,-79.0799032542726,20.143424318017
8.93768863701083,5.25671818203934,7.65588436774788,0.617362691116082,-0.590226958310307,11.2446982758857,7.77797698884401,0.326061289480993,2.77531097888047,19.998359152343,9.23122352157419,-9.87313878353204,8.95793452932068,31.495189561721,-24.4133903404927,-4.86563595046309,-31.9944021993687,-22.1867302217274,-10.767676599923,-34.5686483146899,-10.1344011924807,-82.4510646227608,-25.6686699526436,16.8512284040035,-122.940616384718,15.0823901084978,-197.828028519875,-45.9174458087545,-7.54505899619223,6.18404166461147,-21.4359918706902,-35.7327159891531,89.6645715085056,24.5227853010134,71.4335845671509,-18.5393487565802,101.793567638844,62.3645045288138,42.8092457382353,-34.1199153948494,59.3525058748996,68.446690911837,14.7680313791859,87.631058799449,51.3954178485349,12.5709237013959,0.522696912358175,31.4091147525596,20.2606444277311,-23.2155461947767,26.2369153791404,3.85317984525319,46.2663210919856,13.9465504410667,15.4102575170091,0.459910600715382,-21.6051121473058,34.0809069258391,3.4977199185288,8.1400031826061,26.2676039723362,70.3694110772166,-2.23383232327099,51.9087456494658
29.9577445777046,23.0484595017914,22.5286862732016,11.7178253564308,26.2453975474553,38.4575249301672,42.0936937255764,17.4917240580653,20.8582832989881,54.9938568606929,45.1123983618853,4.48525999584632,29.0444750515013,84.4347307984234,-22.1427447082175,8.60389755311377,-21.9411923984635,-15.2030060112124,3.63208427384742,-22.4461430451185,0.56065001211147,-55.0909905380909,-18.6228624521961,19.5026511243075,-123.788333822577,36.3503386121898,-170.335547325484,-25.3485042674036,-6.94996693110004,44.8420370184087,-13.1045055770543,-64.7124508604124,112.513354574823,1.0088649764144,59.8616137609742,-12.8509594426071,118.244743109941,86.2702837928888,27.7930653229117,-32.7679547240367,80.637345259762,91.8357562691406,22.1251445077738,86.9424442827844,66.2236755729878,3.97358914400451,4.30264204386523,24.6987018731949,2.85758935150936,-1.31942493148033,10.5699776029662,12.9146146536528,32.1233811489984,-3.47364882228823,11.7248566093755,21.1500660237273,-7.12184786650261,34.6312496452899,22.8515127150468,27.2719305413011,41.9513027736182,39.9950228219356,29.0808314651499,69.6942856422791
31.0216089993687,22.397567614592,26.5008298344491,10.5641883880061,38.7654748639564,49.0538250246403,58.5213431332634,31.3142531386626,23.5228288338918,84.7702281375751,73.2877306335073,7.37052394848998,41.1133268104566,124.168187800728,-28.3262479981823,8.11438426926342,-19.1949760967359,-20.4325495414294,2.16558423205316,-27.7292342094556,-1.82327811608665,-33.8512155220019,-16.510468445131,0.803471972147395,-141.905864514167,36.4080934975041,-148.99767889014,-28.5136977963669,-6.70788799409164,44.5077085533889,-1.04178533124566,-78.6810614088889,95.1428047400223,-54.8439314508118,0.203212121997679,16.764062584436,124.538170650748,87.8066702592373,-13.093809372384,-16.0044740976419,108.872140094437,90.5709753171346,43.4583882586676,64.3963732494052,65.4781015583695,-23.4360138865022,0.1545222759535,-2.60486839279034,-22.5129520690669,8.69655242913576,-20.4309242027011,22.4325100322193,-2.21012497985771,-48.777828848735,10.1346603630599,44.2313521401152,-25.0768201516413,38.4068723220414,3.97458756495711,11.9948413096516,47.0081501233586,-5.76418793875661,10.5681329628281,64.0214236469796
11.218801590864,3.79249513262614,10.0594378842544,-6.53761515755096,27.0001814722241,25.819676294043,42.0751707624233,24.8094243923024,1.03074476406524,74.6019687235589,61.1373199685088,-9.53163684265767,30.6503465760027,107.901485211373,-48.191616786289,-10.127172940106,-37.4293751928218,-38.4821587633666,-14.297083244894,-55.1346852291228,-18.0478024805897,-53.0620610837496,-18.9714469537817,-20.0029762661308,-158.840920566039,20.4301813100298,-143.443252075943,-51.1351729692901,7.22032002273538,-21.7229815558799,7.02277654953845,-44.4241356001977,64.8998667258103,-115.806800384445,-126.823518443564,80.5188417689264,142.187756798094,75.4964015098614,-81.3767681703886,18.3566633035288,162.6683920048,76.0876134345469,89.6423630520387,48.6061213858687,54.2561040130426,-44.8154942687723,-6.52248637053055,-26.7192385242913,-38.3756456981333,1.73362134239774,-44.0482984634601,24.9873117805191,-31.5944032576468,-79.4846968276858,20.9239844252164,55.2765431554933,-38.5153638574012,46.995557353486,-18.0041863097909,-6.93512818716252,48.5460586491744,-36.0043681789459,-14.0029456411802,48.6157227550807
-3.3143773376153,-4.191303155066,-11.7678488625124,-15.1778120934451,16.5211734389241,-4.97368254926938,18.2190335229785,11.8091230605855,-21.59634248867,39.1930540239755,35.7886088880881,-32.749990450554,11.5577073065649,60.1420421423649,-62.251140336902,-18.295985689911,-59.8962961613728,-44.9636365515922,-17.299647106538,-73.5894726292948,-18.3424277156335,-96.2081212668749,-17.7432946325884,-8.73038423860323,-145.59069528279,18.0282625520127,-129.906825364744,-57.108629124815,44.2124527812254,-107.321448587354,11.9280932109994,39.2330628854619,76.192923483983,-147.33460923733,-239.295433100582,161.712723679347,189.269980891175,92.2823529314977,-146.351414503352,82.3753274218942,242.382315190716,92.6307001474877,163.02960595112,79.3579222357818,63.9014636121643,-41.5251631518439,-4.4058168141192,-28.2643530348922,-41.4289320219536,-4.83221997898572,-47.8344646182785,14.2525558238808,-31.1442625150171,-77.0090092808168,37.4018308033899,51.9692683458047,-32.8056183819356,53.1395372729919,-17.7986873988493,-3.13934513875719,50.8904065779405,-28.4384789640881,-14.4710771323786,43.7315891170392
-2.21508097677941,12.2049748212324,-16.5308373306028,-0.35542926506971,25.910869123946,-13.3129468229811,10.6515473711774,15.0877789001821,-22.7887010992355,19.3549437349171,34.4522360186379,-43.1826311936703,2.99117328557196,31.184838944816,-54.9746596560641,0.0574765501961388,-62.9966019613461,-26.9580882387645,6.74268522878503,-62.3723850346733,9.26408284613582,-120.297260736703,-10.410346551686,38.0157907420191,-109.481497273997,39.755846265621,-92.6191193346982,-34.5628437521255,91.1362455716914,-140.192499020545,24.3130733269448,139.599356687837,145.540936880935,-134.737227670207,-223.600336685558,228.927109422984,262.921615797863,150.951129040202,-145.589341213618,168.726549378172,328.479910210406,154.601661793911,253.353692755657,163.931346303538,101.81397603074,-17.6536730360388,6.56530722750303,-14.0812406144635,-32.7549573284893,-4.53907832992627,-30.0070045842999,1.42228161179783,-3.6048848747616,-56.3020608181068,44.1905391453253,47.3030702846122,-11.486992007533,47.6022275270049,5.54493976177704,15.1354554091331,49.7481963713747,7.20052771605461,4.14641183472128,51.2331229668757
6.883287905402,38.8132935408992,0.423924430246438,26.5444952479792,48.7047644241056,1.86394019511298,19.1878558280243,36.987612496186,-3.08128892820406,30.0713225467175,55.1007635272494,-31.6421111151367,13.132082516463,38.9211936046547,-32.9439297928099,29.9582360261876,-44.8144779566615,6.37004171779449,48.0906558150808,-27.1240171990874,49.5718885971537,-103.881611935343,7.7736638173125,101.848466506371,-72.8432468303718,83.0635037401719,-44.2406334491137,11.7944588212592,145.455360452135,-100.943204245875,78.7592224472018,249.632004604922,246.076404223487,-96.9289971841737,-75.6257634273405,289.701933014413,356.58582599045,219.150042325307,-54.0583016722144,255.973467656759,415.973613564565,234.060868942734,352.804843340887,270.818821287849,150.371027252466,21.4819024037153,28.2566394932775,15.3159010513568,3.45359693485532,2.28629135473135,14.3929068279711,11.7444930567744,43.2713596309295,-18.1714425959663,44.4562320921421,53.3508335769811,35.3561023553183,35.6941709101768,49.4615574971729,40.1277623788266,45.3941876132087,44.1004538283774,33.7780512854584,59.703843073888
24.3344087734868,66.2827334863064,28.785131823758,54.0224762142279,76.1903876786967,28.2108205554679,38.7641850278871,67.1766974337848,28.5188058140891,56.3782977532526,79.7654951693988,1.16480488183193,39.2364504329876,65.1683750746291,-1.39581917058842,61.1439595344519,-14.4012725841627,46.7666069425473,96.8936068960908,19.6650650613141,93.9420794540723,-58.390248352484,47.3846886723709,168.918460428538,-29.5185246879632,144.371570498461,3.30291136906021,86.6224335216011,227.884961493341,-25.7857714166626,196.331027873686,385.673907161749,353.11536949366,-64.2650335567645,85.675411067209,385.676250601137,468.125470814007,280.565455683218,67.1814832762613,349.195038904927,513.872941453192,305.147775149531,461.985505691893,364.800306252828,207.752431076755,77.2146162170468,74.6761772451056,75.2291657459242,79.8529876352013,32.6398389374476,85.7795825947971,56.2976852712504,113.984819626454,56.5982880474591,60.0824318795551,69.1590158359801,116.799927427145,39.1748314376166,116.180687872215,82.582758261889,50.2769774933854,77.3280818185603,78.8850390068972,68.4612427473953
47.2512537785783,91.267536373383,52.9754069876308,76.5611969718195,99.1897228530888,52.7624406119247,61.0951868810761,92.5510101944542,56.4608169988871,75.7832652238751,96.672508545514,40.5929993681217,66.7750105504834,79.0246105639969,36.8969267517284,95.4737996539166,19.1916339117438,86.1249818091867,139.71314995196,64.1748517501864,135.84150254334,-10.9299273923114,100.59374770199,224.438216397452,29.6831080092593,205.573183766132,47.5535323835027,175.712696247932,340.920024718044,40.4763563828599,340.715633297495,525.646186232638,434.922321565129,-53.640761769695,135.902093159982,526.102070316014,566.53256573634,327.387799676524,122.220199970835,456.094219290094,606.503831906636,346.419670084676,556.440441280625,414.73592305286,264.78487592688,131.244981534823,138.366802100052,144.297619988798,160.631153738899,96.3133393067708,155.28526799294,108.141239744213,187.87054826008,148.113492314548,86.7781093475196,85.1079244170747,197.02662239656,69.3973835759262,187.141846121083,128.804902789498,71.2560540334077,126.016709866533,127.43191470057,83.5431524710009
59.4340211322359,100.137358192481,60.8556642795944,85.5133330395732,104.031424350002,65.4957014049939,71.0759119816186,100.190045921965,67.9627622195847,76.5203726508919,98.3993653652293,67.0593913323131,81.750151107859,66.7324645843434,68.9854735782632,120.294254613204,48.1508624809743,109.520236687006,158.326004145923,92.2912255196654,158.138153972614,20.3994231066505,138.907860037797,252.796005827054,79.5310103710708,242.729210289934,71.7467571008654,232.376039603274,446.440472741341,60.2385384052898,442.152110032518,618.000257702036,447.392034848545,-86.9571906285639,34.7510356269684,669.826990002917,598.372897829916,326.864639600026,63.6619454176791,529.278007876865,659.176684894097,333.946129738766,586.255840343441,401.041851844337,281.775882560956,150.343398391258,179.515354024786,168.140546745914,188.131743598498,168.858953806253,182.805513178865,131.407047414708,218.268591293616,196.205184738893,96.4442140195623,99.0793504405847,221.49725602688,118.211388150223,222.444352795167,141.466391392555,103.620356951794,208.253690928818,150.357473048535,111.385249491971
61.6144865803093,93.5376225804258,61.4416677417231,84.6652643988023,94.6023213847747,72.5605776062418,71.4100616073937,94.7633802642647,74.6477464824792,70.9064343780048,92.6995330746263,82.7380971401668,90.6179989864689,48.5932363023905,91.5071895229666,126.751704253746,75.9461504870604,119.27473809003,157.168853640503,105.099669865113,161.412996548792,41.8905159267829,149.747106072801,258.881404297865,91.418774085896,252.341097722137,61.5567041739383,227.3886802126,498.981595004308,16.8216502050629,450.160924684195,640.476680380464,396.08664572133,-172.618186243175,-145.389258452638,759.153327049879,548.383328542569,273.52562843381,-66.8820540637873,506.85683612797,651.929164137246,277.760443571812,529.76195416666,338.312446413021,242.984992021853,133.524043705773,173.856981976887,140.385889462833,164.123276034447,213.0085154563,172.944703432282,127.382012721326,200.414343952833,185.344664480674,94.1816022096603,116.625677352663,193.067778885278,173.795303070627,207.789026999789,118.692589618935,143.283973028057,321.845712365675,143.68800716867,161.348708344499
73.8113657065905,97.6542940180695,75.8034425810798,94.4928771979267,94.2805296945802,89.0735894536724,82.2108833230489,96.7623733544033,95.0826879627444,80.2035629387991,96.5765520576228,106.404430006581,109.244193561364,49.9249318231092,120.166975929004,134.622339217565,110.995878470605,138.528802452412,163.947865665926,123.208493037185,171.165252917639,70.2770111039836,157.465966473242,264.174136370553,84.2489422175017,255.817696287674,36.5102945599784,193.569432899219,482.595337172168,-52.6961856031668,369.096167702208,600.623129422942,326.661911048492,-244.542447469211,-251.033091079058,740.345602471556,445.853456891407,211.615321915187,-166.462988592676,409.145089146942,577.235382369039,216.508044992941,412.070853323173,242.650513393805,179.922739056691,118.474140708475,138.037332027281,118.850765525067,144.824867934301,205.544400220714,172.628699891982,115.670943397803,185.823215663786,164.388346311985,102.899277818006,124.461291711787,159.559967728969,210.673481897264,172.995465566538,94.0851087773915,173.388322186559,419.734294301155,127.483910755191,220.118616675729
94.10133544892,118.064503153262,99.0426096720374,117.118126988496,108.015522734148,111.237263698752,102.022652976845,108.602333340539,118.165168650936,97.6495920792253,105.534254376585,138.004370924245,132.572674402016,62.0092191511399,157.039416557353,156.130439493716,145.14529960909,170.800363737487,186.177941815723,156.560117711495,195.904134924218,104.449077728751,186.141648703302,275.234963974546,101.628590940183,270.068613744999,25.3332815347033,186.741998893934,410.709890977422,-84.6194321055957,256.792019226279,501.469386223459,232.143797887205,-214.437845028647,-191.205785297729,601.180852617785,312.428949995322,162.773223148612,-163.661078193424,311.221517567552,436.507726867152,159.947006097507,269.772571560744,103.704209803276,117.38313392164,125.957880694424,96.1530049397108,137.672781891585,147.234982907345,144.586890111453,193.68624846131,87.7829955178113,202.371436527615,156.146518778963,100.161333456517,90.5165934705424,132.397985345425,183.19704757634,144.125674101695,77.6622334399985,156.686491222769,419.505123287976,105.510874737697,236.191503367476
95.8454046776268,120.400830079579,100.229628079721,122.267959175615,106.738851659236,113.575341950657,100.437507850871,104.065589158513,114.912258299291,91.3715743760465,93.914173290458,151.302530051192,133.534585931847,51.8673542250134,174.259627465794,165.39912485155,154.759585651834,184.932295545027,192.137154771675,180.9528362784,209.008768217574,122.852175501602,212.322704019146,272.256678718752,137.824595428352,274.369062778864,32.282906566117,208.946246354328,312.91618545796,-57.6258291312574,179.141894442132,352.334723465871,80.0398489029036,-87.990131776851,-32.9773957468592,407.944348794792,156.20963033239,102.369939684861,-78.0396543721573,234.254176641277,263.925568094035,90.9963112753196,126.078814684307,-56.3057312797757,54.9639304721967,130.189985617053,56.8882560557823,152.147349975837,127.566854052019,56.5093403616349,186.731965322396,30.0688250548715,214.073561095033,122.429825314299,49.5622212102196,12.7537753039681,84.5188809565612,82.3058439428989,110.738362304995,45.925705208069,82.8201565816874,289.017136877779,66.2168882770902,170.716536172801
66.457095637408,81.7221882410053,65.8419402417883,89.7088338498795,68.2385355341122,81.006387041862,60.3938955988705,65.4762607434639,78.7880339055563,49.8989069197365,49.3117518308611,126.805484225844,96.9853292988633,3.58480430234147,151.638926314152,137.361699340017,129.383101730144,158.253091803092,157.064608169714,170.456758140724,186.096699056425,112.796199032132,198.80124827129,236.89109683133,147.242173572628,241.648040835825,49.4828408004616,224.08458871033,230.857946879303,10.6444959913514,166.399259316037,207.193147787886,-64.362840687005,59.1257106639417,116.84735444905,256.132565719276,21.5805851991675,28.8678851118982,33.813109851805,165.584609479637,125.554076971653,23.9245920896411,9.30613946392752,-155.264323323742,3.75526181210593,103.910350182221,31.8000323603055,111.440784687406,67.1822024176803,-12.5445676731499,123.42480646099,-24.4347329294368,185.893837615107,52.6240693392068,-18.5344371404521,-57.9629997363082,21.8747802792682,-19.5491401771916,64.2222027223812,-2.17557966043793,1.29257667088883,103.98745659338,18.3985590260011,55.9163520468698
23.9929704499927,26.8053923774088,20.0836685926018,41.8172356460483,12.5457909147333,35.0187985381499,7.67382588729607,13.4968790868195,34.8622009471677,-1.21511944804429,-8.19393198713205,80.1991523855054,45.9382146390527,-60.6778990167185,108.301137290388,89.8445852530808,91.0946252363809,112.871944916502,105.409097336715,138.156962680819,142.710996795642,89.1359894795721,158.712227641337,187.354296347964,126.232146734052,198.86295621037,70.4764326825016,230.181030059236,203.405450416143,103.439017206036,206.168712620445,140.924494630157,-83.7312225600744,180.613729007333,234.314159716972,189.126557859961,-21.7285258491522,-10.7765470143919,145.122330893337,132.483841484289,67.0422202553545,1.85142350836874,-42.3581830636597,-138.386094069051,-15.2597769863173,62.9754602057549,33.4115284011462,44.5361093823326,12.8543855832632,-38.0446757955373,53.3121080643965,-27.6461451158783,137.05798720712,7.22469573022041,-33.1350593237046,-71.1965244103159,-6.45824864030987,-41.4413238809095,30.5278100252629,-22.5964062449121,-29.4617225100503,-22.9663664582035,-5.72431696863036,-29.1724176318591
1.82167176876591,-1.71777412070066,-0.252965310010111,17.8775954235265,-18.8909997337171,13.2561783170746,-17.6011233783182,-13.8211883830865,13.6191481816669,-28.4811149356708,-42.9146929691975,50.0860645439286,19.9518559057946,-100.340047877572,81.784705119092,62.8916971492358,73.6742429817187,90.6560358052773,81.142997600491,119.447129854815,121.057326400441,76.6060294509187,137.152217536465,168.787457287828,113.902645384963,201.305772451633,82.8283020616012,250.542999057873,239.808293870038,198.695889493851,263.644955976967,168.726814142142,15.9726172860974,270.678037418945,329.396210826884,185.701301371634,29.0537724661602,11.5355993608581,247.219542794555,148.998400896949,73.9058116875559,33.0599117001951,-29.356334759385,-46.5166282936432,-2.32221803455179,40.9350072331931,47.6093048663261,17.0505702108948,9.30012336361678,-39.9013018977103,37.9602287984217,13.0046738312078,104.596418826878,30.2605015212978,17.3320858743956,-35.2363705179675,20.5550199645261,7.68635200717728,34.1789005339455,15.8632146971014,-1.70588333522786,-46.1866210735361,13.8699579867282,-33.1581245761686
17.2607616887563,11.1911060882238,16.9932032953384,32.0290836297152,-6.28873763189336,25.6522145892937,-5.9948668188687,-3.17644896355233,22.5175293869611,-21.4459539967757,-38.1221472982155,59.3845794822872,31.9084143885791,-95.5131779228676,90.1667925816016,73.6908353882916,88.0112233528812,106.485956993558,96.9887044424126,130.195305061841,140.543139849492,84.4236409224509,154.076422240289,201.504480730513,126.724465905238,256.822016705878,77.6556454057345,284.860833214734,314.970417301096,270.772703854915,314.88844856534,233.963157042932,116.843679299354,331.458750439618,390.416406887401,204.163812340871,97.5462283105614,64.5436777253821,327.524144906619,168.662351216024,101.550680191319,81.0941913773667,6.93279973438957,40.9600152273931,29.6121622766407,45.8045353619724,50.5880701323379,40.8067406372921,43.8296333517476,-45.5106467488243,68.051920112015,49.2068141280153,94.001169532298,85.5744350613563,73.603512588894,3.13631613513017,61.325359291153,59.8840986058692,59.6999689698747,82.2163981270962,52.3129602379615,0.741377845319145,61.1004888029656,36.0214939837487
51.8868194557338,45.6508376438884,49.9317421188919,65.3402593310057,31.7878673916516,49.8901285819346,19.6491126845399,23.9533198887103,45.9328993162989,2.67193856288648,-9.58986941622252,92.5484549468028,61.2429892955081,-63.5102221492969,118.956180662191,105.163028433428,115.767546358977,140.297311254456,131.673587238407,157.356685391023,176.505088919452,102.008234403199,191.109699360521,254.365541000435,146.024489889885,319.875705336845,63.7005067908615,314.041019319369,388.086796313202,314.550403317079,356.198629170764,279.063654902015,159.070354655587,364.971147437263,413.976293950414,218.030752755218,126.913946378508,104.461065477957,376.678098538746,162.194567504562,119.698075292841,114.878885915789,49.219320396646,89.388158852275,69.4207187043634,66.3357646768984,48.7752446988477,78.9051332187976,80.4234741449085,-49.027149216267,92.0820453943693,61.9436314031499,90.1554956899647,115.527650721534,93.1988190212246,22.304514920863,71.8450009560917,84.6862760507608,75.2958546365724,119.956117554682,98.9942303536807,63.7675445608618,97.040727001097,128.361912802324
74.0333509453408,73.7287908892809,70.8948736393904,91.0902927721017,62.3903046057716,64.5422092330284,34.453693885258,42.0311717570471,65.3948401806847,20.3152795900303,15.836949838908,113.429847201367,79.928707866334,-36.6762930220582,139.266643936667,128.491986915147,129.422632495306,162.018313211897,156.948150979415,175.30585701698,193.459596600053,110.385400289493,212.464783274061,277.477772045926,155.501249677536,341.474018433044,55.8367201853959,321.746848305438,419.353323484351,334.165439739571,378.027759575426,280.893551955216,175.64299672039,373.268517813647,415.053311566678,211.168395888266,122.539237352969,119.721437762892,388.920640139167,157.367606612192,113.330299470781,127.655190770028,101.379932746243,106.807598562253,97.4587596011795,93.2404042813192,63.4199690171339,103.501716581393,108.210330900992,-28.7814173076691,95.6510822005386,73.1880167357327,87.4920575347288,111.18160569985,93.2204164990649,38.3736492599216,62.1133770959306,98.0531325437332,73.7103027895679,113.553942533348,119.399268609869,110.979773004688,97.7685678180508,182.468540999891
68.8401291108312,77.6247091667631,68.6234652472447,93.5952436352871,67.4123374764664,61.9028214875538,28.1702865899703,40.787161573819,65.8826207966805,18.6586055549211,21.0201582485787,102.060060004406,71.8649189974149,-34.7230002231146,132.635050311496,123.4266540988,114.021179948719,150.333854744367,150.7390423826,162.112547206839,175.183560858321,95.8850218619735,192.50177877594,247.062778247433,157.247370238797,300.646596439867,55.1143594936347,291.655880912655,385.657570352109,322.146056901373,357.493732319444,235.872939615431,190.484223493632,357.681412823641,394.738830349231,169.336453913845,105.179277616695,116.280658699992,357.427236074997,162.963701115472,75.1059899307198,119.324907601037,132.005672753638,104.358190636585,93.5530498668563,110.029228503992,83.6766753328229,105.935319865941,123.363671604747,4.74987958686633,92.857789998505,89.6251034870039,80.6511863651101,92.7006000530634,93.069796112007,54.2654637032564,55.7724507472928,100.160115084452,64.1705968030908,87.5168864647147,106.111465951658,121.681340331492,72.791839123357,163.128720122917
43.387655557261,56.4300909113446,48.0132769525903,72.3573341103485,49.8246270653167,42.9130208173537,7.17123641968735,21.6855388240972,43.9376790622428,-1.20065588547213,6.1544958614902,70.8655964256092,43.2836095606245,-54.4040515694091,103.80659611903,91.8513077768083,79.0330666302816,107.815980344736,111.536623001501,120.807172406557,126.669940507776,67.2398021100353,139.989189453044,178.969360784473,155.864551086462,217.352365905349,52.9415190630347,220.757238734724,302.823173362821,277.486215082215,292.672612762375,165.71974815068,192.299350406121,323.409973760133,340.471096674341,106.999531793857,88.7274336119567,100.062215750654,288.112877938163,142.43449456114,24.8635225324884,95.3674045200614,104.206763537662,97.211400699936,59.4296344524263,98.4507595908278,78.7185110035735,85.7747386598448,109.403643718069,16.3646451378989,79.7133593597488,85.0467880249425,58.3395785722214,65.8770319915359,79.4848536340687,47.8452706186861,45.7928364975293,71.5400484243238,47.1351497571884,60.8923795308452,65.7818497940773,83.959498229213,43.8189355625471,92.6991558669227
24.3754125104793,37.573285805962,30.9018706049349,50.208352566734,34.4718007234244,24.5187922542612,-6.1421928310187,4.09083866989704,25.2684471669874,-18.9801783993008,-6.46967695944444,50.5332943535012,22.1680506080878,-69.1929816134368,79.748160785205,63.7852729040543,53.9175401492722,70.7120374628219,74.1839172084807,86.0483006350857,79.750048870424,55.5876158468281,97.3784451697548,116.082240139506,158.377327952885,145.198691835833,63.4674151122355,150.861855126208,226.286770465853,234.850407027675,223.802387621284,117.561116414128,190.809430153265,291.634499535893,269.52129082399,77.2717890491156,96.34428050669,83.1720482524968,218.593398981161,96.3594053075275,12.3711427094695,74.8684679249585,45.6862346599746,114.191536745198,18.0496653312097,73.370342761097,56.3604084562914,61.6963082457971,77.9304245939466,9.21135615118663,57.452406178213,61.8216065947321,33.7357906090944,39.232967942217,55.9641977364798,30.8656352176445,32.3260754993222,31.1854120250018,28.8895924715907,42.525608669283,29.6481203432566,31.5128951000328,29.0421930052496,38.2242545460469
29.0998187578664,45.154801630967,30.686791045119,47.8427369380978,40.5180388819843,20.8851723311978,-2.07757473952252,5.05128072766326,31.4588314841445,-19.1081092255443,-1.8315181712577,52.7429328956278,22.8645016402356,-61.8523013239582,76.8809754737081,58.4433240406931,53.9897913408399,67.7405394705794,67.3330120767829,81.6877049342282,66.8476743622586,72.0562834779117,93.5968829166317,86.877734914112,178.066587226514,117.191794423632,118.013732122487,135.188475481574,187.747667442612,236.904823035249,186.892312152994,105.698949192494,203.813604386919,286.670794390079,228.85664618626,98.9475642237505,132.545810108935,70.4428146361494,192.03960987901,67.4901940549612,46.3944774860089,66.1853741890358,7.20854053111448,157.8480097036,-13.1758359862202,63.970151462288,47.6026714350872,52.8231001408481,63.3298676526921,15.6256536451531,44.5333990221283,57.4254767588991,29.8960229166084,32.9687138148131,48.708478109321,39.2092842642063,33.5482200335883,21.2224601656283,23.7057639170706,37.3294031214799,24.3509746254971,14.9285030439849,33.0238224600706,34.8839754505503
34.0673903038758,55.2682895618172,28.6257388692673,47.298366775746,47.4474741687246,16.9260959470098,-3.55749019405855,8.08042616811113,38.3876759704667,-20.8236966369492,0.0895289860890385,54.6823691754699,23.4292183275682,-56.1202965206234,76.9792587039344,56.1702140524814,58.4293642738938,77.7632854748708,67.9365767788663,91.6320986197609,74.7472141008384,90.4379684836603,109.293234956475,74.6516879973727,212.349898870874,111.725392766979,207.868227345407,167.811872595375,142.329411582637,275.109637585541,163.873922874321,80.2988051717458,207.326422032238,302.144929688505,231.513402585628,99.7179083599023,145.862648179471,46.9580599239746,206.810829608834,42.942300339008,53.1964680133457,45.8617397641512,-20.79721746988,183.510492076664,-37.920423345325,62.205315058915,42.6678013774065,43.658671943796,59.4195714923014,26.591161861116,37.4781064016894,69.4118745121987,31.73166436111,37.1019767628703,49.3649471113796,55.4607788183104,40.0144431396378,31.4631962909852,21.6652131410542,32.2245791818665,31.2314387144857,21.777730783465,34.7591742325343,42.6109325118501
19.7032225021423,40.960708622326,15.9477823630427,31.071860588966,35.9054698780573,2.98789218142478,-20.561126970915,-2.49503895658689,24.6020171708665,-37.320419286886,-14.1381543199961,43.2467448279136,9.50323315870836,-68.9973609515915,67.6990855907002,46.6688533914817,51.7106706101114,74.9103823649702,52.4399645801405,100.258211908145,74.9756026367698,100.682030076573,118.607554839304,55.6970321902679,243.653240451985,102.471472530803,285.449563958127,204.207024192911,44.4753618025377,306.063232717922,123.296422638464,5.73362402862307,172.194259553945,314.736760624945,240.511911784516,13.6195036754253,86.6111219019217,7.82626926699835,223.078589394347,-25.0840952094519,-18.3746412839939,-2.09367115896264,-63.6556951828673,162.157839271157,-52.0267978464959,47.9422556933378,18.524534010936,15.3800695291729,38.2677803555684,16.1438712656871,20.5154170507334,61.34364446626,16.3955687049488,19.1572197134012,30.6182279686458,40.5186761955289,26.9401915455321,20.4757199571598,5.78273728683409,14.0201920421593,19.7494221460562,5.75121964985079,18.9762098368125,21.539360424283
15.1887672367017,26.0165416916244,17.2266305700869,21.5754227840734,28.1910117007492,1.82841630133862,-25.182494712247,-9.82079304793108,17.9955418909129,-42.6320808941024,-22.4922464910663,41.937551897052,3.54138880842461,-71.5125026176561,69.2780393570824,50.0765662272625,54.2910706218441,74.3129416399933,43.9651573387302,116.290142200804,72.2516750483804,127.368898250593,125.277257944323,36.5433989703143,264.531715001379,90.9966147515933,332.920207854197,217.569391633899,-70.895767422372,307.795822660379,62.8980015852529,-80.1763598563761,108.700924957585,318.993196409844,215.997513081285,-114.446379606587,-20.1467266044765,-27.2320310394491,204.633281500921,-115.972929305649,-112.541246547699,-56.4646551076703,-93.0590776507383,115.017443823996,-35.0267188398348,34.3531071125417,-4.52788597962445,-13.9515485567837,10.9209559960305,5.0679245335855,1.98236391142481,35.6340465825351,6.28575872254628,-18.8208546090834,2.44552768267574,14.5718423614451,-0.753317040942185,-6.2251003692363,-6.79088976105718,-8.99420756394881,-2.0334613100481,-26.3162978860271,2.65845958624737,-4.95515222433618
35.9819055264833,31.8405673874578,34.3122415020226,29.6154704371593,36.5156963691315,19.6434051487942,-9.68249288349469,-8.59584178116858,35.1429056105513,-30.2156476635954,-16.4697259147405,57.7564498691327,15.1419104134953,-55.592764375053,84.2927153444152,61.241028530786,71.9439558559002,82.8852792589124,52.3505849113248,131.369767462051,66.6386810407852,166.846350739291,122.043896090947,13.4361794169284,265.634509446209,57.5640271182387,366.029492450661,178.239145362842,-170.183648468901,268.44114060477,-33.6738623221199,-143.54051950654,29.8603798010475,306.228826367868,132.728467722145,-217.483886986894,-124.526697304142,-53.6576917751829,130.401588165536,-182.176286331492,-164.709197165705,-103.639322910243,-94.6573342167735,53.695121999269,-2.67163434907483,32.9931421432635,-5.63472796365511,-29.3040442973864,-0.721446686805398,15.6997951392989,-5.02646242910946,19.7367174154804,30.7148062095181,-47.3796651779368,-12.8441420634877,11.4969989330033,-23.8635229611479,-20.9009778933463,4.82019334512286,-29.3064855387887,-14.8086837161912,-40.8195869137,-2.12610537059245,-11.2717126228695
37.8180604158533,28.2068559702434,28.8238542177615,22.7420488215182,28.6395786319675,20.3394625865178,-11.7799574728395,-25.0190022380228,36.40799818634,-38.2172899305583,-26.3377401744432,52.1597282361963,10.4470770463598,-66.0530343899506,75.6060046501056,40.9421718835353,66.5355920223437,65.4352356621088,34.1196067996447,112.379381153945,27.124142487925,171.513412086909,76.4595429972251,-50.7496680683494,226.140010666497,-38.405046084599,377.658660524719,57.8275066210627,-291.245338503568,176.142918716124,-187.632730516226,-215.706625060419,-66.909528877673,252.963514525335,-3.28690905196355,-308.517475212639,-225.409436482116,-98.292742378292,8.71806494686542,-232.620990334258,-199.881202734426,-161.083628527332,-118.892375035669,-39.3924883303197,-8.36635935183814,21.1630661587774,-11.2975126311312,-50.4211929789371,-12.8783024479863,19.0878519590792,-11.3796596586965,7.66933619836958,66.150137223057,-61.2540077843356,-26.9715948682095,7.49154861652016,-39.5297903575063,-37.3190724473304,23.0495998847034,-51.3860891357827,-28.9171996721223,-52.96798793444,-6.92514600184319,-22.040449877768
2.35806482181226,-3.61801687095418,-5.17189775636597,-11.406723735034,-6.80166108584262,-8.62985799346069,-42.3346385581318,-58.9967349523411,2.95073195558012,-72.7654694123874,-61.5159702718353,13.649136182822,-24.5440277865713,-107.886928795725,34.9974708313896,-10.6380383718317,27.1943326765339,13.6914424678658,-25.9138500663866,62.7200800432304,-42.7857144951964,133.758286841495,-1.74898593125093,-151.980590187038,159.647616942727,-170.003351559534,359.137003450468,-90.5277550694739,-432.15551233437,76.2869369115685,-334.212415708728,-311.702614252025,-158.091613746239,184.223069799922,-110.793686958937,-395.911246420881,-324.150394866083,-164.362533075451,-88.3722171065715,-270.309011577402,-253.916523531746,-224.02289103645,-176.211700277261,-138.340101352242,-63.9880078173936,-7.73480548070518,-38.7593234184808,-76.8672232854688,-38.9013983722093,-2.33589503642549,-25.2559448715198,-14.831905413761,70.0334247208385,-68.4598845479322,-50.9229603055779,-21.092226683085,-39.8886629974683,-69.2128386628186,31.6609762991066,-63.5903024779842,-50.4129520902837,-88.9725035703573,-4.76373217731861,-50.8054898654702
-18.9195384178542,-26.2314291876527,-21.8960740310605,-35.5978735193897,-28.9522221767989,-24.5587189614002,-58.4457983673874,-73.8382896954157,-18.7742917709769,-87.0368012364529,-82.233197304155,-9.3411732337515,-47.6754135887935,-122.249670188437,7.23393637770428,-41.8530367654302,2.21128321750163,-23.4444699557607,-70.9636840254368,29.668875721941,-88.3830411584844,110.685793803418,-54.1350917540625,-219.28226848162,117.815484304215,-252.130619302202,346.660440150509,-162.844073360759,-497.381467697939,52.1094535032471,-370.390077052008,-374.50805336889,-206.684544948769,170.376827667773,-96.8746276594321,-418.958144504184,-377.196148451834,-211.762592354578,-74.8627415623236,-242.61862978788,-281.138382103074,-251.555476347684,-183.088441910179,-169.213948371123,-126.273031522422,-18.5408749842489,-53.3870642751007,-72.4731826795609,-51.2128837539503,-14.6565795542544,-28.1082010316491,-26.4978047445657,44.155457077696,-55.4101814540665,-60.3267380352846,-40.0551540931257,-7.62735463732464,-84.5103705935582,46.226217735909,-42.2821180598044,-52.2608849472773,-118.416551883592,25.0308586020335,-61.2527771957601
-4.54360580790918,-19.5243559019996,-6.9100002181316,-30.5254343726124,-22.8370289186199,-8.38565893236505,-45.3377723146708,-64.0487922716112,-6.28512196046041,-69.994627159997,-71.8188677584263,3.15433338144074,-37.7188614380704,-97.8071276043042,11.4958311762934,-36.3551057294957,14.6475115393754,-23.376993044506,-69.7978781976216,28.5501779407742,-90.8530032368723,124.37085664819,-63.9025736135613,-219.837648217775,113.67356357218,-260.890737855649,360.87923933109,-149.635298786136,-443.851673161807,102.135754420861,-307.383321587251,-361.219121534103,-220.889831764402,209.195449034268,6.1006786122345,-350.740171280003,-362.818152088391,-222.882393889361,27.1374009567348,-137.833647609964,-231.446622363217,-229.37468121457,-91.8677185442512,-113.818055323443,-159.930934736085,-0.115088373739527,-35.4332252898643,-39.6810592853207,-36.8248241838399,-2.77105892224081,-12.4410291547909,-12.5859762694132,14.1998983362397,-19.66399249575,-43.1451663150777,-27.1693063037202,35.3339338916497,-68.0196556781002,61.7349981966067,-2.7286419099683,-28.0777776601922,-108.487593806971,56.928778816208,-40.2704100394882
1.0608404282445,-18.4556987324241,0.882222964791231,-24.3541654520478,-26.572691134159,0.556449933612273,-39.3003835326769,-59.3276433581492,-0.79537010226219,-63.6423500468947,-65.8571408258868,9.58008230608263,-30.3010807015767,-87.3918517573968,16.1279172672845,-32.9010167264323,28.0554957518201,-20.7214023818575,-63.3676918131684,25.2916721737341,-87.1706478143796,129.170670676929,-69.5926440438496,-199.110199056671,108.201832224187,-244.691774897216,360.623729410799,-130.994063991344,-346.915100489388,139.615030597678,-241.642795657259,-302.91626268653,-235.669190241865,220.686255067994,78.786360047233,-252.218831841831,-318.891945335713,-219.705552269211,105.49780575802,-31.1249457254697,-151.421626129279,-186.890976222573,24.8487741978725,-44.2440904148444,-151.836733608623,9.12048378511438,-19.886076394034,-23.5375960866587,-27.5247671344157,2.68369619947632,-5.47987209769441,-1.53707254038728,-16.278872508239,1.80195866961659,-28.0056240111493,-16.692718045217,38.8773122781184,-58.1900839739788,41.5077434515955,6.96219452179935,-17.5862917410724,-89.1453112287329,41.84842220661,-31.7233804391589
-27.151852512417,-46.150249496617,-20.5132930384147,-40.8739918721364,-58.5774838296694,-22.1747207285224,-57.9421828892142,-70.3072697556973,-26.4131148711379,-83.065562114339,-83.9252004736327,-14.3950629669285,-46.7466851648965,-105.917776364994,-2.88528012359909,-55.5907931060177,13.2348159637548,-43.0496249910482,-84.0076731828865,-3.30990349355742,-101.920673743206,98.3168851803279,-94.9822824438993,-197.006659964017,75.4385084625954,-238.592196712406,308.962580999801,-142.418822986933,-282.215837639619,118.397210011686,-210.385496509869,-243.444412098091,-263.029826046328,175.70645595719,77.8851083480962,-182.267987356982,-280.366399693936,-216.887196899747,113.579699619657,20.5582569373088,-123.367231760441,-156.000780216334,78.1401672156538,-33.7699985859593,-108.747861197645,-18.7595126821124,-39.1286320909167,-44.0337463536866,-50.2892384709758,-19.5948140501711,-31.8358504242661,-22.1688234138465,-57.1762551865374,-23.4599564572053,-43.7945968418954,-37.9176056043501,-8.82865573070727,-85.8544940939631,-19.7440373518575,-30.4082539350686,-47.8991331812181,-108.860473686652,-21.9963044010675,-67.2411731591403
-66.1982339288691,-85.3541872108492,-51.3597458885619,-72.6748397032403,-95.8251277293203,-53.2415025011535,-80.7392961359683,-87.6001070935436,-57.5681389256446,-101.921757718445,-104.469510985343,-46.1823082428043,-68.4847054875597,-115.318141612549,-40.5340103516458,-92.8513393454726,-21.9060950962112,-84.7560823646027,-120.387182276642,-47.5594250489474,-133.214536128464,54.2804578040482,-135.614131790788,-214.123767482308,19.7711760713876,-248.747512108528,216.353696813265,-165.173426792858,-259.050948778908,59.7376893060151,-197.82027668516,-193.153825338622,-296.218307822568,115.699235292059,52.9587364098193,-144.726571595717,-247.826835914866,-218.051219612567,101.534573317328,39.2917159526568,-157.76227213477,-149.043817869533,67.1427823060991,-85.3710935541739,-69.1591543888198,-69.5169738941932,-81.9236878711745,-87.6811134576228,-96.0986417371527,-56.718320932053,-82.9329252435844,-62.6952296348799,-107.888692180182,-82.8699568982388,-87.4916400114596,-75.3249776098381,-76.8973972406683,-132.44311749574,-85.1047125856687,-88.3361423115834,-97.2635886663619,-170.291192060266,-95.3364065957302,-123.820326319419
-85.3639274699734,-110.941922907255,-64.4698756635537,-97.3946450136319,-114.257393737531,-64.0677297663478,-83.8845405691227,-99.4702699767364,-67.2584733445871,-98.8824369662308,-104.665279001469,-60.217873579307,-77.4540141046382,-91.5895141085354,-77.2818446234111,-121.837757389808,-54.8274007123635,-124.942331552573,-152.725249752577,-88.6868275225559,-171.453642941277,19.8615697647544,-176.956134628024,-239.756152186154,-44.1030191172701,-271.570123028301,113.291010346935,-194.46817756928,-260.468550676895,-7.00092714148575,-207.288512129745,-157.370553562031,-316.653830181949,70.5879661907376,45.0315224607478,-135.142137448911,-214.223612011032,-220.577136680196,109.272622993654,57.250317679268,-207.670020986147,-148.903997839199,47.5211846370677,-148.545317435066,-54.7438439877874,-106.730799282398,-109.56658878129,-124.688103301468,-130.181930666824,-76.2978251601311,-124.423545074851,-82.4781478818032,-149.606135991992,-129.499968032208,-119.973512298889,-88.1531841892384,-123.275435745988,-154.126940679297,-120.576458531069,-126.138747125747,-122.048612294491,-225.858643873261,-134.668690843589,-155.539407470464
-66.8358005805891,-101.73309729974,-47.6196360598416,-90.6244812125158,-99.132616945586,-45.9648674754743,-58.6457281812367,-84.703132150553,-48.6226333051093,-69.4423719308442,-77.8642183229822,-51.6425918366289,-65.4848984886031,-45.1239059129766,-87.1226359181155,-119.513424885832,-63.2468787592492,-137.025518764554,-159.782175973935,-110.405249174723,-187.74730256268,-4.97552333143186,-192.131917192288,-252.310753650984,-91.656002793929,-280.327920438921,26.2907703775942,-222.011074610922,-258.724818527243,-52.7345343598939,-222.974735958978,-140.3263433854,-290.997163644718,41.580659493265,65.1020658038295,-148.710318349812,-164.743815290724,-195.015555171075,138.738049250443,80.5506658758741,-232.17431674496,-113.403558538144,64.9463421642671,-164.481266138178,-34.8253732170921,-99.4024332239192,-89.6808467208332,-117.28466368689,-118.963555067276,-51.9791568944031,-123.014078155547,-52.2375524719425,-153.157712546039,-120.709372941432,-93.7650788101153,-45.7906664166338,-114.373934271566,-122.791659778775,-111.908759534722,-110.654762512393,-96.1873711900257,-221.399042934214,-111.272555817544,-136.3930938079
-14.520039903315,-47.2843344619412,-5.38649140780807,-42.4158552934545,-44.0840067925157,-6.53956821070749,-11.8780105246585,-29.0244880580381,-4.96423156862339,-17.9991646626335,-27.0864771683721,-26.4251132228391,-28.6040983971934,7.72481580098903,-59.6172624617964,-79.2780929606642,-42.4398502412755,-108.36433611357,-124.014866641652,-104.050749602262,-154.543411719982,-28.3858991075339,-166.280531206063,-227.791523801484,-102.900659089294,-241.704249965713,-33.9872070552433,-211.280840965973,-217.040273984901,-54.2559455969803,-183.541278549834,-117.148244155183,-201.069975792924,23.2279696253576,119.780791008614,-141.377313271729,-71.8230000265736,-108.258513230918,188.789951857451,134.378873590679,-203.206667840117,-19.361215849697,135.437894886131,-101.467124037737,21.5049636810472,-46.1568925292602,-28.0324636946901,-58.2941544337643,-61.5387462897429,11.2829892414902,-75.7770937834202,17.2259196467416,-108.036732020775,-56.7958090527523,-12.9645328481286,37.6933349186372,-54.8543861062908,-49.2189203201618,-61.7801624555572,-43.6237895312668,-29.7939407623319,-148.593676091888,-37.2029984781102,-73.4505744098112
38.2806105703744,24.4373163051229,37.5517129320154,18.414344782237,22.94682979395,28.3755736235141,32.1561232600617,37.3423644967176,39.6663433557919,31.2447411508158,28.229816712009,0.165720574268392,13.9313801288615,53.6132853145616,-24.3682095240646,-29.7149972283257,-20.3761771059438,-66.1154462572269,-68.8082064497542,-87.6109572978786,-99.4508873521797,-57.0563055964444,-129.272250660508,-178.677287730758,-96.4214978267273,-175.016209939885,-84.5112654379733,-160.726126058214,-142.003586592478,-51.4269329849606,-84.1961345045704,-72.3787266542754,-90.5457752237748,-15.374747557248,150.318574672752,-87.172344373592,49.7976780637305,7.25134241244789,200.819690634234,214.42104190139,-122.736459866846,86.6812675938565,217.509156602226,20.5327807623251,90.5524343741172,16.4155072462236,31.7402326935419,7.24717546115125,5.55842245928361,72.7122900237301,-17.8391042079917,81.430086125779,-46.9823253398857,14.6121375044135,55.991591869821,103.09007596844,8.22655445554337,19.8887200873557,-1.18202449486405,27.6560952956073,34.3724826658621,-58.4881125937384,33.6759601466418,-3.73481622606413
57.5088734070264,60.8321054936398,51.6178850925701,46.3828699476132,53.3900364050939,32.2572928494425,46.828478060996,62.9921816022598,51.2968206392214,46.8231374213424,58.557251306374,7.5657997773461,28.8394957632576,76.5558228399176,-19.0704702215072,-9.0987329214603,-26.0557112393966,-49.9495578583822,-43.6797385426909,-89.1486104206833,-77.924211719275,-91.9672929081028,-118.756931976325,-141.912997345066,-112.430316689558,-137.679764175006,-153.247709803002,-132.785848986367,-92.1080914418705,-128.206228075262,-21.8442764174947,-42.3585022573,-45.001785049599,-126.874096132801,32.4794525943683,-44.805390441714,120.705765253345,62.8600243304582,66.5413549467856,203.212895215403,-54.0919782274504,117.760316955023,207.426297678152,147.213430863905,114.268945373257,45.4870015998762,56.0300249032599,35.5437791147365,45.2141639933313,88.254736610188,12.8577266260928,102.507748876352,-13.7822163468939,50.7376457171691,64.8964135092023,104.869848426426,38.8214240199137,39.8231757483538,31.6063268453704,59.307655505033,52.2110481320208,-10.3870544560891,59.367510843059,26.1912584417211
46.6335657388502,50.5736726396002,38.1917771233803,37.1572927140941,44.2419369848172,13.215648563914,35.9441387396265,45.052688524087,34.4534690078832,34.865460882634,59.8985477785108,-3.65168524159173,15.2725866290168,75.1584685840727,-33.9915775042116,-15.9195671437622,-46.3837718752942,-54.9459281698263,-50.9982549496332,-100.519372753416,-89.1004962919635,-121.652641268789,-123.713920599356,-121.203338059995,-151.310164834359,-134.689244959131,-239.525267489235,-163.370863780804,-92.5027027039952,-286.262020904185,-60.1350200657518,-52.6732213363725,-83.4475707295584,-313.921018593087,-227.889253881665,-71.3398334744434,100.782596511861,34.3451801891172,-187.529586288895,0.61724213178033,-59.5767249792528,61.119630634363,41.4443546606051,235.001557005631,71.1903362315973,39.256120975557,55.7016556091228,36.0806317178759,58.0267874427746,63.3253643968399,18.6143641453775,87.4908644017906,-6.28392207832625,60.4554805490061,41.3449556314399,63.7036418354628,49.1986478251976,17.7543510754704,39.1325233398612,59.7864950778911,23.1760490074598,-9.93564010283497,52.9492088124636,6.58867282608025
32.107807866856,31.8316767623402,23.4486081603018,23.6976151578479,36.926837748036,-0.435263254246047,24.9578919510631,25.6278867561393,22.7128425100436,28.7134393342813,57.9415707018698,-14.1094837083693,3.53749355811749,68.5707504975853,-35.5389550120101,-17.092556594449,-52.5015701050678,-49.971592926346,-48.7302051424179,-97.2816743335929,-87.5548135707553,-136.158588035089,-113.835664459459,-93.9260915148309,-175.290409034993,-122.069794606802,-313.546556274412,-207.491028808397,-108.527784871531,-422.568565304323,-144.436010808994,-68.6095633005048,-121.523240387751,-508.298397566573,-442.055449518756,-129.534590971868,58.2483643513212,-4.80292325110971,-385.971601066682,-307.915141568996,-108.786733583303,0.134830641758452,-217.958101901801,253.688238541695,-0.790393890227311,23.0398523462824,55.5255329005014,33.8745989386543,63.5434443886994,49.2458998330247,22.4162789971583,69.2854163956758,3.74732896073427,71.0117343799479,32.2657476144298,31.7586419401245,63.6206542712553,2.50810244085303,46.0495556025055,58.4948421191987,-9.95915870500249,-13.6857299759151,48.545768005412,-22.1805552364617
32.3169715663218,35.4182436449377,22.5929267036984,30.5313358269522,54.4107477508811,1.21390727620599,29.2517374589335,35.1601696724583,30.0945999465656,42.9601439037378,75.7146771550313,-11.7089139083437,15.0065999768093,80.919978106486,-18.2727382980337,4.85895726522694,-40.8860662159048,-27.5230681710626,-17.7243851243705,-78.5591279455508,-55.204693502845,-135.851935845631,-85.930876500673,-55.8577679070499,-163.422136101669,-87.3914628023153,-349.389962880914,-206.33736553741,-108.236729258901,-453.821089164917,-196.96939188591,-45.7285564369601,-81.6871405043066,-654.636841902914,-486.229947736195,-129.403062865032,71.7557475776755,5.88650302833804,-451.855303954822,-528.986002322141,-104.171176175296,-0.371747337661141,-425.847690904623,179.906826420568,-46.2902579334412,5.05520111247201,65.0795463479676,27.1644850000386,66.8866294062945,83.8542449292222,26.8714299323016,68.535080608074,17.0497274124173,87.6218286622214,45.8281771061619,37.666286627534,78.6166214361823,32.159531829384,52.563907470375,62.8162964747018,-3.20251651915776,32.1519366427981,55.0517285615629,-9.80962875009362
50.5199426138449,62.8659045772378,34.4029196411219,58.4981916739679,87.9529663299458,13.2706341207509,52.8144307250918,74.3132806731158,50.7051496175097,74.3294174835772,116.878198377077,4.83009286663479,47.404133311802,123.757215184915,5.34034967802941,40.0167137497088,-21.7467544121423,4.36143962536042,28.7939453967082,-50.5279265424312,-9.4872428107119,-119.90294421454,-49.7266131867469,-15.9180517192321,-124.827024076123,-50.6030230936895,-337.334437340538,-153.334691829253,-82.3499184200218,-386.551309816682,-193.709382528404,23.648757184965,21.581469708415,-757.297217801856,-422.521080011309,-33.4460859185603,131.162440651872,57.0578054055639,-466.544901342487,-549.591039793593,-2.11564941344043,48.4358858351699,-466.892780961832,47.961253989669,-36.6360565776874,-12.4981218914592,86.2488307428562,17.8833501296122,71.2378038934797,156.58660201136,28.9231959187888,92.1445765012117,20.5157967884657,109.077456388941,74.612704232492,82.1869085470053,80.4250359600807,107.114081461709,48.6663841401731,69.7505158164445,53.334093095324,151.903833791113,65.651455489498,58.8912071694335
75.832169397488,100.287944104444,53.9884661499674,91.0304486341812,122.374651887707,31.4172949866567,88.9248189205598,121.866681518234,75.5919554995085,115.270837298124,165.667816493745,28.2297703080572,81.0532106601263,179.35893133696,28.8789396073542,69.7417120910251,-2.53180569177345,37.4865502474395,74.0466115161439,-14.1363376082911,29.1153741456296,-90.7702190612768,-13.7612283552349,20.1334462083745,-75.4010286810156,-19.3233801120011,-281.383328132496,-85.2410952477636,-32.1530433384343,-276.573736308792,-139.318936128393,105.957061695711,123.958043127495,-810.473933888226,-340.993022066578,70.5319157185194,167.642625245275,113.208560447291,-476.408575079492,-427.105866432942,110.919667005184,95.1790930844042,-369.068657853895,-44.5745418397035,8.63291831378607,-11.7264100234844,110.55060179266,29.8091781189335,88.5239515026978,217.737024494345,41.9297312674844,130.157543632689,20.5360629929155,135.760797318538,114.683697156195,138.497510435419,72.4416187613818,184.235707739532,38.5817668121985,76.8396714900744,122.66054112489,294.039433408451,73.7090451566399,146.799977493593
92.6788643224386,127.341520732373,74.1089793831651,111.614913360201,146.467801148914,47.5310397042994,117.060499590149,151.627168088684,93.9109591908511,148.551383009135,196.926716234228,46.062132846815,98.4188162331066,217.59569395178,48.624803237945,83.10907471857,13.71502826585,59.729196161269,104.477064905478,20.1809087778332,53.1225541417419,-59.244185820027,9.62725018020467,43.4074923017377,-30.2762537313953,4.26022121495168,-205.129993844212,-46.7030478474188,11.5660673801345,-182.740779246,-66.1999303846005,128.99778319067,176.714868759629,-764.991935626532,-268.720894773997,51.9392820425593,113.686444064996,146.358129008952,-456.977235488444,-320.275039344159,89.343130331269,80.4399783665599,-298.571321759198,-59.5513603423073,33.8607473953213,13.0992756227618,117.649659681108,67.751647296424,116.242245086374,220.696819473198,68.5900559002231,148.381205934282,30.5221753286681,152.531843183363,146.006106586182,157.00808055046,60.919469362484,202.769211180322,26.2421709107214,74.0982710711908,150.167211419787,356.102737687833,67.8306146227523,193.793539446634
92.3521574577051,128.508251979576,81.1958779664418,115.672154944898,151.381329965091,51.594327026397,120.50183949101,153.795711068594,97.9435850618599,157.372738902233,198.218291704921,51.6444918973388,99.7510023250071,230.566796199177,58.0362737921515,80.3009360681426,27.060566047507,63.3254602159227,110.613285949004,34.0062477562545,62.8290631477222,-33.5902202417717,12.0202176974036,48.0198315907024,-8.83158024437099,3.5860360798527,-144.643844125891,-63.9860792029495,4.11379874883867,-148.640877674514,-43.269837882218,38.1798708845888,161.38387050614,-619.958990223477,-234.031476436811,-79.332224969416,-48.8870175180714,144.364204491316,-434.856893408748,-319.909935789626,-106.299318143985,-8.87092550159367,-364.732670083217,-76.3295492562852,-14.557220608545,33.2835992207464,97.9569438222719,95.1428221309894,126.155246771574,169.581806738435,80.4493171662481,120.765397405658,43.8657410675186,134.117872140906,135.991726540939,113.877114507189,36.5471400939383,147.550956812428,4.25850613416821,53.4222827613822,117.959767166967,291.568533040176,41.0632859256668,169.180970689847
82.5298817526593,110.112559447539,72.5314571001398,107.070396772709,137.384694318427,48.2225909633067,109.913674192955,140.441714664507,94.6085722088939,149.978915857075,184.842326911,51.614219028895,96.1606568679914,234.009923785556,57.872519128223,74.7047212482562,38.9453535240207,59.0000813270773,102.999319117005,30.3314475142675,64.5343655994909,-8.32739403732576,5.91138521340827,49.8297634799087,-10.7581603272507,-21.1492070795986,-107.533568946032,-113.526175765108,-41.8545504719468,-165.860065882908,-97.0212903537883,-113.245492453944,96.0765576152667,-444.077431679825,-247.940404756409,-193.772090420801,-230.303289946561,126.505156822131,-439.026168707647,-373.714520277316,-352.291959100877,-88.5614105083629,-493.772069732356,-156.298419932744,-123.079684591369,25.7508993490147,75.2188532697008,84.0069489520116,103.606005116017,118.151108807148,62.2346886657714,73.8372738953308,46.3532312358724,85.8926063334612,90.1501251401253,54.7021865707135,6.37810399598641,78.3294036004683,-22.6195045796756,31.4944421708829,64.753624541767,162.855725997922,13.2912171196885,99.5732771969382
77.2162934920522,90.2747764521138,62.3809609731998,91.1803249013573,114.412614548361,46.3368139562323,106.657024280978,123.840121469145,93.8223505652535,144.361454521595,176.848201332122,53.1955022154261,93.0491588455592,238.153156969803,57.7558903413151,79.5515173797544,50.6569507315947,63.2719027027856,104.303789570185,35.3657628867581,67.3094955927587,27.2399441245807,13.5092946392175,67.0076643172656,-4.48559833429474,-37.5810018686457,-66.6153299202842,-139.845820449151,-71.3450502543399,-167.778360479404,-172.090947949177,-216.332946438079,17.7021737926374,-281.974808929533,-248.344308678059,-251.665818371522,-294.492275627865,119.729240965103,-413.010568530676,-393.502662326141,-509.130699118209,-68.8058074730024,-582.509106558658,-258.118573436699,-189.016194803448,5.58080245615576,77.7243640422373,52.9655850412848,72.9872199850831,99.7763856151768,38.6488911361652,56.4291957719557,38.8067971949088,51.0138422952536,61.4064087986786,38.3206295276754,0.417987596387198,59.3942765321554,-33.6482900803099,34.1405097549466,39.352699617576,61.8784076036511,11.4841539442886,40.2217092445629
62.9601479568832,62.5550148507649,46.5061600610838,61.5864258392518,78.4516718219571,31.7564028812101,96.5579293693883,89.7654088335684,81.3281051308168,126.75157704018,158.352078489745,40.5647807389415,77.0995845693811,224.128077266963,50.6450714031853,74.0134149152303,51.047128547274,62.1213298880794,102.703876068919,46.597104660199,60.584759966399,58.8425439198238,26.215713540868,76.2866437275067,21.9976531825295,-38.3445299267667,-16.8814635366627,-131.980069154953,-90.627145700528,-118.019015724454,-219.639719261931,-267.981983744845,-74.1512164991871,-138.595548207814,-196.63578456387,-316.06361890798,-240.983375523594,96.4070743162382,-324.925737533223,-363.561756823722,-549.713946543035,1.65252259752474,-637.281933887489,-325.342513203549,-143.03173335015,-15.9855291245513,75.4329452101864,19.0541788172589,44.2751450720062,71.7304814479436,18.4230232146942,53.4212137519437,13.1919993152272,43.1180644258887,63.1704323410682,38.7506273855973,9.9439704211422,66.485898158962,-36.2977749707969,47.3370991662144,34.9799467169405,2.08754095610064,18.2122218357266,9.64882026551846
12.9360511286397,5.03755187037314,2.00959199296262,6.73100290807115,13.6878762138966,-12.4596423432207,48.3606539492819,22.7000701656422,38.2204131514946,72.8092903228688,99.7206506761962,-5.68113847032208,31.3812935619217,171.611427835702,15.3380725634491,26.3300742702688,22.754633364403,24.4563945561151,60.7279588468035,30.2732639399391,24.287773251839,55.8432048975438,15.2854691730776,39.4336636927749,45.0772703608744,-55.2004267203658,18.589044984887,-118.249029566441,-148.992063069137,-56.4788658651262,-235.869962590398,-349.599962744691,-196.621822478082,-25.4846266765977,-147.236726151447,-384.708582211418,-205.275616387199,13.0880331762282,-230.13905310187,-303.297372914729,-502.728711590898,6.62213269578695,-677.941703429684,-341.455524368965,-28.5045747692025,-57.3079059789027,11.3076412036313,-30.4471908342771,-8.58593665252952,-19.8764549437715,-26.6546098001559,1.72084600075245,-52.814791960404,20.7668699204383,37.428205399688,-14.4651064403387,-11.9682102078762,28.1687885462715,-67.1690820483379,28.2054846557075,6.60122416738725,-59.9940779762957,-7.38542814630956,-17.3156283362736
-62.9729726658187,-74.3836526468282,-67.3522310980024,-65.0165645166466,-70.6362813132682,-71.0506474879997,-24.6645826625762,-55.7679001248512,-24.25808310131,-1.73765890478548,12.5703859452313,-71.1924751427702,-36.1673066712699,99.5891281206764,-44.8207659096775,-50.0092679749529,-29.2549056283743,-42.9715727905483,-17.4944559649518,-17.3871321109403,-34.6288111444973,18.6441253366928,-18.2856063025602,-31.8350814226429,50.9823639568894,-92.5332967019574,36.0506417296848,-102.827047216795,-226.579562802556,-29.3340156821527,-219.185501306433,-444.545695475588,-296.675296059995,37.2921721480538,-147.086104822636,-406.207148030052,-232.332716658751,-75.5909517721342,-174.143110053404,-220.028103281742,-391.916343764072,-40.8705468433959,-670.455099689412,-309.775856793146,111.019916417408,-120.050798146323,-100.559396516984,-92.3548449875639,-84.827505758045,-147.258567532953,-101.992382700019,-101.297901923822,-146.304716017126,-43.3976796888268,-45.5605241709051,-118.36913907516,-77.0459171743799,-60.4884285823567,-132.948714635136,-33.5362786029189,-55.7055681450922,-129.308855671545,-65.0354003570561,-54.4672471760571
-121.780908183174,-138.132325846884,-123.981168693443,-124.311793318363,-136.557222342497,-108.390797746854,-74.7760934864057,-107.341378801531,-75.7032862014731,-56.268584869558,-57.758603066794,-119.484294369087,-93.8048353271004,47.132515913323,-94.8022433170436,-110.673250291851,-73.628106290821,-95.2111828562884,-80.7067389455912,-59.4020031761451,-83.0802173332806,-14.4340137722161,-43.8909522201842,-83.3506647547818,50.1417412832102,-105.200353836819,52.6537744268642,-70.2593080707626,-242.122476058078,-32.6144944608519,-163.391685702106,-422.749247299668,-272.942789691244,51.0028523683057,-159.800369543381,-380.524808610727,-204.981292007252,-51.87754874501,-150.406071768133,-127.970090823774,-238.962453474957,-13.287984730537,-588.655244607362,-234.542049727465,287.406220525802,-164.801014447625,-180.98033254146,-133.087820455503,-139.660112528571,-230.780557171087,-165.225691050488,-186.520186188614,-211.485495786962,-117.83668116939,-130.450378637775,-201.13833815167,-143.438580794721,-137.094331409918,-195.241473848877,-103.24301458084,-116.797091676849,-171.855579729346,-118.651003738755,-90.7115929276486
-134.551526533106,-158.801753588535,-136.25136814221,-145.086984291567,-158.858734894721,-105.387644288294,-80.818825923861,-115.918871225236,-92.7254198626422,-72.3572448192395,-80.8954698003008,-129.633427812379,-112.265648743414,31.7370319411411,-104.441731676229,-129.437357343129,-80.6055945027228,-100.034450970239,-92.6324727141992,-63.8738531339811,-89.4557231549893,-11.2036208228538,-35.3184367697232,-78.4289321576126,59.7678691799519,-58.300095191796,84.3681955839085,-11.9621007668588,-160.656563705827,-23.0665679566093,-71.2988600751041,-235.683869815108,-115.153196477643,62.7080515775209,-118.606823309901,-298.032366355,-54.2434989792181,97.2378949458336,-121.465912287076,-34.6805634674284,-48.6456924435116,133.890467526586,-433.859437831537,-102.103461159645,470.37807776434,-158.74753165759,-187.84385542411,-133.72501465413,-144.389615479187,-236.207038979993,-176.559809015243,-210.36854831772,-215.067842502542,-153.550971876222,-159.156414682879,-220.596792532919,-167.069555683932,-163.477909850101,-216.969581729177,-142.689568192707,-149.662681088266,-184.320255204425,-142.69750235844,-123.06013344611
-121.73103043639,-152.098235350682,-120.370056154827,-138.978035499631,-159.233054636713,-85.5895997268322,-71.7330015596127,-104.010304808112,-84.2634657456899,-70.6166790516718,-76.4297110678161,-118.274027406666,-101.143196598634,34.0086812361806,-89.9733061809231,-122.338167221667,-62.1410248493952,-76.5241524248084,-77.5709722672551,-45.0896754267681,-62.4211829496743,11.041415018129,-3.21440012885587,-38.772449998312,75.0031779377822,12.9386681605682,122.24461812594,56.986977972524,-45.4626485762589,21.5791605768386,28.0218908890812,-19.1511087481832,43.3528741682556,116.085374352562,-14.7333268247549,-139.73758219952,112.587780757676,238.763706419409,-48.8467472995826,57.9223005785643,152.078244434412,288.69089828007,-224.601771477454,78.4554366034367,561.919341301786,-128.233144878142,-167.420248587499,-121.357589002056,-129.708664251336,-212.537132854033,-155.275866206092,-207.847268944667,-193.685497964527,-151.222409287211,-157.645295534761,-214.774654736814,-157.945561387624,-173.270310273083,-205.979454382527,-153.011068143722,-171.716271861681,-205.786644595479,-147.817924247418,-166.778927354583
-124.459468870026,-157.47575782274,-118.155181346974,-143.370326968591,-173.909562839118,-85.5543107785148,-82.6585710929391,-108.015275850672,-84.732865784614,-80.223909239738,-88.1324858548269,-116.687409213669,-100.583666539971,21.7142791573079,-93.0528337593427,-124.989444279773,-59.5836818106789,-70.2383075664043,-85.3380004644906,-45.3185632626702,-49.110218254535,9.76735899631794,8.51727239013351,-17.5292952319627,66.2379165763656,42.5449814964748,125.789180426349,97.1693822262258,17.6992865055646,63.4803209702496,89.853362541561,79.4010963077844,81.1739297363166,183.53190427706,95.3816615569632,32.4152251652052,177.315581976459,256.548234225647,57.2619147124108,131.397799426285,286.165052171863,326.68693559021,-6.87612774805726,225.761070393397,511.638006862207,-123.15059370877,-178.817687784567,-128.834142927064,-142.945652378249,-221.51581309417,-150.398109561891,-226.768316063286,-195.043974016918,-151.886315907465,-181.229259994636,-236.774779543057,-158.703922583151,-207.726610401267,-196.962799051667,-163.103948555146,-207.466582638817,-249.99026046724,-158.989396497753,-221.179968727597
-140.966117076527,-177.737656726196,-132.395684085312,-161.620990674862,-196.111857685951,-99.5085511661439,-105.140714294922,-129.190970266382,-103.308234380342,-97.382672559213,-118.074158771626,-126.585568940153,-119.97321991765,-6.35363004437568,-114.618271851758,-140.983370886331,-77.9047408753392,-90.5838815829211,-117.468335006424,-73.3047834875695,-67.5764160314214,-17.189840405015,-19.7409212783269,-29.8993833333195,28.9995602091926,23.8642522816485,72.5115289972016,88.1441282907533,24.6004795276625,63.4694962450932,108.365889738494,82.1953959582174,33.0156543649027,212.041714382751,158.574486682816,154.627938001153,164.62700572919,178.388325230335,145.425031344981,184.785689993519,319.342605741434,252.849414421304,160.861866565848,256.922388816728,381.220065609696,-139.008660941114,-207.585600697796,-143.48366712623,-175.05635606391,-250.866278161996,-162.323164755486,-252.085126283396,-201.3719134752,-164.180874504124,-214.990047451049,-267.805276523246,-170.951053062269,-239.6936147028,-195.081214460615,-175.725434082312,-236.756209833452,-274.167741305606,-170.168845753069,-251.535555280374
-141.337078420624,-180.209344851685,-136.022816582753,-166.343938518457,-196.142173285301,-99.0186804148249,-111.445819153333,-139.119837651734,-115.546346246952,-101.284880264682,-132.705633212873,-129.01476898381,-132.944092822481,-24.3216609553081,-125.200854788191,-148.739332588012,-89.2850819800106,-111.952035310286,-135.720459735146,-104.482409486836,-90.1436214359589,-41.3091176904583,-63.1025623885335,-47.7364375407373,-12.0460944830962,-4.62747677891704,-12.4301764245347,41.208799495655,26.68617192771,29.9877457216278,106.094190347684,85.6656729054613,-0.435099867016532,196.280959664782,155.463202934339,239.769133853895,148.729272024678,96.3395851375965,180.7880379668,229.27162809013,304.736739241176,153.851141545678,247.226304073629,180.100250101688,251.900682324709,-137.941929783892,-209.910860019915,-140.84480781684,-183.890523219787,-248.114602856033,-158.55662951112,-245.459828815952,-179.856669077419,-161.101379074619,-211.291931425008,-257.919977267974,-167.628754102597,-226.716623053695,-180.002084120768,-171.57270131196,-230.384762186127,-250.921903819016,-160.581950248454,-235.994886491696
-119.505558192628,-152.42370703484,-120.006800768145,-147.587546102382,-167.79775584038,-81.0775797535476,-95.7220196987138,-122.633341949032,-102.836653150222,-86.0274433097413,-115.560694704363,-118.553052532254,-123.290249459262,-15.3395723973682,-119.959621452223,-140.635252772263,-87.7153083541848,-118.475618570859,-123.771529127828,-123.644077988877,-94.7160220489029,-56.5469857428422,-96.0419637887805,-49.9970109825956,-48.2771144722953,-26.5289437192297,-88.684494840142,-26.3220063597905,45.0886513705209,-14.5247060838662,83.963495222497,108.958717781185,14.2717819695674,164.072773589153,96.8910952466514,289.945636227374,146.366886910928,54.9866076936235,172.234108639361,250.575086875286,294.273457419254,87.9573796898194,272.027537555591,71.3723233549515,144.89843244099,-116.290892555859,-182.864330048021,-125.270805758705,-161.916679069726,-201.799197423952,-137.894952548625,-207.005745065702,-146.73549870528,-135.758282207862,-173.098383262007,-207.913608979238,-147.953817761121,-183.067915966696,-148.276983486644,-149.745688495946,-197.223258119035,-206.206264577152,-134.201423088667,-194.470211291194
-85.2166081511559,-109.533476505289,-90.1450873596161,-112.367961879455,-120.853045571717,-58.0157757078402,-64.5761341840234,-86.2358989092601,-71.3344872392479,-54.1008094836194,-72.9396840086699,-99.9363578599871,-93.0776921513324,17.9999683079531,-108.448165242979,-119.554373073494,-82.4600349685157,-108.975390135252,-94.685099387206,-128.439530228928,-81.9605262167619,-73.2850118874235,-112.181251067368,-37.0874255327159,-84.1121415867788,-41.213758244305,-135.397935797835,-88.3418775677381,67.9540189983417,-57.7801655686883,46.3262152729664,127.151709578304,52.9821014104772,134.304091872472,29.1082288748994,277.591806034388,150.576311264921,52.2061406324383,156.536027602759,243.124231179183,278.034008235521,64.5429659007551,276.031386309518,-8.57393090870968,57.7788708576071,-90.7046517810146,-142.954039332206,-103.915249063504,-126.873639464612,-136.87204732019,-116.648104111646,-154.981525527267,-119.527142724655,-108.69120181064,-132.115225043444,-149.500838582319,-125.002322042836,-137.064052290089,-109.420437015847,-120.451155798241,-156.543649362012,-160.499152639749,-103.683229876642,-148.772709802799
-45.398326050325,-67.3057653258412,-52.4019647599328,-68.6558397608052,-67.4791463944314,-35.0509190045004,-25.6754333619213,-42.4770713887377,-40.2785504402544,-13.0524812517576,-20.8792708691756,-74.5768207831948,-53.1886613225854,59.3517863629982,-88.8889546841172,-90.6705915863078,-72.8072781020518,-86.0566623941045,-63.7531440979974,-120.830885462429,-61.1441712702687,-90.9476868216811,-111.201390255627,-13.4546597222421,-114.112520347341,-41.9218050881773,-161.065131743619,-115.082089996157,83.2624528693777,-90.2885380123884,23.4869596509454,135.245915466898,82.3621252618377,109.580709095825,-3.86762345189224,226.824497880143,155.226566540512,61.2098167340636,158.128114089371,228.963928893856,233.007862172583,61.7968509804808,279.481036175673,-47.9484980495992,-10.4830647557623,-62.5156307344468,-95.2900125679206,-73.6850213166559,-87.2129628929476,-73.0828687957918,-91.5396867971218,-98.2307821373036,-79.99155289869,-90.7751965437028,-98.4294600362869,-96.1472240208618,-101.904126634291,-89.4389458192259,-66.2915847051119,-89.5370821972435,-113.350352276172,-105.11978690918,-71.1859842738385,-100.307965415212
-11.6719587746686,-36.4586291602605,-17.7042327527081,-31.5416151482556,-25.1810572598457,-15.6896868355769,6.23381982833568,-3.40150659777177,-20.5003773540956,19.9966331340623,17.9136261541821,-46.5216364902546,-22.9271220380115,88.7771699630451,-65.8997036208987,-66.2722175398725,-61.6617254468592,-62.0313934531741,-42.0357906858698,-109.572897212377,-45.7251031194449,-102.865112154776,-102.084232601289,12.2663895358529,-131.977369491618,-35.1137379425477,-183.905641132912,-105.217150720162,82.4750740298463,-107.779082992623,25.2166932454544,124.315258772974,75.4324774711151,90.0390939268876,-11.5879508255811,191.552541441264,136.059886759696,37.8892274926583,168.990950667347,215.973964024056,176.845932923486,39.6698676541099,293.837774140597,-58.9252545990143,-79.717486670135,-33.1405809755577,-49.3921330376933,-42.6885909488226,-50.869704098987,-24.2541742272008,-56.318823168392,-50.4747784376917,-20.4292908567199,-70.0754534416366,-68.2173809879477,-51.5904106637878,-78.1952329170034,-46.1799553117971,-19.9428180961523,-63.2629829349304,-76.432570412151,-46.6858970171651,-36.972314414601,-55.1259267919122
3.86464242947079,-21.4130267965538,1.5760957105793,-16.3018620020986,-7.67575986321088,-4.96871202650958,18.7422095317182,18.4517622265111,-8.52934684571196,32.582282736868,28.6623955462755,-25.5261460907605,-15.3934291498876,96.4859995455835,-55.085925492652,-54.8340964694939,-59.3099637057154,-53.8777076985529,-38.5176436131447,-103.563710916702,-45.1362638949606,-106.11387320121,-99.9525801202047,20.5766807646741,-139.754009045752,-41.2237013617178,-201.137894977744,-83.6243391664828,67.0935020024753,-116.599552075507,25.8788463679736,79.0155030833926,21.2569564525506,75.3268969463907,-31.8458352926827,174.447487013952,71.9985260307294,-41.0228407347205,168.370534857356,190.016739160531,136.347109319223,-30.7909189239679,322.110898517747,-61.9820089997338,-164.948082879099,-15.0102335868524,-24.5471587018047,-26.6827006069652,-32.7060569732115,-5.6040031309586,-25.0047055082596,-30.6340953524307,27.6989173284596,-40.5931330995035,-45.6362399298746,-27.3407334207264,-52.6963770627976,-26.9171577173011,23.3281840052584,-42.0924853160981,-58.6367781305858,-14.6688231616212,-1.04092667728697,-27.4958633163305
1.13620826231632,-18.2882298097863,2.41315020046128,-19.1360606640075,-12.9267198155576,-4.03750622000536,13.7808567452253,15.1623012991633,-3.25324443998572,25.871397806639,17.1890612003115,-19.1638682877599,-24.1516658843186,82.6041949867734,-61.212276688813,-55.7702067542515,-66.5073771550464,-66.8690497731481,-55.3794399031247,-105.824180078706,-58.4722152920726,-105.853083376639,-105.876134509709,-3.59450556394816,-141.41285429778,-65.0257043151051,-201.98082112157,-70.3371682016684,47.8637710780917,-132.912467422345,3.04066659374747,17.9770313256963,-62.2649886415507,51.3135219837124,-78.9896665733078,137.224381110872,-21.9458009052264,-149.690012852912,138.26564646494,140.951249469656,98.4909143486566,-140.117800569337,320.381985431974,-88.4451922192935,-246.56702468611,-14.5581670415339,-24.7001157657008,-29.0398588307218,-34.2555365809613,-15.7071337213915,-14.8387880188688,-36.5260955763505,31.2734986830218,-19.1111114949302,-36.3818041837627,-26.7439757804396,-26.6011569278614,-30.235664977656,50.7632976778714,-21.3334127547015,-54.884783584508,-15.7096837467846,31.6185554058197,-18.2659189857271
-13.5612023510841,-27.0782013939918,-13.5884269999099,-28.1671669369981,-28.449162802358,-14.7684383727662,-2.09389422974694,-9.56728363722114,-16.3477467539098,3.52989285565781,-3.93898213746602,-32.3200988988294,-39.9994537089491,48.1184812851796,-80.2194041083696,-72.330429562383,-79.2137178339799,-95.8032247671687,-89.4840641161815,-120.21487973366,-87.0455489748345,-117.930869511179,-116.293914199791,-56.2372618601265,-143.803842919928,-93.2534520087624,-203.426252644474,-73.4247516289546,19.2716491726689,-171.650222191849,-43.7857164062955,-28.4256776562296,-133.768172910574,1.15030163733317,-144.194269810555,65.2093668934221,-110.34852229676,-243.813944965413,69.6297879312923,69.2223921429676,34.8540950576246,-249.620262766867,228.737097007539,-154.319098664282,-310.194876097052,-28.3185721561205,-33.6517174880703,-43.24221417926,-41.0162519702707,-32.4467947675759,-26.5545540061078,-46.9411484074254,-7.40559686136496,-20.6936254528817,-36.3714292181243,-35.8514141175828,-11.5439713857683,-35.0728079585998,46.578745911332,-8.81353155520423,-51.6317864256965,-24.2341212681985,39.8495848227777,-21.2739652991804
-36.8934836260753,-49.6302303142517,-42.9193779737117,-44.3612857240357,-44.7310134285527,-37.3140130429394,-26.144393199071,-42.3727640130422,-50.684256990766,-29.1806213546346,-29.2742514135358,-62.6415266373017,-62.4877988921666,1.55934279019558,-107.430164406297,-104.803621407035,-97.8209523983186,-129.848253877357,-132.387205027167,-145.189348062963,-131.544427239213,-145.725404325165,-134.037692469023,-119.973447957525,-154.718193049643,-118.600707881954,-224.531882335088,-92.2924129078843,-33.0176252707225,-220.565319161715,-94.0333654641754,-66.1261781896908,-169.703735335918,-60.6248322683184,-209.070312782941,-11.8059615575539,-176.696170030012,-304.348192183549,-17.6537959043351,-13.8863276900375,-46.8872392778328,-328.044045793231,65.8041089155815,-233.325170062913,-378.990172993436,-47.9378473250458,-41.1496492483067,-62.7252985183145,-47.137781443524,-40.3638813183537,-50.617055304095,-52.7920574512245,-59.688426045557,-38.3098606045484,-41.995308881479,-44.5727093206953,-19.7233307381834,-33.7766670321012,8.80174831002491,-19.115850971339,-51.5446444857094,-25.3641462357695,8.55742397437584,-38.2595207430734
-61.6132700462723,-73.2663721247646,-67.9503657126146,-66.6966126313696,-57.7019691517502,-58.2693144512028,-48.9864469966882,-67.4693244802006,-81.5519157992533,-54.4618929582018,-50.6544688788837,-87.9828823732258,-82.2290420031895,-32.7058487830715,-128.152684646479,-134.120754858132,-114.654639535554,-150.221981000077,-166.528092898636,-157.122838694563,-171.810319292361,-160.716929167791,-146.758767316044,-176.325667272979,-169.032854572923,-146.119987356952,-241.355870518217,-116.274401722247,-97.7106329541431,-242.936831470187,-125.949216984943,-111.896071154675,-189.570702224648,-98.4116719117829,-250.772650128721,-65.6501208375023,-231.414758148332,-341.466503965224,-82.692116030626,-87.962822380689,-117.148735606043,-372.935810053858,-74.7286349076707,-287.553255046277,-468.178243749791,-63.1666626976435,-50.5655422443663,-81.216948736922,-59.095177035802,-44.3429753337264,-75.5828278942012,-61.9271495979321,-99.2261911738358,-59.4284166727797,-58.0517277641677,-55.8098504890315,-46.7404064527583,-36.4032179116776,-40.5502556668001,-47.5965314865228,-62.3358603780911,-31.628245898373,-41.6796740778031,-66.3432521249289
-71.7770797669667,-80.5831739798467,-68.524585396568,-78.2194190498961,-62.7803972213891,-61.0453502114184,-53.748803714652,-73.3418925714201,-85.5809637147474,-52.1866183236909,-53.5641976911337,-83.7206541774542,-82.5432750625721,-31.3774718816008,-125.867059320313,-138.348102026287,-113.170095539983,-142.61712082653,-179.530600602212,-130.818532648823,-184.610491763584,-136.121600702893,-130.542164220218,-216.114395148903,-170.154170428475,-173.656650904244,-216.429074926858,-132.14490005175,-144.309220494477,-222.20083551389,-142.564126125265,-155.281346664682,-215.782255758699,-99.4527194726226,-255.347716461112,-108.856665677554,-284.405734530537,-369.741052067921,-108.95044716113,-134.198343584065,-168.797242650714,-397.645431387619,-135.47448624984,-310.485798414781,-547.785708096671,-71.5659628629227,-62.2758517366102,-92.9712781492949,-74.8314800374575,-49.8915315747905,-91.8062342285952,-75.1116136927093,-116.823090771908,-82.5450561040677,-80.3568461555812,-65.6564442473212,-74.3029304584144,-47.4801168986576,-73.5379763895301,-71.4581065291509,-75.0386543245957,-52.6360844771155,-75.3852342837553,-88.8925262079095
-62.3245908380722,-72.834383248443,-52.095107708598,-73.2065373581297,-59.9360832290598,-48.4218896378116,-38.8514098008088,-62.7113228707,-72.5391431655846,-26.4860776772042,-38.6484191733681,-59.4352557191751,-66.2375759758679,-1.04089342890894,-106.638726009781,-120.561311119079,-92.3887962713347,-115.811980557845,-179.768413993417,-77.9045750147289,-177.313408254794,-82.7590832596668,-85.8158810302904,-239.537692082035,-147.827934556744,-182.698474565562,-150.371643362629,-131.555957838868,-157.931771038095,-177.088141099719,-150.311966118435,-176.517273073274,-237.285502616498,-75.4887707404405,-222.407320639602,-153.974473457375,-324.258410914848,-392.401314579124,-114.09869415112,-146.902096594144,-205.862741951442,-412.125528751251,-143.514472000037,-316.10112579941,-583.480730242611,-78.5852195927743,-72.9101622834188,-97.1232018049487,-86.4505723137359,-53.8793953902895,-100.965422363554,-82.6720291438772,-120.407568344835,-107.17289499617,-91.0335093738649,-63.4250203184462,-89.2621671626778,-59.4803148876813,-83.067576428341,-79.0427222198776,-76.315626424518,-80.8914614072571,-83.8759524894461,-95.9391331751931
-52.3673203387882,-68.6236271411292,-46.5574685258824,-70.6565472512786,-63.0711399798906,-41.9755556579654,-26.6424228295925,-55.6984957881101,-67.4435258159768,-9.11868001807701,-31.5668054822943,-47.9628808832589,-54.6487737622798,19.3924634987582,-93.1641351490746,-104.757742304424,-71.6811100374942,-95.7522847244541,-181.02008262981,-34.8019265725489,-170.744467532376,-29.5124823385997,-41.2523178666033,-244.418632516552,-111.424048234877,-163.19534028967,-75.9060328389516,-115.860613217902,-151.033078517011,-127.7300195302,-140.504870995058,-173.51368063244,-237.991095156696,-37.4979570180476,-160.975821602986,-179.656440941688,-338.575383375782,-407.927938904343,-112.713086255602,-145.221171764155,-222.213458631702,-421.370953835192,-147.962792586101,-309.180385638104,-581.376790945141,-86.2967626186449,-86.0092418757098,-101.940341818341,-98.4742733174314,-60.2798418506007,-113.80976553825,-86.0349241574165,-125.808414031046,-127.836714070736,-86.7596225248807,-55.5477546232196,-95.7169834797026,-69.3435556096121,-84.7522578390017,-81.6345437988774,-71.817928012671,-111.325879990105,-85.8773385632151,-100.185551853778
-58.0189573946325,-77.7696469078254,-61.4764466165806,-80.6032467138239,-83.0166397951528,-54.1353878523481,-34.3281717486915,-66.8425299064339,-77.680164353518,-23.0897396105966,-50.7202958047117,-58.0301722891012,-60.607960556266,0.237194202808092,-92.6777566960884,-105.987287403596,-63.0536183162148,-96.1141731345226,-180.941166002549,-20.8683227487379,-163.259215040174,5.67849862783876,-21.2260057783224,-222.205739486316,-87.3105989404547,-129.094752138647,-25.4418478195686,-97.5382701081345,-142.715718850521,-78.4288111312471,-118.476509972809,-162.614597118778,-225.406711873133,6.58020344885497,-90.0381681439945,-178.635209875441,-343.281956313799,-415.274462638232,-97.4201002421015,-162.435567293454,-229.389294480831,-425.860887591147,-166.786481390222,-292.282190507012,-564.083823185936,-91.1369307100847,-104.236802372874,-114.429101800478,-117.028141591682,-76.9540534211534,-128.976969771438,-96.0025446704282,-138.007761091986,-139.68535350144,-85.4662229233628,-59.0718352927705,-102.659115269892,-82.2512474829072,-90.1351388064224,-89.7090401171343,-75.6996922167218,-143.42095051471,-92.9357839485197,-114.226643419654
-66.7903846009496,-86.6759866319123,-75.5877167651432,-87.5877024627505,-103.915264218229,-68.9270939871876,-48.665754637438,-83.361662141119,-88.6487318460618,-50.1996854179682,-79.0721397551082,-69.3340375112138,-74.667509045356,-40.8582545112976,-90.8971756012911,-115.493240348556,-57.8376012223649,-102.665905840558,-178.027385229627,-29.2193914061536,-140.523814765255,13.5605316585026,-25.5922105600605,-171.953633344451,-91.9811625253133,-96.0187691715055,-14.097145357396,-87.2276588869466,-136.626184522558,-35.2102118441559,-107.993848053559,-165.321004699646,-214.842767473527,48.4527609744622,-36.1846736969818,-185.252067778682,-363.713912966395,-411.856368585659,-60.7517523300474,-207.826492687023,-263.396396560144,-420.615552180032,-198.771360127664,-288.406376886635,-532.77929132696,-87.1029847607831,-118.792257360576,-123.374865406306,-132.676924115309,-97.1074296997081,-129.989748670323,-110.358056293628,-141.546386436326,-139.029322651419,-95.5634309550797,-73.7786494559952,-105.732554326295,-95.575321855672,-89.3237434750363,-93.6913689898857,-83.0612827063577,-163.789491698319,-94.0181490283482,-127.033015322759
-63.3082892839973,-84.0535000976496,-72.6975939051391,-82.2540740228819,-106.318161830623,-69.1726254388758,-52.5660613440495,-88.5523019764726,-89.2232062624,-61.2557470651483,-93.4549423435882,-70.6292161896718,-81.6256339197242,-70.4167476464644,-82.2050423838763,-123.423638329208,-48.9256789718204,-100.778432219867,-198.566916013161,-47.0135963339787,-109.942227019833,-8.98163861055676,-46.535320546732,-118.168391979388,-112.994902993473,-71.0680774016908,-32.4157307104972,-86.8772690015416,-131.486609136664,-10.9680055592255,-123.850208572302,-197.177869701134,-215.961997442,84.8798187990908,-19.7972508267347,-227.055593971666,-402.036564647443,-404.037893482403,-20.0031752016779,-253.614237557363,-335.231088657067,-409.803353161742,-232.95996270201,-329.823997458177,-487.507288211732,-73.9063311789913,-124.054141043548,-114.073959133749,-135.470610249971,-110.945482089073,-112.88818415742,-119.599888733858,-125.231696796395,-127.332672953361,-110.365727815364,-88.4267348843865,-94.6295508039601,-104.262030831579,-72.9786368378361,-84.7197359423146,-83.2605147644584,-162.424044897171,-82.0620002244465,-126.970069491228
-64.2931378510892,-86.686778749743,-71.7402971083319,-83.4193352830965,-105.81645402339,-69.2638904256371,-60.7953577314992,-94.4767514566845,-94.215699144727,-69.2153361811783,-104.928975209267,-77.1071994646145,-87.9914131409195,-97.2076855390832,-84.4734356306056,-143.752537539999,-49.815962933127,-107.138074647926,-259.630165814997,-72.3143570936902,-100.813575805893,-55.1193076972146,-87.479116935325,-101.928449246516,-135.753165854659,-71.6364801515776,-57.3595777408036,-105.168976102772,-147.688632331136,-11.0398874460351,-169.963105870178,-261.860338656738,-236.645879099194,116.024286588532,-33.8387828994685,-293.216385022337,-449.839835543163,-407.65026783084,-3.92043868550665,-264.799045368039,-411.506579520205,-411.711482645338,-237.164837910499,-414.627106871918,-452.057700165568,-66.1784435999076,-130.736519410184,-99.1330145441266,-132.526329780981,-127.817022569653,-98.0842838044492,-128.144504723197,-108.137587572583,-116.238874845038,-131.667638897756,-107.079344653934,-73.6007616099486,-121.866175605225,-57.0026960087657,-78.1646580139282,-91.5824395719792,-161.702013719066,-76.2445208144075,-130.038697455757
