-22.4013993170618,-14.7892733355359,-22.4738957549811,-17.761627290227,-15.4417412768096,-32.1159219982471,-34.1458222599874,-27.9836250368474,-23.6338387616898,-49.9500457263934,-41.9029411173518,-20.3714990553215,-22.7638815066582,-61.4769793555611,-18.5590881073392,-19.3565489244514,-20.9514705586759,-17.1816557868726,-12.9043659496343,-17.8341237281463,-19.1390596106936,-21.966420689546,-20.6614848069987,-17.4716415385498,-11.6719265050063,-20.3714990553215,-25.5187461475914,-26.3887034026229,-25.5187461475914,-30.6659932398613,-26.3162069647036,-17.6166344143884,-12.9043659496343,-23.6338387616898,-24.0688173892055,-28.7085894160403,-7.46713310568726,-7.0321544781715,-30.3760074881841,-26.0262212130265,-27.1136677818159,-6.59717585065573,-16.1667056560025,-12.4693873221185,-6.23469366105926,-19.50154180029,-17.2541522247919,-17.9791166039849,-13.1943517013115,-21.1689598724338,-18.994066734855,-17.9791166039849,-20.0815133036444,-13.1943517013115,-13.3393445771501,-16.2392020939218,-20.226506179483,-18.994066734855,-23.198860134174,-18.4865916694199,-16.6741807214376,-20.5164919311601,-17.8341237281463,-18.1241094798234
-105.496667904747,-70.4647503447493,-105.478179659234,-83.5535519213104,-72.7632350243903,-152.969288732428,-161.441176160062,-131.911705161272,-112.504507960878,-237.446806101176,-198.90099611829,-95.1398730912109,-108.086594880197,-293.301786217191,-87.1199959924731,-91.483900880748,-98.3992997093155,-80.9465932444795,-60.7234469814612,-83.7525529895555,-90.5244154864162,-102.92522917481,-97.3133096846579,-83.482512027523,-54.6580606182807,-97.3872626667089,-119.708435996991,-124.271341953511,-121.158364755377,-142.537084392709,-126.972198402038,-83.0105569089816,-68.4080694009064,-108.734693189075,-109.638713846869,-132.959262150772,-38.4037301953108,-34.5273555828264,-139.348697668392,-121.246436350546,-126.406345511801,-32.3183990424856,-75.5507065239536,-59.1669583823942,-28.7860183740849,-93.1868388997855,-83.1029981365455,-86.5429375773824,-62.9693800128275,-100.591224548275,-90.7788812911996,-85.455491008593,-95.5763082628584,-62.4619049473925,-63.5123750251563,-77.2721327885038,-96.3367925889452,-90.7063848532804,-109.933069230941,-88.2984272446946,-79.8435715184409,-97.9302576790378,-84.9124959962642,-87.0134361517919
-200.718935651823,-137.116766108208,-199.94866171899,-158.986480173654,-139.705201673972,-295.365979649363,-308.986425490712,-250.737635845114,-217.147923615915,-458.19910003911,-383.251316332941,-179.169597395167,-208.6528882258,-569.176870357123,-165.066315860549,-174.930084932364,-185.405306532629,-153.961809147044,-116.107875351769,-157.943252190524,-172.932466579128,-193.192774821082,-184.577420792849,-162.467034585611,-101.323447581912,-188.600970217134,-223.50715456433,-234.212603038918,-231.981955080229,-261.908743088902,-248.145631530363,-157.702580048733,-153.803672869267,-195.49042375176,-193.944780861867,-243.663050036012,-83.4313177263876,-71.235691098446,-250.815047219018,-224.649665427953,-234.110337339053,-65.7919821777202,-142.118909967506,-112.455176045249,-54.2560655856861,-180.195462966319,-163.873835726318,-169.238496640767,-122.657153510646,-194.555757817834,-176.809932159594,-165.238530486221,-185.203102291548,-120.539181653737,-124.303535825164,-149.894476444358,-186.286544804093,-175.885966712156,-211.216684419399,-172.645428781269,-155.825715640874,-190.754827597087,-164.607098302572,-171.048360076636
-202.421647787064,-144.684976886776,-201.161290564644,-161.74992833072,-146.177049162519,-302.244768479773,-313.109945150127,-251.051179196423,-223.003717534375,-469.751168367538,-393.091503997102,-179.219925400281,-215.839722416691,-588.061026487312,-165.787227820073,-178.02379139736,-181.095811209507,-155.055179350509,-120.953972416179,-155.769335157081,-174.541901542987,-186.804046149379,-182.714767666998,-170.631846309854,-94.227433433856,-192.51810358145,-209.738663564885,-225.518448018065,-229.99325598745,-236.809599398851,-251.729615037267,-157.199039785836,-193.251304251688,-166.38882786175,-160.459238313187,-222.720220471031,-101.792366030295,-83.408763957931,-218.355967666203,-212.453466412989,-216.480449250489,-74.5495967302634,-143.94931106141,-105.895596608792,-57.4806797799526,-182.208849357128,-173.928660605268,-174.122963860309,-129.327436731239,-202.202151981571,-184.363679834032,-171.1086487475,-191.74038344679,-124.635513497833,-133.78588404856,-157.070609398252,-191.480051357025,-181.966968376324,-215.461457731967,-182.634893603815,-163.670415507712,-199.964480010712,-171.393620209428,-182.28706257413
-137.251955242294,-105.039987620617,-137.000068993092,-114.413035696383,-108.864537450013,-203.46940782457,-209.404414857125,-167.226604984351,-154.057639698403,-315.952534734154,-268.264452623839,-124.205199267158,-151.901297516996,-398.446819404554,-112.978967151337,-122.721237364615,-113.432995359792,-105.175395381349,-91.9789184108072,-102.300041362119,-117.267337233567,-112.895016013482,-115.787247524145,-124.136789746116,-51.5714891592686,-126.964488077853,-111.880226893634,-130.573858265631,-137.665212318184,-111.236151830082,-150.249756645456,-101.934488955131,-152.962493220411,-63.2463472726845,-57.3990176883143,-116.769061337254,-81.3150066624114,-68.1983936693658,-94.8986758414421,-130.415596597996,-110.4712494887,-58.1994701165619,-114.401019074412,-43.9428577761916,-49.3966229484438,-112.36775683431,-119.885271725381,-110.049348235088,-92.67400065302,-141.456428408474,-126.127182271203,-118.004796852589,-129.217168299311,-83.5074558978285,-99.9962418475595,-112.305763448065,-128.64784264066,-126.308135902879,-143.432435599695,-128.09480913438,-116.211656698197,-139.26426862508,-120.879438099212,-131.412639807573
-104.394577565068,-79.3179395735089,-105.084490199522,-92.8814862927772,-88.1633714752678,-149.598578692585,-154.370017612738,-128.595631509962,-120.079951634105,-225.398635428565,-200.23451269627,-102.745227158286,-118.857843850825,-286.270337786798,-88.9094352575769,-93.9356889998818,-83.1217559624658,-81.0383385925832,-79.3946780251963,-80.6485473712197,-88.7761498484459,-78.6800887799166,-81.5489276490492,-99.4673837052793,-30.3867368785866,-91.1414188751965,-61.3495453026955,-83.302033223063,-82.4239748557785,-44.5516175871526,-79.3224840371701,-72.651925455296,-84.678737816181,-20.7761247575465,-17.5868416296089,-67.6190963806817,-50.1020141950628,-51.6299459228078,-37.9826284854915,-113.539878694063,-54.5085508829827,-45.7683739809442,-130.765587931459,9.37786019571857,-58.8278889555603,-62.4749595078457,-76.1888209359593,-62.1877980565248,-66.5309207191373,-101.686082956085,-84.4574889262432,-83.3762758534755,-83.975542488297,-51.5221034944447,-73.9768186993359,-82.7585193192401,-88.655708377722,-94.8196914064163,-96.8215559035752,-84.5940845913038,-86.2693972509781,-95.5537956191468,-90.6611029238797,-95.2999682697166
-92.8119857549213,-64.2375008878582,-93.225562741274,-83.9412040722794,-75.1658308099627,-139.482762394141,-143.646232577236,-123.749129231652,-114.666740532808,-202.557540772962,-185.661137086121,-98.2073146249452,-110.769871273997,-264.384714357266,-83.8867600782826,-82.7247936538886,-80.5143997538884,-74.1651744503525,-68.6436171691682,-78.2780321753631,-81.9129794429483,-78.2399282519321,-75.0578276559491,-90.1719340322393,-22.6213323629354,-86.6675472082833,-57.3962952513013,-83.2199875334387,-72.5721872164278,-42.4755028487539,-63.1341924927561,-61.2828344501236,-37.1509445810114,-42.4538871931791,-47.7174354541876,-55.5082576785808,-26.2880247911732,-47.1054478038747,-46.1840972238785,-144.599668330865,-45.8152701478049,-52.2380133111594,-160.845055301236,31.3917403334653,-94.4278691522078,-43.0681087491346,-52.5992139134412,-41.8539465099343,-49.9566494513778,-80.9149057949861,-61.6303171970873,-66.56308618017,-61.1102104857519,-34.2120184573799,-56.3649168948288,-64.3368632273145,-72.3681477764835,-82.366366315917,-76.6580398097758,-58.3870475587649,-73.2701543299044,-72.7027350998903,-75.8209748443623,-75.9455540796537
-53.6014594429692,-34.2577340736173,-55.2274091671535,-49.999687151958,-43.8019802528658,-98.0578643751297,-100.147911790162,-86.5269107316736,-80.4150660465173,-142.772876259884,-132.303521078959,-62.415595551433,-75.0377515155653,-199.688380543562,-55.8827409773613,-49.1686490919183,-52.2653276066517,-47.1014232055327,-36.870306422787,-51.6231826669966,-53.1858650285103,-54.8019159989292,-46.2844464101307,-59.1781420414743,-3.37774441221482,-61.6285395978189,-38.0268050770467,-64.2612004361978,-43.4952013235515,-41.7721273458099,-40.183505901721,-24.268552169973,-10.3513978858625,-58.1784141441952,-111.791696727805,2.03174791057458,-9.45297851241102,-53.6176685907553,-56.3481932681313,-133.447502649208,-12.8164597729352,-71.5995279341756,-144.21151341714,36.4492868324342,-141.538046718461,-20.8965693304532,-26.2020623818701,-17.2870963147238,-24.0610761005763,-44.7177550906363,-27.2285691512391,-36.078003596357,-31.0138845984386,-15.2981017150013,-28.5422628134201,-29.6519317479364,-40.6646560588913,-48.0619378613503,-44.3792500329943,-26.8888260909472,-46.790653606552,-39.7930339264788,-40.1464852177513,-45.5278274779319
-9.15378905925693,-4.51090627553423,-13.9858104123981,-12.7075353068487,-10.4048130427489,-40.4758460607885,-41.1696659625445,-37.2600590890744,-34.2008457490997,-64.66244165579,-64.1137513833902,-17.0233700840752,-28.3953474062426,-110.716263100028,-19.3706350110223,-12.3537101825553,-14.327720103489,-15.5234838341443,-8.90230299924847,-20.7052301074269,-18.9743520942128,-18.8106309636165,-9.19115708758561,-23.5141847924454,11.4658156320125,-22.3501993217149,-16.2505514702997,-37.2969157450003,0.815199729062535,-53.6670022722673,-3.06282247204987,21.2809680543959,9.38189303272866,-60.831750739013,-211.539136989494,81.8960915028901,0.34590295127131,-61.3852960009328,-81.9844067306587,-71.3738010765882,32.4778635777085,-81.5562915527749,-109.970296333938,29.4503228391542,-155.585872931987,-0.460766919357081,-6.30030172031459,4.12651196479337,-1.7077639620403,-11.0170969792629,0.15508077582886,-6.35457255545268,-5.76759801050318,1.65564439061997,-1.10451085311626,2.07169133282421,-7.77242116731664,-10.5062339357632,-15.1079776461406,-2.55366424257667,-17.870626670041,-8.7043299118966,-2.15776668599091,-20.9734436590763
10.447361175745,9.42765491540156,4.9889455371269,4.90819954822526,8.75665643617555,-6.30978867404356,-5.97402682232173,-8.8837602671144,-8.47558007862816,-15.3316246194588,-27.5024243877472,6.00369436862704,-3.91430263343239,-55.9404762098704,1.89994927641076,6.01798285057618,5.44069330170792,0.9296406556701,-1.28712141204901,-8.07630580390375,-3.78841037183162,0.921843136151201,7.87161789818618,-5.46337168411516,14.0882924675557,3.64998102895357,-12.4806850422229,-27.6908400363678,24.5724578472746,-80.8432464582973,21.6488654498657,40.2895562984676,22.9003247841478,-64.3668857278214,-277.122832183985,117.662201827516,1.34137640269439,-55.2205829623226,-117.354449045098,-0.623030771591289,45.9005581918219,-65.0333964828522,-101.905229725863,7.45228264819797,-103.913502899816,11.6915417707733,3.0199978672839,10.6834771326653,7.86279756943886,5.50255247483823,5.61316629188609,6.75479770888254,4.77316229580721,13.106913130128,12.2441788308126,12.2092808864902,5.43234090255665,7.59715191528993,-1.63876063627384,8.07319281459684,1.4202811791424,9.82682460631291,14.7220452710378,-11.4234604413162
21.6291925715531,18.6656192046971,18.4557299196746,18.4272463986308,22.1877671912197,15.6412773981402,21.4763631796775,16.4775987456628,10.3708011632702,22.8629612657948,-0.385670613765817,17.0927254610006,8.80701698070186,-9.23151649857928,17.2846797266967,21.377427718928,18.191065040099,13.900330966094,5.91958663860498,3.26064138646771,6.48621441348084,12.8563027111751,16.4821172322611,7.34540622105564,22.640261439146,19.947221541277,-1.31498230546145,-13.9228101947576,31.4047539809829,-75.0131602183959,33.631257950257,32.4651201669667,25.6784899155848,-49.4462705393948,-202.34885457245,87.8983876427089,-9.89755551889288,-35.1078136570518,-94.0827601051978,40.5573385111219,21.6716625043958,-39.2228303455552,-97.4937370594781,-29.6727477697743,-26.3822066836795,27.3040180533227,17.8931386862267,16.3907185000416,15.5336932491505,22.546137243544,11.8993152524076,17.6761021201517,14.6896712739286,23.0890371091913,19.5963678023038,16.6813964193096,13.4084723565644,21.5084773743791,13.7456592618475,21.1660384948593,19.9106119734225,26.3906014724117,23.1977759940769,4.95856933741667
38.4990334285627,28.6199517289266,35.2587283520807,37.1777818923234,34.8151775704404,39.6008982738683,54.8613153914658,48.2882332420908,33.5752851102805,63.3768615835576,34.898383340768,29.6691216307896,24.8860768073925,49.5091188588125,35.5303436486804,40.0665192363161,32.2251228527831,27.7928869176519,20.4008486720787,18.0035294663345,22.8858811085217,27.5543102288125,29.8160346952541,23.3903532562109,35.6492490492744,32.0142461565093,24.4366856254504,15.9257224174448,34.0005672734668,-28.799972487074,40.4850792517428,8.84150610810259,17.7361683701175,-11.4768909026181,-27.717601884166,13.2868494262608,-35.9536103689247,-19.0360889167899,2.07461737344209,36.2840682925258,-27.2776903016593,-29.796153767652,-62.0755254103451,-74.3389031962037,13.6811859300728,43.393840519913,35.5723992964741,27.1420367103802,24.4490955210773,42.4105182906282,28.677439203013,32.6249786617527,26.0658067821989,30.6319249581741,29.7919474593393,26.7517445606042,27.0355145839539,37.7906456431807,32.981231880481,39.0634972241193,35.5514073203756,39.6758591051106,33.0787998078758,29.6135701501308
51.5244456388644,35.9934192178201,47.056484507455,48.7902909419226,43.3463862035451,58.2891452512937,76.9378496436985,67.7719703307139,47.4964746123089,92.3118398788254,63.8856167794039,39.8588188420064,40.4182629195533,96.6423084206714,49.2906578111838,47.4011666207227,41.4817459447073,35.3086850570956,27.6397522516147,24.5858883173149,34.5307118638922,39.3745780323352,41.7625566389333,33.266148888138,39.5505117369419,34.5320426586713,44.5623896860267,44.164947852884,30.6977412745545,19.5544414579758,40.6943579872068,-18.9952434665202,9.64221383561194,30.9211370000613,104.197855360499,-56.9563908494733,-63.0892906360495,-10.0457393372808,101.018278807963,15.3710531758853,-73.7104184637203,-27.2638560442521,-3.51992058288547,-102.333707341663,17.4297595003383,52.1355330537841,43.9875920753647,36.8543817185635,31.0907492427547,52.1647810684372,44.1023740490226,42.6834995357427,33.3094947968101,36.7044138462631,37.9324412423135,36.1280531955966,39.3915802326197,47.4756998168505,44.4440566880173,51.8301159726608,41.1028902406322,45.1817354231735,39.4910110296567,47.7212902490342
65.084029720479,51.4376650610764,63.5557884429126,56.6068358380835,56.0418998153817,77.3430438976906,92.2184668621609,79.5537420564567,57.242769741451,119.353726639126,91.45558869675,53.3675402567256,59.2604429631115,133.365537245258,63.1390561529505,50.6941873512083,54.3237574110902,48.3071847262668,34.1783517916637,35.4334928760122,44.6046091362839,53.9036610740493,55.3522009720317,42.2213860977586,47.4955448245709,38.4253684372739,64.2801157215536,67.7376006608488,34.5080145971542,67.3139666624944,45.0506896174169,-24.7758510929421,19.0682080084051,83.9884833459365,155.734657269009,-73.5923229988902,-65.183407287189,12.0559187344682,158.810873404398,20.9315283005644,-76.1755358810013,-5.72440555913209,53.3914839129366,-90.4942233615079,28.2583189250083,68.3861717928844,54.0637957816014,51.9936797763421,43.6460213260355,63.8385715833312,62.8724680067245,55.8605702259147,48.401956637783,52.5925110228917,45.5567002902219,48.1914613523466,55.8925966478643,60.2107255437886,58.3274028098186,63.6184094657036,48.3970288958783,58.6421313838295,49.6198276791766,64.5635461510628
87.0115700749095,73.8282833970512,88.8781558220068,72.588395673944,73.7737467774795,104.797333668122,118.02159213456,103.269623844782,76.9699326666218,157.805812154228,127.513564449592,74.5432703963202,83.5878939563927,175.217499435467,81.4737453950775,66.9177666198067,75.4647556974845,72.4793746987624,52.73896939317,58.8287405873556,63.3231010063001,76.5882857313258,74.6218738212196,61.3433056533995,68.6309308557127,53.9521781976871,93.9616815442223,92.0831297535756,57.5384421886982,123.164576900596,63.4406960259175,-1.22233813395898,41.3659115062053,147.255834817176,184.41922737945,-42.3724862932117,-38.6688328322953,44.0857401468931,189.433080402483,46.3669382851309,-32.321837213215,26.2764358820128,91.8904448705573,-52.0415192484551,51.774228531501,96.4063751469367,71.6343314804407,73.3412719960081,62.8667096788845,86.7872136822731,86.8895049470069,78.2755650608893,74.2639370068438,76.4472075695398,57.6553556045438,63.641000099191,80.3840202497648,81.0054355309586,83.2410638740779,78.3240070251139,63.3972122073026,83.9024551499271,67.1702425640932,83.0539596805015
100.123821555351,79.4720006782667,100.161438394004,85.1394466786355,77.451303520459,126.325871290838,138.078753082936,127.774164760273,93.230041530494,187.943172579541,156.159039020918,86.6749704110497,96.084747625355,208.465875629132,86.9530771452618,81.0798072152734,87.5510539264,84.2587303126289,66.142011820283,72.8963286777181,77.2692695502576,90.4220335740788,84.8182882023268,77.7389540247037,80.9954656240921,65.1527125336135,113.767429554337,106.976941888802,81.9039178692134,158.68882427512,80.9756307011879,23.8761094941837,49.5160155047339,184.259620669533,207.25509215956,-8.79803073871305,-9.08934441463795,51.1778781664436,201.093246874103,57.7087526045526,11.6464341219042,36.2856100853504,104.252511214019,-20.4861525843408,55.8260967683249,110.487756192558,78.6465195555168,83.6440832675828,71.5224113548375,99.1582075206225,96.8189328064946,90.2756577299272,89.268609339007,87.9772249579361,63.5828098676128,67.6398978299865,94.6070756022456,90.8762382681356,101.461695695467,86.508695028975,69.7472358398637,95.7925565363934,76.8171706648377,88.8846645512952
94.8690105685014,68.943052121839,91.3848107736986,83.2897913956104,66.3585867935253,131.24220704648,136.719588988301,132.9606425547,94.2090863448071,196.535740053106,168.263006372909,81.9023223927619,90.2577908454723,224.306579193271,76.3721813559364,76.1896037998568,83.2876076307891,74.2056716033575,61.6823368124437,67.4957710287156,73.6498903792042,85.802153374395,78.6331782332821,77.5186833086897,73.6275099205766,61.1366477596139,112.851935340071,107.793720047315,91.1869398678608,164.014263848699,86.318362519882,36.5640008616121,38.9189002499927,186.435904093132,211.766351917277,15.0487651371495,7.24608803764976,28.8517709137003,193.013329594974,61.8195085800137,32.6366997185242,25.3899456575692,101.771493656827,-1.40642706824663,32.9568017644397,102.208076564331,72.8305932274655,80.7422063910686,66.0675910397479,93.922760148404,92.7475885576385,83.4044337269329,86.3210692245235,83.4422499409207,56.9280419855575,61.9959527251823,93.1350144627283,86.8758338384088,102.78497320404,86.4043707585286,63.2340034346585,87.4504868131469,75.6661590036086,84.3229320028689
92.3524720694637,70.4788434455243,87.6406130085001,82.466441936542,66.0064223895245,132.964983486807,136.67079994508,131.814621963702,95.4215090884522,203.984419828938,178.977493556687,78.3713083531171,86.7848759732165,245.005269276333,74.7454223813022,71.976757223931,79.1374398776217,65.9529413256711,57.2782374940685,61.9069283504588,68.6742673871687,80.930494333561,73.5310710226828,74.5560711364519,68.2000321682922,60.9711432832266,115.190033506863,110.110544430571,99.3915189968015,174.366812104293,94.0568822146562,54.5954078682775,34.3550149547453,190.73075115606,213.55128112138,53.7298762530836,24.0697815352895,18.9001119667761,187.176505752329,88.9182735490988,58.2538447879222,28.6635056853092,108.089287792174,28.7336961980444,15.3188561455407,95.1927953566003,76.3297377940567,83.3871887327788,65.3727722528537,94.0254127068881,98.8412584096432,80.2393339536235,86.0009973124239,79.9673612453375,54.1476105651555,68.1978953903491,96.998427624784,91.3949573305989,102.795217735179,88.8341993590492,63.1610924233636,85.1203539601884,80.5938307540182,89.1522884752066
104.733119258437,89.1926870164666,99.4495258790711,93.4122449005099,82.3517907415953,143.796206669718,155.625759936537,142.330112823055,107.329383634403,225.301810473315,194.811544953788,88.2789222167455,99.5986994657957,281.675799017515,89.9408282226863,87.6077574264809,86.5648877534288,74.2634463798404,64.9129930486982,70.9639610654016,80.1887383643817,89.5151230530922,83.7384957813692,86.577924159744,82.6082453373714,81.666847865065,135.658929626997,127.641511718643,124.519828052131,204.844351663307,116.726878448088,90.0692530793629,51.4757568220253,212.524104342519,227.812100125816,111.173424201921,58.1488850040671,44.4266995674994,201.101659135427,133.798603128967,107.735167184179,59.7957618307986,126.048354147935,80.5370820939797,27.0411821075915,100.594617663036,91.6468659766888,98.2268194077256,76.6275021290247,103.912266664369,117.410627149691,93.5805383865056,100.030472888848,83.4547248420799,66.1278951573407,86.8803907615302,112.415979338901,109.325816136025,110.234179521841,96.0985182056962,77.2326552194886,99.1291153552368,94.1407722746329,101.448963637465
110.762167392333,96.840645664693,103.276197031119,96.7470167143095,89.3010363687567,150.448962201036,168.540090848087,146.39976806708,115.239209979232,242.155517481017,200.178936457819,95.2479902666773,110.961696180099,309.646498757409,96.2709400932426,101.243695226022,92.9598690290984,82.3787351825171,71.5033674269051,83.0543526356647,94.6316772051588,96.132110881591,95.8608155503526,103.109902401047,99.0681680929391,107.684827589914,148.70172654447,148.349452881943,155.018846035217,224.60204762262,140.182280840132,125.571867345706,76.0586766973401,225.675052861713,237.490918062787,158.65412381121,95.2902004072901,76.6128366270122,214.862277074151,164.103812936482,156.113395635646,91.4570612832902,135.256578900447,128.150847038644,51.2036903313082,102.391373398434,91.3798733707491,110.088394093934,78.9385394653945,100.098317054838,123.819912054539,99.8261874230958,111.387906221467,79.0843771428244,73.9059119126997,92.2012760558023,116.866535790535,116.939558724629,110.015745726135,94.7718097951603,84.8823180242711,106.025322487056,95.2309578920907,100.263422976659
93.6755439685507,76.6286260308501,82.8840560502402,74.0725915791633,72.1812441410721,136.483744914246,151.012147738474,127.513368251627,106.569535347486,235.446613825084,189.106120266803,80.9469434977071,100.384946042009,311.150523520373,76.5310316393259,86.6679817316256,80.2243627051563,73.0456457315156,65.2395024138959,77.2213413689757,90.600359959203,81.3133620717494,88.8491712789432,102.959070066497,86.4071991192432,113.847811578996,127.10072017599,150.054557749328,165.574923641301,209.144999426763,144.27039917839,137.120142947445,83.7084324868348,212.449498424349,221.582490720654,179.666852209684,106.202875934244,83.5856746250865,205.787438205649,171.059130317434,178.357863499958,96.9037383511486,131.447375570479,141.492422133948,60.5355793836122,91.8620828524484,64.0754221566993,105.311883335466,55.8232537497558,74.8030975857815,109.133605781406,77.6787810021827,106.199629259587,57.7742725899657,59.2525627412149,73.4587842818137,99.29937628315,101.460378534671,93.7068662031338,76.5405225522348,68.4366730643124,90.6532083934925,73.4324301038961,84.7883738339432
71.560872148587,51.2378507028895,61.57254501142,45.4768735494896,52.3503605182648,116.272074128259,127.126614545859,110.042704363129,92.7419627729784,221.236207272728,180.898209069791,58.8273561378538,80.1057916057714,307.528587168125,51.4971409412845,60.1793908597559,56.7801020412367,55.6651708151501,53.9819810249478,55.8510678847393,75.4578359181468,54.2419088415142,68.120755640388,90.0914143940539,48.3708072965589,103.000089762334,85.8376653600158,135.98397481785,156.306008664139,174.04743771013,134.998949137128,128.786257683338,73.5854214185553,185.322848472326,189.151172158371,190.994972300098,93.6269895340789,76.2787626550871,186.085761332572,180.587823423912,187.044542710946,89.2743210578908,132.923515266453,131.045502094001,60.3149508943018,82.6245499847639,37.1213981449731,91.1780231017903,29.178622849026,51.4699685777084,94.9372620829725,49.7656496161152,101.029828105653,37.8968374484109,39.6235878509834,53.735199346761,81.6665192763288,83.213025804249,80.0024686007977,56.0512122539715,44.8916518088906,72.3475332005309,52.5970644087148,74.9621899918573
71.5180067559164,52.5518883417432,67.9535083638739,47.3536997603465,56.7247409426701,119.20260737456,134.855374191546,119.394879034967,94.250710144231,228.419981051893,195.025528651,57.4382011809283,77.9886804819003,326.438514809173,51.8650762735432,56.0723042732538,52.6251644994846,51.0377015227707,54.7368541049213,46.1863804943406,72.3706909425416,42.8279344108461,60.4273940671382,87.471592933061,22.7715442925794,101.854129181041,59.884355489589,129.408350220383,151.01628374115,145.32112659533,135.842628284586,125.654750470033,73.4664751397549,153.248776494016,156.857846539127,211.664212049758,93.7717696056057,87.2651649745308,169.887918654937,212.597534910298,206.069833924457,101.200171301642,148.943536694924,135.090743904073,77.4856052224925,87.6177278155887,40.2882865849237,87.1073247367411,33.9873565280709,54.5793360147814,100.849015131289,54.5859809301932,114.586913544664,43.7711731083298,45.5959385800845,59.7941373338607,88.2230761266147,88.4152537846471,89.7011054925051,57.5786354117393,48.7084877671631,77.140580773481,61.4106401862799,83.0560046893991
96.833109357228,81.8910272227853,95.9363800850151,81.7964460674098,84.6515304297121,148.577270812777,169.704089531256,146.63042352639,116.708138457041,256.888981014374,228.840138176126,80.8432706890143,101.925255358309,363.373400704794,78.4185062744555,80.5944116820567,77.7078430563791,68.2169923099586,74.6872110128978,63.7957324659813,90.471351204827,59.8223930266653,78.6721243448952,106.237841386365,30.7797355515726,123.095171692585,58.8525320216275,140.725615310622,164.959640778326,119.822755928785,157.7671305729,143.847957027559,106.831482314562,99.9928678437481,107.927943317087,248.071242628122,129.808094455743,125.557556279251,129.750361072538,249.36454964758,243.148597511466,141.195998860912,181.352641581123,173.319300657771,123.464167656584,103.100599073722,71.9927625491643,101.80090828677,69.2140351454668,85.3614995295784,120.541362777504,93.5709986011719,137.468065716628,71.7644229029947,79.0337279281355,91.5485247651778,115.39626520201,116.975519035719,118.481907277136,85.7752257689155,86.8012822556193,105.227070389466,93.7518901698219,107.124982974626
124.67806500078,109.932195807533,119.630574954914,114.014115173786,111.437619310892,176.440693664581,195.680864916373,167.378277949469,141.591604249482,280.093965070074,259.224071170377,105.886223883054,131.997267157008,390.177976852386,103.687847184691,108.964591798668,106.793786353845,95.1986945132829,100.764811480397,88.9243566514288,116.642504433827,87.8012204726967,104.869970679785,132.902820748405,52.3775599746321,146.744474452112,61.5105531020953,155.169361646662,187.647150184633,71.0435106558987,190.315601139436,177.846246767473,156.691203631734,5.12246473896568,10.4092804606417,303.120466221356,182.634854568643,166.886989702951,21.4775030186564,256.82749850313,290.872082023972,185.176221298959,233.856792783065,225.952536693848,179.830990598736,109.440285287376,104.232803369093,117.743029468785,99.0410270792145,119.67906148282,128.614800901792,127.568405796314,143.309395368709,91.6407167316162,109.88387660012,122.143639542792,135.229601538767,141.557657887935,139.26411723997,113.36676006615,124.953315094575,132.472070361347,116.126181810456,132.412078291944
132.42994211177,112.756668700967,126.94143788017,120.194668443042,119.862646154068,182.299275784212,197.662708107672,171.015468384033,149.033539082884,285.093263758069,268.737677976685,115.676819417992,143.835720983763,394.523645953756,111.051104237489,120.638646302262,119.464784245256,111.420700877842,114.55609897955,97.7074499677249,132.197248254599,104.480210374665,116.852824661491,147.028509642249,61.912639916402,153.802932451647,50.9411826542131,156.292039373304,198.043158065386,4.8945482336607,212.50804830249,204.890723424938,183.668915230399,-116.491673892768,-109.357839366658,359.712038363979,214.211082867816,184.451008181374,-133.764714021777,234.88192264854,325.125813417184,204.124357424228,291.117940463386,250.211439343502,219.840766340196,92.0117360934957,113.144332631142,108.073074120682,100.606927623092,132.224202988808,110.455292560873,126.766824785314,121.531643047698,82.8386734464554,113.40647912586,130.832794375902,127.661870842808,140.291778478404,132.390441964006,114.177276330296,132.218023724196,138.318802216236,111.156270193223,139.315021239763
128.861057540486,104.811173911572,127.573490254652,117.378794764682,123.30121871436,181.222175598111,196.872220882396,171.129318577749,150.44073136165,288.308805015171,269.808184323421,122.380648565583,143.332614456716,395.446483593655,117.434302869989,128.019658627923,129.802020918945,118.116256851951,120.355646463797,103.49109390223,140.7430133488,117.40251476968,124.096330985761,151.417488420591,67.2032849210689,157.881891589199,46.9342118339115,157.213705585896,196.212909390979,-15.7199346468019,216.683285444691,205.727746199996,185.118355026511,-201.570668455674,-147.210138792283,378.250346251364,212.58884399457,179.994767121243,-224.04300346844,228.19890088125,317.514270112269,198.121048210358,326.862288179935,220.899054088767,242.01048736916,72.3671131311593,111.091968720568,82.5467082901458,94.2742666828613,132.861855629851,88.287960800339,112.986018916362,97.0961971811806,64.5882700858773,103.056000808319,130.895521098071,109.38596704319,126.87475874606,112.729201362665,102.66084479172,124.219451083102,132.530530014533,99.9625396675123,130.958998789031
132.740699641815,107.521468982393,130.433628033227,125.525077108289,134.042601236629,189.28419007747,205.887672257738,178.525903534969,161.924960018262,295.712979093459,276.575834398193,137.494395337277,150.402420455894,401.526001089403,134.143707727089,143.152559529207,147.819751312314,127.315314237098,130.599697804315,125.042824641758,153.60731498977,137.46770045956,142.312966499949,159.953518247088,84.5357103235761,169.892627079273,71.7016230989525,173.010038487797,194.230151046194,42.8748784445422,210.952995432029,178.22873062456,183.659939623787,-200.412204592568,-46.0806114411692,334.310864138519,189.278019226862,167.999655316968,-176.604928500185,259.255340051605,265.937716204354,182.091084367401,333.481985950009,150.423561059092,253.41354009352,73.2793606289962,120.642196953661,71.9106770363943,102.372437145757,140.102574794233,82.2218936080048,116.523642486861,90.9892095588268,60.729170738633,98.5531328587284,134.024579418735,103.209867922611,118.457759515256,100.236918216949,99.8421016306914,124.375921187925,131.577261071828,102.112662560574,123.697230672292
136.166709870279,108.386450650346,131.124529561314,132.276568104072,135.510373433395,193.253194485471,206.928511038192,179.176911492759,169.690334475395,288.966138299093,276.076129191985,146.590580500396,157.863713474474,394.395818552058,142.524251382182,147.797341031827,155.625517417837,132.064776158166,136.332720559316,144.860231144034,159.554080842583,147.724908866063,155.188033819546,166.495993948358,101.304389960832,172.770372902404,104.307725715328,182.702170340474,184.964802132598,120.398683468712,193.329060955636,133.442668593674,170.277722146753,-133.530783809969,98.8073222953367,245.108853644643,146.404513006403,140.954754033608,-65.457320631956,285.15505753244,202.361346739124,147.181384306966,316.742753200387,76.2455425899813,236.42052280447,62.193428465214,127.655242329281,59.3396788796386,107.820830441651,138.765958088978,65.9253078364836,118.940249960307,79.356343587867,53.7522761989305,87.5389908823265,118.362107000338,101.260932447188,97.4051645882617,87.1328809128328,92.7405525864738,116.929650383716,121.390180089358,101.656934058873,113.962678125572
127.145611152083,93.1683275141832,128.426767310849,124.97909967214,119.095574438928,184.111793762591,192.733281654095,162.743171033658,162.938890860965,268.054904801313,258.209225211202,143.063131577061,149.667766393845,372.245411637117,136.251766174207,133.347531807977,148.207349915028,125.429752758048,125.826192296505,144.193503835265,147.721708829122,141.983690388849,146.410976414875,158.261089570295,99.9264487917221,157.437328371856,117.762525902262,163.466205866051,154.45774910296,146.740862545381,151.481709644943,87.7843545581104,123.290793656341,-51.248476425792,154.288957316084,151.092585339118,82.201501941358,77.4664005775121,-4.97450245022655,259.736909159116,159.501862809508,78.966407406817,277.224674131906,35.0593605678649,175.781517740262,-1.26753262786405,108.99761291752,1.84542116361952,92.4681506318994,115.70806542895,11.319849159912,93.2286150650131,37.888919608426,22.5531019859331,59.4715621202469,72.0766300388219,92.316255732447,48.986436004516,67.1017502356948,69.869657675121,86.4035179674255,85.9717177821733,85.82856609328,91.4874284687369
108.371890502195,67.656352294185,120.758994534479,107.377037529364,94.8191871791702,168.115250270835,171.14439013812,135.462451253639,147.88569426408,242.46813080564,226.11785367263,134.317133862182,124.869705420338,342.070554261679,125.198802392506,110.494454801029,134.795958466497,109.925842470524,100.42632498969,125.246490446039,122.67041716778,132.038629369458,121.054883118707,129.920179522624,78.0022280047951,125.226088642386,111.070579544071,114.096259843351,95.3065929812603,116.494481068046,76.7251612073077,38.2617017175795,46.0234715875999,9.79440155261201,99.6625548210019,60.3666401587711,5.1037136747528,-24.3616348398131,-18.4735423316415,179.949874215705,122.662427958989,-13.9699623288585,206.293579088216,20.6992116107326,84.5786840927896,-88.0022936002045,72.5741974817795,-78.5340474479409,66.5527993023508,82.3686580474477,-57.0529926853285,49.0281948885995,-13.6744025197158,-14.3284054823811,27.9793748080124,18.0064087875097,88.9118424657557,-7.39268393515248,48.5732234544932,42.3254532292696,50.0191053670935,37.8262598618057,66.1751168807763,57.0717515824529
77.3222106134943,33.1613105284455,94.2950244067296,74.3566631884977,58.5802627424363,136.245180473997,132.414205730253,95.912152320496,116.103557493649,194.194715979719,171.865289255276,107.681105055966,83.1663914871397,282.997212062178,97.6720620208919,74.3489809684044,104.729901474746,76.3631809961495,58.1903606274571,87.2420827792696,80.303499564213,107.59259502963,75.6617521953345,75.2521453666958,32.7803041803324,64.5066606257869,84.0427997149724,35.6593547131524,-0.025581984639663,52.7454874414145,-32.0123537649914,-39.4050923527669,-48.5112427766932,30.7664210572426,-2.34192049811018,-69.097221432326,-79.6767584680243,-136.697299917045,-56.7124200294817,57.0352297536536,41.0895489979163,-119.249201034398,102.22593044323,-20.2149596217018,-22.8475518642381,-127.118680611245,39.6477330343634,-103.314430440145,41.8500170706571,46.1376041982882,-86.5915791532696,7.81385115049053,-46.3022197643299,-30.886470269887,3.91931761814239,-23.5229133724544,103.072461313747,-51.1405583280683,29.2787771452736,17.4512565533936,21.5841457113883,-5.84607691078406,43.8677221873272,16.4034316781193
29.4931677396368,-10.4719470559213,45.9162472591549,21.4939401259935,5.48588745739669,80.8404690641577,72.0191726124797,41.7522750227095,57.5270804757834,119.105589341107,98.6157054750775,51.6293899050542,27.7948480832377,191.576749959662,43.3561387335165,20.4047421861901,52.8667825656466,22.1933880990483,-0.273536576988608,36.6214408206782,20.40996857659,60.2482243168679,12.1886606944227,2.32970472329022,-25.1603004862439,-16.7473786255764,44.9844355199748,-51.1130322392234,-111.927992368585,-13.5236352982255,-146.510122580753,-139.26436425721,-144.057236287067,30.3296367226543,-84.528614599886,-253.193388076851,-174.371618945312,-223.857238093924,-63.6873913881499,-81.0872300916991,-86.301468337347,-227.501461482736,-4.73634393909263,-111.733502154906,-144.351737421005,-100.834779216177,15.7234333871882,-59.0741365745051,15.2536009229481,9.69171542514851,-68.9882383241699,-20.9963485497226,-63.4176884571908,-36.61922091466,-16.6944149957273,-50.4208472334971,103.160160980562,-77.2688788127098,0.540196390599214,-7.75891008347828,-6.18651736379927,-37.8761351253989,8.68930069379776,-20.9140065675759
-11.530354333629,-44.3867267366153,4.87135287683305,-22.9514494016214,-37.8038791682983,38.8178656980971,31.0929897418548,1.45428972582627,4.19623987167918,74.7749803789796,55.5430695245109,1.59153075563332,-12.9381865611041,136.287796891696,-3.47932909497728,-20.158209264236,15.6578113341934,-17.7623396249216,-45.7250476406566,7.73743683499777,-19.8673438239917,29.2368250525324,-25.5900454650378,-47.5539126032677,-54.303650868259,-64.7169970139839,35.7608767955071,-87.6774670755109,-175.361924702645,-25.4936160188117,-197.534562221625,-206.447965964702,-203.21770703303,59.9193975516047,-88.2641977412306,-407.046223588326,-263.972701312313,-263.961444199125,-6.25524427694651,-165.892285124802,-179.299429724285,-300.599537478589,-63.3879340100137,-190.72528919006,-252.978169888396,-60.0646476952018,-4.24815909591855,-19.443936392449,-15.6810229730828,-14.0401480619909,-47.9546030749711,-34.0650636928421,-74.5380005718436,-53.7647931002047,-37.2218893609808,-57.8746443924371,51.1204551170574,-75.760523767691,-26.1142669397869,-29.263508378089,-28.634297119036,-47.1804885064493,-24.8805978835495,-39.3469204975496
-8.67438419468755,-45.6940263242816,4.60978082956895,-26.0700254102745,-42.445788357069,54.0389869972647,53.0306698127929,10.3637632997457,2.12004569102016,115.57010843779,86.2824531219869,2.96513574058322,-7.92110392829206,182.305740190888,-3.0903156813116,-15.2328192339122,27.2017063020765,-11.5588921406911,-47.5600190461385,24.18979786622,-7.21929650167763,52.5720721477122,-2.86361986496202,-42.6880424179038,-29.939555002921,-43.4089517031547,85.0990533646249,-40.6575117008972,-151.867324367831,47.4399102693159,-142.975334270817,-208.440229454167,-197.897974345003,140.37431585301,-0.774143370284441,-420.72034119828,-313.141401362788,-258.274544815019,103.592664249002,-157.960638450806,-187.185954401646,-292.353008707521,-67.1620416309424,-185.961434289326,-297.576706033186,-40.3278057411631,-17.2922685349809,-18.5895666583974,-39.820606773427,-13.7699409870131,-40.6771253039095,-31.9979293850436,-61.7657853834802,-71.4993384257527,-46.9233923067033,-41.7895692653371,-13.8361002766983,-43.3338032021217,-25.5600220156284,-31.9490292023123,-25.9159931931961,-26.6439288175609,-28.2206783301609,-28.0235417883729
23.647472227617,-24.0346330379206,31.2515148001996,-7.65072058338695,-24.1763828182198,98.1396078576879,104.001319436127,46.4197369496075,31.4164285751786,193.907796960673,146.850660114134,33.8221846532287,22.4310622613785,270.382070980125,20.6289474100976,8.77309928205433,55.6262671524374,12.2009175455652,-30.2938984137725,52.5146683274227,22.6769374251262,91.357140287905,38.7047392247484,-16.3671371244076,5.31253474014851,3.23875884794803,147.38279366864,33.5282645279389,-93.5917381269913,138.519044099728,-41.8575221696904,-185.802556135561,-157.083450289643,217.448839952337,101.168514399509,-308.254919772139,-302.602230405916,-231.292093030916,195.425290879673,-115.679899078098,-172.804401077027,-220.448191286088,-71.5154618780814,-126.137208916439,-271.742540750211,-27.5278051732894,-20.8752064753095,-17.8160463351807,-47.367439611883,-0.362424681275827,-23.1800157691425,-25.1412245320505,-18.6958362094345,-68.2712958585228,-37.4469406646911,-19.0512774075119,-30.9310574189812,-6.64778897186428,1.92167759780394,-11.9770612990306,-4.47517998036306,3.97977251200564,-6.5935688213843,-1.38101434466544
34.5068387995495,-9.19004201931523,40.7106405065292,-5.43189821335258,-12.5311159151262,104.886258136053,113.008557278232,54.4659306287586,31.2778252003291,210.633030089179,155.2427563284,36.4696829722803,29.5677866421143,279.137545609532,17.2822389071925,7.3605470304226,45.6741984513848,9.46725197990887,-33.2735591558968,47.743832644075,19.5614558796373,83.0307376129151,42.4153975764237,-15.76280248198,0.190572821272295,17.0006035596212,156.424597530931,58.2540311205532,-65.6043427730757,155.841946972007,18.0083660187972,-172.523773204247,-115.590969552308,227.664469979752,134.87020620084,-179.417968301763,-232.772874855246,-190.677546230137,206.13012010906,-95.6003520065404,-198.750570954996,-138.131943135215,-91.4562764284815,-83.1091075116464,-211.280371510869,-1.01128230367642,-14.0699820010433,8.84620402163898,-36.3706677667605,12.3873284461535,14.6552631806756,-16.9997275021705,28.3000101430433,-44.4201408067989,-13.1869068981732,-3.49799967505833,-10.435852788528,16.0973868864556,31.4542676792546,17.7073821956899,14.4646883250151,23.5218032472362,13.7748179042254,17.433313175978
17.9714368522098,-10.4022332120962,23.4096094000819,-13.3573361689258,-10.0727860398696,64.0890158372041,71.6587163940666,26.7614170336459,-3.61729791157708,145.940140297612,103.20257023555,4.08750406796767,6.24389451608422,189.217828623482,-13.9465016738667,-13.3485909544301,-1.39500382734067,-13.3164330442632,-46.0443956005305,16.6433777828228,-4.03754380116841,35.3565703346538,16.8911297201332,-32.0108364769769,-29.9868423624469,3.05596318029461,115.177943607942,34.6777160769531,-65.2634023783394,106.34568918142,22.6510802751991,-142.588615970201,-63.9883267302589,187.716179048842,112.26733210226,-99.975574114453,-117.852587574826,-115.751332597374,163.04481454859,-68.5515766132426,-229.179647687784,-59.710811179146,-72.6042593942285,-71.614029612155,-130.919027704423,39.6309916662369,4.68127199129728,48.2507762682801,-8.97608217169905,26.3027926863416,58.2252271016574,-1.36920093836583,59.9005190324719,-10.6834303062854,17.4504294893218,11.021924914382,5.79005113755957,35.0492612958199,47.7246264207431,40.1664983757925,30.0914223334921,34.3932952285932,26.5283111718067,27.2304279275165
-7.46864854786031,-30.2342547235514,-6.22509164333199,-25.471874564735,-24.9954952224787,7.71058367030857,12.0928992221508,-14.5441199742885,-42.2636147865394,52.019737153472,32.6509625026954,-39.7884822186842,-31.5582947925239,67.8305236672047,-54.8621042513527,-39.1500217102743,-56.4415447413072,-40.7227702388947,-58.9297662123274,-20.3312747206552,-29.9696640771616,-12.952586707108,-16.9004870006636,-49.8980406094817,-56.7200084891787,-21.02176082932,62.2292390929209,-1.4412408533854,-80.3851917732779,52.862020118548,-11.7962811321859,-104.855455965775,-17.3714505736624,150.002842741538,80.8441745363949,-94.0930306373534,-20.3395722964534,-29.9527572524228,127.847683110744,-25.5158798380879,-236.991801989445,2.24999388988855,-20.0015965121195,-86.8797316597689,-45.8411331728465,74.1612635467754,10.9285656476268,71.7494988199851,9.3824807399099,25.3067026960004,79.767734281484,4.3712431392165,66.9748817646734,7.88720306195707,29.2119435154129,11.1609271301954,-5.99520481340152,38.0686806009814,40.777916213699,31.7757652380479,32.1452667985346,25.8124736080437,24.5923046096635,21.244856050967
-52.0121150306551,-75.5268993510956,-49.2386601461689,-65.1935883223973,-72.8803632521808,-48.4593854503988,-53.2131361919039,-69.1107985479911,-83.7361023855179,-35.6392454530048,-42.849378041404,-90.0542825055673,-82.0565683304409,-46.0363342817028,-107.046557741648,-83.8986731643139,-112.452234821752,-83.8699090976696,-95.3557022829424,-67.299028274997,-77.5747289367719,-58.2866042746789,-68.9720657551823,-88.3787671435305,-93.3119460493309,-68.2147731632038,7.39678185866542,-46.1425259905065,-128.822181050731,10.6375538951818,-84.8402604617012,-121.657030606892,-23.5210998163394,123.292473689066,51.6239212553859,-182.602446036924,-9.24040905081765,4.79137525776872,103.009738169068,-24.796568907788,-263.558324489509,13.9604425787092,-15.4669360876764,-137.667642597936,1.80310023112977,76.3866061649699,-24.2301177467744,54.8412143427078,-13.9886449182931,-16.9563691343575,55.7101112603349,-27.284183007095,39.1236866928382,-16.0945925394864,-5.13441952656517,-29.3314062692527,-50.2104017721601,-1.08799857070793,2.89743526086514,-17.5944773899863,-4.0397372201936,-23.6743375573992,-9.02264375069292,-22.2368633208239
-117.373887734833,-132.050411839151,-104.613716904767,-126.397124178187,-135.523761096987,-102.767474198466,-117.452163709059,-136.637216042818,-134.388428256832,-116.428865806178,-127.584046510911,-141.217207602921,-137.724283167151,-150.475356718344,-159.44613465004,-141.671527823597,-162.077891814023,-139.084950841814,-152.731360029483,-118.512180289405,-142.651837244391,-107.038142366589,-132.249567784296,-149.8564431932,-145.18464112121,-135.640794659922,-50.1385467165194,-102.436809540441,-204.839293435946,-31.6722988570024,-172.955349252474,-194.30889800737,-71.6362499278482,94.8439950714384,35.9108325428061,-326.168680522654,-62.1195421902006,-12.6607629457333,70.5652341700821,-87.3252580080325,-313.068050344501,-16.398988059046,-84.2368696526647,-199.291193844786,-2.3296978200021,34.6274003902732,-85.857991867507,-1.94850917407386,-74.3218356302933,-87.062376977507,-8.2847392857477,-90.5762805360499,-17.4289213094426,-74.0865836459064,-72.6793613810842,-99.2028415695051,-111.952167085094,-66.5985245132307,-52.7966956924518,-83.1923032862575,-69.9677031665515,-96.5047745887782,-67.7330890989911,-91.7827975912933
-171.76052790165,-175.478938991581,-154.892794093499,-169.960966839333,-181.500319317369,-151.40630465414,-170.258900450657,-196.239941802431,-177.551725786311,-194.320587546273,-208.035580085276,-178.311306460309,-179.471695002774,-243.251310168475,-190.668504241652,-182.337915005479,-189.86394659428,-179.949189433118,-196.270694583293,-153.450679832703,-189.455358481423,-149.517315196607,-179.553387093802,-204.375893124364,-185.730234148533,-192.142041522933,-99.3493266965062,-154.774153820734,-267.088890980084,-64.2206783617928,-237.370385305035,-254.0950373584,-102.465384906039,61.605466200688,50.8059817295552,-439.323896211502,-95.9438486475707,-29.9798524326271,48.7121388524935,-182.812395288104,-328.190582085541,-42.6823763654709,-173.36923507704,-220.685766797166,-22.5989453732386,-35.5331297353672,-137.806555404984,-69.5137841480101,-136.725365312249,-146.469747707584,-79.6201091772238,-151.203668708941,-78.1428040053106,-129.864550937548,-133.376818848664,-160.52303004401,-167.872256863978,-119.75854255023,-103.35943616902,-134.038817020141,-128.821354598426,-152.906753754975,-123.321585751864,-144.768834386793
-185.14562511671,-189.875540537312,-177.040262731148,-175.82157379114,-194.195743446404,-180.284012388087,-200.940595049696,-222.774988486046,-190.489456494631,-248.446417971473,-254.522098986951,-186.862308821205,-188.185540566966,-308.88366375717,-194.183633347616,-186.533941714249,-188.717794133443,-184.471434455281,-201.844863752802,-161.318974312558,-198.016199254725,-167.499789846382,-194.417277646885,-220.848713192482,-192.383996409182,-209.99071324033,-124.198049876727,-175.175688650805,-276.146583518264,-69.4407906799127,-255.989736636627,-247.245225325793,-82.9374798125096,25.414355601248,76.6617041944018,-469.2463671569,-60.7651669527363,-16.9990627881186,52.6824663418313,-293.436995389136,-272.379929673029,-35.600320928647,-235.330515546812,-172.189950159683,-19.8831471280683,-87.0001510090158,-158.229347329347,-105.855108030949,-165.765925946866,-168.516713011711,-115.937082118132,-171.644794701994,-107.426482905665,-151.082601829115,-154.798249564995,-179.858330568493,-193.347094611989,-138.011329777056,-128.435016004468,-152.440946603774,-151.022800222417,-170.183476017949,-148.419368261982,-154.441061161935
-157.69799201561,-170.362164466072,-160.925328765319,-151.222577134925,-168.328327795939,-173.479365952629,-197.316358214324,-207.615926687671,-168.567179168304,-253.073879629628,-251.715349424793,-161.876251098345,-157.538928929309,-331.699721822456,-169.441281309522,-155.380959787734,-159.887671884099,-151.129813401222,-168.202282546362,-141.722851568365,-170.849825922159,-150.164194311131,-172.461471053003,-189.510624422979,-167.727883434044,-181.537716650021,-119.56999608042,-147.460892450824,-220.626152003921,-44.4971946330874,-215.953118299814,-161.942014290909,-17.1133989824019,-7.59086577498135,73.6503565892738,-387.849432077681,43.8115232777077,24.771469034867,52.3586324541437,-381.157281982452,-150.292131437774,5.9436741982714,-245.890627131226,-62.3168751598126,7.69940822371809,-82.7123750795989,-141.73435426048,-90.2361795814509,-146.69048258007,-146.778649546984,-98.1780350413013,-141.090319590605,-78.4138179473973,-131.364517626668,-130.13780907562,-145.2854552561,-175.838307684987,-117.133356787573,-115.241796215578,-133.728972007636,-129.681524006038,-144.92029751963,-132.541298215338,-125.843440176055
-113.00292671369,-130.292007219908,-122.941115332981,-111.167956897113,-117.112520590302,-138.645157841727,-167.114131562088,-167.578525825712,-129.188639957296,-224.713216050635,-219.202739374105,-119.852843739566,-108.310162356018,-325.610835075493,-122.655819376105,-108.016019493539,-115.560890219544,-101.790011874994,-113.52016685671,-104.212646361712,-121.446553536462,-113.406051635382,-125.491327159329,-128.479321704979,-131.457529416212,-120.57496294864,-105.090481056065,-93.1600050259146,-120.386617479946,-5.30247277293122,-118.907143651946,-12.4141111630742,77.3388880423818,-44.5263769212366,34.4420242652552,-174.205087665234,191.688373530942,80.2560923207497,6.74414106465322,-352.578411913173,23.1806584421276,65.2351824605362,-187.282489802005,71.238577071713,33.1153510163257,-41.8316352812994,-96.1031582966674,-42.5550772747523,-92.9828904277101,-94.9925756778956,-51.3305594795466,-85.6364852955818,-9.42671080088505,-89.9490271498921,-79.8477177005952,-80.40560082349,-131.620689707564,-69.7253213264735,-73.864750676752,-92.1640439710119,-81.1300691151693,-92.4682174040675,-89.5994084326237,-80.0576553183793
-66.9004426928088,-80.7561836993832,-80.6254571981968,-64.7399470861822,-60.5365258963518,-95.7447031945395,-129.995513313608,-120.122548481124,-85.387427425458,-196.628250035489,-181.791080454942,-76.2940902905988,-61.991291725531,-316.98456302466,-70.4243064226194,-58.96556391128,-70.0697404125912,-51.8831282181364,-56.6657605444786,-61.4067087128375,-64.9834152704991,-81.9521283637322,-73.1763894031578,-58.3790636228376,-95.5300894302068,-47.9779202870173,-98.2182306626285,-46.2815322662561,-1.28865369313276,24.4692673502988,3.68333130434563,172.831839600039,188.785750492396,-112.550416583689,-14.485011232041,131.096717354271,351.75417732343,134.951786508908,-74.5221721618528,-165.719517914997,218.486982876828,125.93109871767,-83.7272679009759,192.019108254526,44.7727564029478,-1.85023665962769,-32.6379305336019,7.69988249558332,-24.5012736729177,-29.8686407856109,-5.90439207932134,-26.9599393102658,48.3198807035423,-38.9078143066986,-20.1413825034965,-13.6956601478091,-81.6090559387506,-13.3617655977012,-24.8935951474005,-42.937817078922,-22.7915258136585,-33.62534567729,-36.7129824023498,-30.9922406777544
-19.820305216604,-20.0488760087938,-34.6204549682665,-13.6730966529146,-5.80925960461595,-52.514228887711,-89.5749603928395,-68.2400893975731,-35.7749569282287,-171.838594407075,-144.276059998188,-26.8114345156968,-14.4367029525752,-306.071245277917,-21.9574942209308,-6.66084263897252,-27.7809463185116,0.243446981506174,0.498621775466984,-17.1343343145629,-9.31220131650745,-57.4318016340191,-24.5719328572181,13.030833534851,-58.2401364687559,18.8403561673648,-91.5036861913724,-17.4383369078027,114.205707374375,20.7917038127888,108.230830459956,349.438088523343,301.884179820057,-218.691603263684,-64.6411271436516,403.366163076265,488.476372607578,180.43299673268,-136.079100612526,72.3580896608935,363.57607589894,177.810824180864,-14.6123045592894,278.595473258208,58.7282297429488,28.1393558570634,34.5768984925099,47.9398098422216,40.8163881921491,36.7403431681277,30.9504586773514,33.7298000337807,67.5976625836723,17.6804714654226,44.3853267150436,50.8141222027391,-31.7392779049903,41.2943945527551,20.0818251467484,9.74417870735673,37.0777511893742,23.0857796070022,16.3291775541687,18.8981877255271
24.0006792296375,42.4105999356267,11.380054846979,39.2447827818071,45.2120827040266,-11.1101917509191,-46.1566360223237,-20.3044465278316,15.8662416254924,-137.810080836167,-108.135509734026,30.234131584877,39.1774643663488,-282.766617976326,27.0764317276358,47.7433282693932,11.7847380703163,48.0006404675045,59.6682090564523,27.3790449655183,43.1647743942051,-29.2767527522343,18.960534064864,75.1549348420056,-23.8081472043387,69.087147138711,-82.4566995846552,-3.41537916660741,196.411201683684,-37.0643311360063,172.594714247459,469.132580214508,382.208963943178,-327.37671580351,-143.184477727172,530.39790388793,556.763324284133,205.861862049896,-156.580804034027,210.145931478129,386.084872384766,211.123482940433,-32.1002913247124,310.709092428757,92.0971280384311,49.4233116006518,88.2242101252388,74.6243078366826,84.455733916831,90.0003326630475,58.6917731353068,87.2912883870476,65.6403441246557,63.6420574831728,97.6528833784608,109.707341806378,10.889984384441,87.2043068983479,53.625156793126,58.1304197972594,88.1680300321827,73.9640362519543,58.3801735168512,66.3224634777751
52.0812287724568,85.5923746205013,43.210815656382,79.4802629209838,83.0960164306514,16.6423774931312,-15.9027994553437,5.70096083749204,53.3320364587424,-104.33081574156,-87.211765766992,78.0493023749595,79.7715186789189,-263.337052313962,69.4456676974098,88.5996907156071,43.1351979749373,75.8432364281384,104.228851667127,59.7807596582471,81.2528900554935,-2.96472315504932,47.4962667886816,110.433974322637,-10.3834185085384,95.1070724738068,-91.1530081128477,-12.528659774408,221.503425818095,-152.533014068813,187.64379210975,509.851536238346,400.428616521435,-406.451836137686,-263.931805209656,510.824235501513,525.60291244867,209.65815038995,-183.963693064415,198.111801598251,290.306072481956,222.724868692011,-109.682893028472,260.576423989972,143.481441490074,56.8202396380393,117.820114597017,84.3264809521369,101.824487708327,119.596813164691,72.4629698519017,114.929541646895,62.3220563158276,87.1612732114225,123.087669838659,144.654790356595,34.295119635377,115.870132351659,67.5511410029045,86.6579043269281,119.724291234846,108.590800153144,80.9804081382622,98.9509489292844
62.5310834814736,103.986049762326,57.2258101379152,94.735677404933,98.7137660165025,21.5462049315742,-9.38704583843647,8.53473056176624,67.2261780496202,-97.1282378606453,-89.6104885327882,105.633099627754,93.3245277692624,-270.010793801508,87.6836364458009,104.554275011426,59.5323707244899,83.9987446321132,118.649491495927,70.7417486976187,92.8179328482315,11.4112304636299,52.5452744902697,115.810973360761,-22.5588410646269,92.7406429185949,-120.840329395607,-47.9280776436603,198.209303821155,-291.743028672459,149.869165587325,482.56657186829,361.530127489199,-461.36520576349,-360.030243674428,403.829666556597,402.21670731617,213.599808639718,-230.246480694127,101.851073980385,138.772320026894,212.747340378476,-176.104147786008,119.108576714131,183.823390482033,56.3030293416787,125.735881204271,83.6513653250321,106.81382244145,129.885953817619,74.4394681984562,118.553573391009,56.4023664400468,96.2532529239993,127.54909498392,150.866584825797,40.342199972421,124.774452958853,64.3071856920063,89.9134104044081,132.507774862221,121.253554576046,87.6134070297071,109.323962789886
72.8587806605696,115.611566741455,70.1496198335653,102.662677181098,105.048793119332,20.4759167066251,-8.4401161748591,15.222833786981,74.3911650829851,-106.41165220215,-93.1656501392576,131.325110495878,101.534573873844,-286.823648553001,96.2137713573057,115.593425633715,72.8650332003854,96.3819511304483,125.207323792202,79.3231016926157,95.2056366186684,26.3500154316332,54.3821205080148,114.969511538807,-31.0156499447198,80.6226410371362,-139.371765754344,-74.3023380062043,164.002547115756,-392.709460089345,91.0145230776439,414.465840915568,292.050611396619,-495.692615172988,-326.459580491452,236.201249256732,228.260946056788,233.134753552079,-217.225615301124,32.55486421009,-16.250003638291,182.68320622598,-167.291992573486,-53.4782771275055,170.859162469488,64.864046749807,125.865544181004,89.7316673608414,115.536848376094,134.077340552512,76.3428014745083,124.171353970126,51.4606063115144,105.67972385247,132.182267844228,151.114032606779,46.2469535492957,125.664947675886,64.547914817206,87.4501016536499,137.92042320023,124.827769795115,94.4662413670065,112.76383991724
76.1478082657925,118.985498772932,77.425229280281,109.697004996112,107.972828511115,18.0398990153653,-9.28046464074389,27.8877682044882,76.6947879604031,-110.411866447195,-90.1471743506389,153.086411378196,109.036373286792,-302.326780527172,108.382057114545,128.072703509286,83.7689580228998,111.215389643356,136.148285793278,91.3058400760629,98.7922518910148,39.5127501862957,58.3668386160689,110.422207254405,-30.1414308603021,68.4473425660432,-144.291816488196,-73.4712911900903,126.880035892929,-434.813321775002,35.3308143273289,308.25081034123,178.708122104885,-496.513119138301,-193.544956277041,24.2750067161325,38.6633840358528,234.325088345008,-132.556526683817,20.5279804941062,-154.203865296459,133.532615924754,-113.777495648129,-173.773024631739,94.3655149126588,66.6089470977924,113.174658103795,86.5897901610574,112.41194466937,123.74074843449,65.1624363712849,123.822740648733,38.9199290178084,104.772917153335,127.901316569273,144.995175500835,44.3765497705561,111.90846239526,66.1604907819456,84.1294573310023,126.762118604748,116.853476328977,94.9875108876033,108.666788244421
36.5763360547864,84.3681174391394,44.9163137100555,80.9602434424125,76.1123083124891,-18.9502064779932,-45.1509008422909,2.24594319886516,36.5099981306051,-138.953370743752,-120.46587903034,123.291423860408,74.5474667762831,-349.113773994737,88.4221091308798,98.7130474161994,58.8733353525202,83.9428541978527,110.663773597742,68.4726330422131,68.3620219978255,12.6594460339808,25.6946738330048,66.6442004958093,-58.3889568183688,26.1615212445535,-177.98968656904,-86.5763855110407,57.031239390425,-453.963253180887,-32.757701864779,146.114594739061,-15.9766041957904,-471.267575847749,-115.516880411711,-151.346298858501,-146.409772471708,166.446740406953,-77.6324182236346,-3.57947792998799,-251.953553809055,64.3649911354849,-114.906074240395,-233.378804097859,14.409401487523,23.7801247264372,63.3905650105502,35.823065239559,64.2626822066214,73.2632922219997,12.7750943184006,75.2467226561237,-10.9439831675007,66.6899944035711,80.9000838143351,97.8361003237507,4.24794470187419,57.4598877296439,33.0177588774928,49.9154453067543,75.9179037236827,69.0877965326306,55.771660409571,64.1663603390978
-32.8720382072099,21.2397274454884,-18.9481017892114,16.2636788888843,3.79967338663906,-88.0067843541287,-114.669330170443,-66.8181368817415,-43.8032586340257,-211.721369592644,-193.110827385437,40.9489992241911,-4.41631479080542,-429.42585271511,26.1003691612867,21.471971395962,-0.452947632254879,13.7009118124184,39.0328281741047,3.90455878201213,-3.02356982293787,-52.0150170323194,-42.4703207698334,-10.8232345819795,-109.113047281766,-45.09485361142,-239.765549683759,-125.379434368357,-24.9423866995887,-454.718984084602,-87.5887155733849,-16.6676258270922,-226.634640380639,-441.560164367243,-136.829276817954,-172.524779554141,-261.58293403024,53.6850751602479,-88.478148161386,-48.4368645880471,-254.567767523481,3.4189837481089,-150.426185632659,-256.101299294033,19.7275122083336,-43.6808681571404,-6.28251289510175,-40.1277673089997,-9.18299609063395,-2.42868220446821,-57.12115263122,-5.05833134812762,-82.5903915825442,8.06505671463733,7.0335240811223,19.1563362126752,-59.4004488959864,-18.2330429784809,-29.3064462046605,-13.3791335267804,5.78552234632082,-7.01152319234936,-11.2599683018928,-12.6539103897878
-81.1373220807881,-27.7222810604705,-65.3992105923976,-36.3020171651847,-61.9458214351478,-135.355098068212,-169.905486846248,-125.60685226263,-107.011888711809,-281.313989520476,-258.486914663344,-28.0507864187328,-73.0132432108957,-491.962668998079,-27.967738155631,-42.7053803664447,-43.7848177686006,-41.5100418736392,-23.5289474101089,-51.5358250806119,-61.7488430700469,-99.0063097215885,-90.6811572178419,-66.5039440137165,-130.643090256255,-90.108890103052,-281.119963149096,-143.021038065771,-46.7019401783031,-402.136735755941,-71.5749701127295,-62.7744499967356,-313.160670889079,-411.8348912483,-159.699891127965,-5.66617612661808,-230.011864541811,-8.0117517824287,-98.6447887609106,-55.0363487007414,-128.274309341529,0.131212921170934,-91.7078273885708,-223.803019596912,117.80416528899,-82.7417682018595,-51.3509527098875,-84.6800652597732,-57.1795088403976,-59.9240243406663,-97.6127743353011,-57.6394622126732,-129.554502727803,-33.1268376508117,-44.442877306956,-40.2456458546649,-101.754872609662,-69.3832972372488,-74.6702313023893,-65.2280712739702,-43.8158002373187,-64.2835664216136,-57.6184603511454,-72.2577270724006
-104.124934857975,-58.4658819686628,-86.1219715233084,-65.6789904676746,-95.0791607344441,-143.724450725462,-194.546455132134,-150.839922063658,-134.121985294756,-312.272882428615,-291.167414041121,-52.9324891280324,-108.263608144767,-513.396915823961,-48.8139135737819,-65.2072801738975,-51.8851683940299,-58.3910397992556,-48.5644778915275,-68.4395475878904,-77.7406552253574,-106.025477707379,-99.1368903715374,-78.3359370443222,-116.594354861812,-85.8557008489307,-285.013781853731,-125.393095465627,4.83976417675439,-302.984206240899,-10.1100048617776,27.0801208354357,-247.049339404598,-369.087471147895,-128.105388094149,247.528621449376,-88.6913087448674,24.2644903034175,-74.5442412200007,-46.8594945942372,79.4358734224668,53.7653191079575,73.6071585743587,-120.204254309834,224.264303536911,-110.645011356012,-79.0098625665798,-111.626908199578,-86.4154576391273,-96.4416765744742,-125.578508273978,-86.3486697754443,-162.516957588856,-70.6071049132519,-77.6324722481811,-76.5807860066916,-129.344892892926,-101.843727743968,-103.218675479065,-100.359370896851,-79.9889442646286,-98.7633873868127,-83.7815141350588,-109.143810623753
-131.702725343804,-93.7084201025136,-110.011806930125,-98.8480244906641,-117.345983983655,-149.950927122735,-213.828925278065,-167.825281165086,-154.95022709762,-327.401712639647,-311.484070989806,-60.2636241254273,-132.567031994029,-517.531890934558,-58.819258587229,-74.990387327298,-49.9446928891327,-61.4356643417466,-60.8936359301608,-64.8051248970985,-75.3227894582082,-97.9480548576766,-91.5178788123694,-69.8973570997026,-96.9584370528345,-66.1230553958192,-269.708594884915,-110.631738211254,58.8053556348754,-209.876616266317,3.3401220702448,127.421166427849,-134.516318137209,-293.039224852568,-79.9938356879175,414.095572163283,22.9024370588957,75.9483224682826,-50.5205517173452,-82.3813331792956,254.874022459924,100.317885568827,212.847738546694,12.3970238235081,263.922157876058,-190.693345603131,-135.614101046492,-181.688597976862,-143.181823847854,-144.719798126886,-192.349268388896,-140.868156328924,-223.508901645207,-137.137235978444,-130.489237280734,-126.522008436296,-178.313903422431,-150.247642113423,-147.327961477982,-145.837822125915,-129.788496289348,-140.99789152607,-122.399334388937,-152.050112630431
-157.223684627997,-122.084635438874,-135.604110760984,-127.505724049643,-136.391264499196,-168.811462950673,-230.249190732848,-181.181184938316,-173.86113534226,-338.792488465802,-322.457143633383,-65.8437724892893,-147.121439958417,-511.141078399203,-61.0422242078931,-82.2712803559373,-49.8518756727093,-57.0304278349861,-65.5645750277348,-53.3485308563895,-70.1617348533335,-85.5639601415196,-74.6967787831268,-53.1533403113062,-75.7942399256875,-51.3910875728279,-239.183203701784,-112.577987519036,58.2047708691405,-148.139476218269,-54.1523359691158,116.27692038403,-74.5266955171111,-155.848989744558,-33.93917848153,359.967000955333,8.40844688202405,70.8255153461852,-44.1558499435395,-109.947463616363,288.58798558735,92.8658929458813,239.719079152604,95.440092134035,225.42733901411,-296.190734675885,-209.683983015211,-274.946318528209,-213.606117385363,-200.24097958258,-273.093850693206,-208.720177233651,-286.264623334654,-200.536771314904,-186.908404203817,-179.763972556739,-224.741717529364,-197.976303546969,-188.324778789723,-188.042644920806,-175.74857374264,-179.745127926878,-158.554547142834,-185.366218732283
-150.896643204152,-112.829914508378,-135.998350700232,-121.025887605318,-126.922669005887,-175.488134077816,-220.237683858682,-167.492695776593,-167.557370046997,-321.534937292135,-301.666272682396,-64.2017758929913,-137.040308949272,-473.776965262637,-44.2892398921116,-69.0914305112906,-46.9132154693692,-37.8914235121848,-42.739152620743,-32.3772893076268,-50.6210546287487,-64.5966401186779,-43.2768304144598,-26.0979832199633,-44.2890330002727,-30.9822710073029,-182.647828554173,-107.955470219695,12.3214200850465,-88.0753527123596,-115.137875603105,-12.2801920640702,-102.341541986173,47.9171142894504,41.0591549959985,88.7147671412314,-128.768878274167,26.9147362285701,-20.5629705255204,-53.1877311748388,164.781137590619,42.6111982450902,190.778632129773,90.7771542762392,137.645252296212,-305.482316529697,-223.204896943933,-285.376148534919,-221.051273711392,-209.085604296335,-272.466307452566,-217.119367278356,-273.083487458539,-191.667553500305,-187.596878043482,-181.172697486441,-209.02914576986,-193.850614842894,-179.100460219714,-180.428482688185,-176.65745089499,-173.430989131664,-150.855814756854,-169.346249648707
-135.222890914971,-89.7824032975618,-128.848837942532,-106.513600539803,-104.665750893212,-180.606790030595,-207.540181012009,-149.710711489038,-159.070367360565,-293.968983594681,-271.272793398659,-80.3314877775879,-135.481718906813,-429.866958316216,-48.4332109781201,-61.1697919088152,-67.9578072290839,-40.7053364690676,-28.5135953157627,-34.712855938506,-41.6117086818499,-66.1610311169447,-32.4741927550278,-26.8537571348227,-29.517256532298,-31.0404872166691,-124.865542452218,-105.443174276298,-71.7716648219471,-18.1267872456715,-157.525968431575,-212.826573373995,-245.727333918309,241.911491560878,113.567622244298,-257.962242547295,-359.39677938599,-53.7690638090929,24.551558770406,21.7832994240335,-38.1656223693913,-52.2239561579131,104.254796159724,29.5612643597966,8.82361032131071,-185.857768199447,-161.769078372973,-187.190857958606,-153.635630158962,-163.539141029737,-177.42849857488,-159.642417162476,-187.810586099408,-119.033504543685,-135.671542469867,-136.893443084158,-148.807445876402,-150.798676133778,-138.468570534351,-137.749190739945,-147.28941567587,-139.161728160831,-121.444494756269,-130.187378291599
-152.536446036687,-99.2049945815157,-152.016602620979,-130.598973756962,-117.065346329863,-219.244255103867,-237.936521734405,-172.634199795546,-192.626597752273,-307.719439540778,-278.379355088759,-140.256624510373,-179.180450659504,-429.821470135033,-110.908182899379,-102.546002829734,-135.553767676516,-99.1254783104773,-75.2246788072888,-93.2297229871208,-86.0791820034924,-118.109965255192,-79.6519777508566,-93.2581933823049,-54.9413601009386,-91.4673949690903,-108.624524508289,-127.431673321587,-207.177867819205,21.6767774363308,-218.635793131883,-446.11162465286,-498.908565717289,322.011191871219,102.149858822722,-498.657029834894,-632.096454081861,-213.690242584666,44.7790947910598,9.42895147687132,-227.037326361411,-210.243496381614,-28.1797255829996,-32.6447615153129,-166.976837901846,-40.9184671839019,-98.7560215147381,-72.9930385361821,-83.9492537890752,-121.063081525775,-78.0880312301727,-106.312327221422,-112.036201676526,-50.735508347755,-88.0156712030043,-107.4038747013,-105.963205937174,-122.807811887329,-115.170996475459,-112.547744644491,-130.600236893797,-126.152242748849,-117.195595301104,-119.526770694264
-176.087696364617,-116.401950800855,-178.931814990962,-163.153603921754,-143.524807255118,-256.511576014652,-275.822690983949,-204.195850149471,-234.937396965826,-338.162278604858,-299.390048376437,-196.208159901377,-224.664259386623,-446.919368222067,-175.40281567436,-158.263893102805,-196.16307746952,-159.131671911404,-135.798209554994,-158.933226853382,-148.4503996421,-171.265363315455,-140.662110344768,-173.576664428933,-79.2017198437087,-168.818520942215,-113.94788467103,-140.258765598204,-350.642963670208,25.1771436811159,-280.174659280122,-643.80317580635,-743.439326399899,285.431959183379,24.7145678694,-544.33560882313,-818.502424505303,-385.361685390622,38.8354227592934,-55.0095721834168,-337.966923904835,-371.633735484608,-183.412291149587,-65.0113430411424,-335.441561139226,51.4750247105604,-74.242630158668,-1.70164888981107,-49.6291641289283,-108.694181429748,-15.5791122783444,-83.7828784950386,-62.9406121795837,-1.52264098004787,-55.8470480369333,-97.9283064961895,-74.6700717136478,-106.318891121693,-92.5249463085752,-92.0727353060257,-114.352689697893,-122.422432959247,-113.5847409223,-119.143607858222
-165.548574347383,-100.317794039369,-165.738997573596,-156.282023391544,-133.441048044611,-234.421914060484,-256.984508697164,-190.090684778228,-224.221171154611,-322.676789398869,-279.887638527803,-191.31427760857,-216.948351690172,-415.607743177173,-175.397626330622,-161.113768724742,-190.190202132076,-154.940384511854,-133.318605703842,-161.193076435478,-157.155779067157,-165.211253116016,-142.761766221759,-187.810147964744,-56.1506130332216,-181.744548176066,-85.3020119614977,-99.9386760605864,-416.167113368277,46.8773653998052,-281.981633873709,-727.764065934627,-820.12996799963,208.089933035939,-20.8705566458388,-452.537076355777,-803.320919361951,-437.311324136321,38.9483204473269,-81.742163578782,-346.209784520473,-439.271015091694,-313.125934733884,-85.7974950158579,-418.726812915118,83.0083895571095,-82.3442226733729,31.4924559895348,-45.2187699255127,-117.640592588628,27.9112926359838,-76.2891078311984,-11.7598352892836,37.3961206367472,-34.0319905773895,-84.374712747431,-35.9948724308676,-81.5478515496476,-48.3206732453008,-52.5066560344975,-82.6668734655156,-101.298152013986,-81.2957021728699,-101.530284623802
-133.465818665696,-63.2221673507951,-125.113535606513,-122.978504805446,-88.6698651742786,-169.713044053619,-192.728231492481,-140.831333309357,-167.044109725108,-260.962966653087,-217.828174413416,-144.897217768761,-166.889080327501,-331.398929696309,-128.553355594417,-110.498641483269,-137.45795044095,-100.989087284827,-75.0589908526052,-102.585032187929,-103.02257170658,-111.419844920026,-75.9730101193237,-123.394193652991,11.4478332835246,-107.834627590443,-9.96051350291089,-2.90100033145464,-353.308012949512,127.308184914021,-193.875611932027,-653.304862750845,-650.256071763649,151.579275396148,16.9928214632258,-299.137228856102,-581.266970582923,-338.358688767144,41.1283066792192,-49.3827852171092,-243.435624900775,-371.825951090041,-377.490420446543,-108.905527203335,-383.059015566703,69.496385111738,-102.285955234006,36.4548578176695,-58.5675227760633,-129.821822089105,50.7644633780891,-72.2306508950775,28.0590396628107,52.4416826266885,-30.4382090265129,-65.6222412245977,-17.9461924962676,-55.6783225074016,-13.8355415059214,-20.3064647735967,-56.6707980249377,-71.5809959156411,-48.0075045950342,-78.0569621721724
-95.9142199717157,-20.7786996896297,-86.6485727522196,-84.8796009697246,-29.5834274841244,-113.611263187307,-128.622909524547,-84.6947808866047,-105.920373925521,-188.269584816908,-139.522808123112,-99.8683649785038,-106.795109120478,-233.347427834541,-78.6009068476539,-47.2550701791873,-83.8585972510393,-39.5061906526177,-4.1772574577125,-30.1565376976733,-22.398041166927,-48.9542881163097,18.9929796381171,-19.0714837365648,104.06039742913,15.4617313733369,87.9239119048029,129.616452743132,-185.776488122164,244.812246591795,-30.5087821607058,-443.173008833284,-277.841051767444,151.027688776633,121.985116209306,-93.8261128503411,-224.916433059499,-131.474879855801,25.9205380240693,27.8006011816691,-49.6949767317545,-172.147552341661,-343.453600912709,-89.1336061126363,-231.844417364034,56.2852526770395,-88.6169967430529,35.7374316530579,-51.9123054441101,-108.062562364644,55.6193004288382,-46.357990507152,44.2575933281418,57.104129701048,-17.1482846982161,-29.4700239708744,-25.0720700859268,-20.4975010923422,-3.37159444193282,-2.73656260282652,-33.8547645261898,-33.5959626137596,-27.2420197394223,-44.8973589151933
-52.5459626782972,23.4062335902832,-55.7833374962529,-39.0534901701415,30.1427765937879,-80.9702904583496,-77.9190039188217,-30.663701206013,-59.9102331056752,-123.791762902585,-64.8735409465655,-64.6430853109289,-53.6030658942967,-145.590622108557,-36.9748515598418,3.41939348781621,-43.2670840243473,12.6252072046396,59.1021406210167,24.1957470471167,49.4046127984355,7.45157444952959,95.8312944609434,74.0049817929434,192.670553054999,125.410318419656,179.018355811256,249.810277883567,-6.62816167780776,341.69237557671,137.217373474769,-214.3100979432,122.298636448207,208.217102515761,236.099010045278,105.170173327449,139.036949640688,112.403022048735,-11.6489749767349,106.066953541971,125.045364808157,98.2855623628523,-237.297503985937,11.2298568064547,-30.0876026745373,65.619665111175,-34.1188672149765,41.8851837408541,-10.3040354535463,-53.7300745388575,57.5951781196819,2.75309606514754,53.1350019231936,73.1662491603626,21.7326656053057,20.7629756774464,-22.6479737632216,22.0716519245972,5.56722338272333,20.5802798384326,-2.16796999028747,9.43038788013575,-4.40585239194088,-0.687134850362065
2.70134102895404,66.3628967061223,-12.1537400634089,21.7416545701578,84.0484403486918,-37.1259718692985,-16.1451069759767,27.9884852902051,-5.59924722934986,-50.3077009695557,13.6655893763496,-18.7628451310482,0.892454341430288,-43.0507078473308,14.1806367851705,52.0518697790201,1.84313731592644,62.6431533187981,114.96169257523,70.0166228290657,104.782558285583,70.7610661698128,148.421409451315,136.720882655452,255.726492015856,193.684209303181,258.504950716741,323.618225194863,115.178114330965,405.812465330645,241.824062798804,-61.533268885774,364.380809161805,300.012788853052,307.398614270107,196.857726199048,393.108971873416,298.802094410183,-31.08578787018,117.921636459622,166.77483171367,322.478395431432,-130.085711597888,163.711567323109,127.014909961776,79.8982273255368,21.8385657240702,51.2074631337186,40.16523472478,-6.42267045829707,70.0561008245677,45.1598098757765,75.4840948861359,98.8510419444418,59.9747508346112,55.6633770892969,20.079014534031,51.278923422301,35.2022573918802,58.7164827790679,30.1222376954149,44.7935918665856,30.0604969400857,39.0499537936685
79.643519245763,117.072103524419,63.648036216247,97.6960128817713,138.964261966026,54.2489458687316,79.2470431312439,109.581740202772,86.9201468050904,65.3387098715633,122.913149209251,51.5705037125651,79.4430712609427,117.162994850304,89.2277527603472,119.569179711447,73.5359441097784,123.443475106337,167.808518906382,132.395869606356,159.079775770709,155.258182571535,206.660956776868,191.703737598668,302.830093534896,243.497522153627,342.710129585757,368.316989913416,198.396978901264,472.005409203518,293.236893091287,49.0684512989723,428.622727234655,403.563043991171,337.093314378342,201.001552178036,523.471495116271,381.786762119709,37.0475446765885,65.1238255327653,115.086375140943,421.580971979681,-44.2159920644159,294.559297619736,199.290946031184,105.476238901126,71.0889217225296,78.9221835042742,91.6672889565594,36.2585073460142,107.807228619447,82.0272896683733,121.895229646518,134.230907244849,92.2617236576614,79.4746979338045,102.983580875161,79.1076982013973,92.7479126087422,112.492903771042,66.6172823104749,87.1270687279971,81.6205383117413,81.0370224019529
155.150307808085,162.910234144653,142.067135527725,161.127094133836,180.039693582116,156.881004852424,172.498414168304,194.857479324079,182.35303827491,194.21040011295,238.357865191682,115.228899343218,160.159220742449,298.538998050058,154.376638477481,178.929197733421,148.553202382869,174.977373656191,199.00929056533,189.858656662832,201.395501277454,230.256297667588,258.089380272131,233.514862511287,329.315818095147,275.145015800848,408.140289547293,382.556440026633,261.894612532705,513.768478029595,317.379729270071,167.153422775946,427.105774787576,469.076327808518,333.821838716148,218.506402785493,567.978368448702,380.997298560968,171.953045796693,28.9352010632323,110.136720983882,393.47396008105,33.5194999129452,335.162786688676,179.246502642435,142.669297357596,116.316895858554,119.795130793131,135.48761725667,84.8039853891275,148.25982864245,120.483232355035,161.281728884613,165.116815181574,118.90145392272,106.287260410572,173.625196721687,113.746716843764,146.128739321058,155.252298612968,103.318820119944,135.787295379144,128.903108572283,121.988077768018
179.690169915007,165.281075791695,168.311487194393,171.401527813212,173.968187323322,192.475970070878,200.731026925727,220.881064635065,210.347727936624,251.990541231486,286.263193051668,124.597364412461,182.432161836111,394.698181497015,158.277676122324,178.118463656937,169.536081624566,175.562969045888,182.6908833974,189.430121169898,195.12634234062,241.253051723059,246.777882117241,219.800932646031,301.296525169149,249.354500396601,396.096461283814,318.983190725662,263.530605935822,449.317870169205,286.220516623372,248.111917184799,438.118611960781,433.519912266882,259.809057988819,253.415134559801,537.693709185203,325.436441946988,243.869249953349,34.4656816054881,201.633982100385,285.196026094952,93.8028824821251,289.182806672407,80.535095761018,141.715449959011,124.267615364635,119.937589647156,130.906278196313,99.2515951678253,137.266320141265,126.879624356686,143.846027218189,154.107241628393,107.7962084437,108.835373967878,172.854837454171,115.034976534603,144.039438344604,142.994299639882,102.950702379427,142.319055160803,127.589387873029,122.105184301911
146.917203331868,123.117220262745,135.186907450097,132.473719347167,126.865405350178,145.610722056826,160.078988255588,172.486866730479,166.405691905117,214.299032985291,248.558324783665,80.1114102588935,136.773555203835,368.37508925072,108.656541899587,119.947679121094,127.103289102567,124.444569390522,128.800459435996,128.194594086631,136.470605323201,186.401030508154,165.941752837293,147.435970838263,218.552872582243,158.89343534566,301.556969288101,177.140660203403,174.450074200614,281.493335248329,174.515905315005,229.053689852883,452.182361389294,306.278003321091,93.4286664544855,237.376492259694,447.58361150576,239.262223479187,166.836689069388,15.7310694405401,299.630098061522,166.187348862676,128.239742754942,220.657237116693,-20.6736741112793,73.9316678051023,75.1629696192943,50.8840484192055,67.3731011636084,54.4988957701937,65.4037744895166,78.9107355284018,72.9584982640583,92.4348017032983,49.2721692458525,63.9059113702576,110.676479495313,61.0797605369432,85.196734837873,79.9973564537786,51.9542358521831,86.5539156214757,73.49425106013,68.6457454551452
108.310361454304,84.6653559329871,90.7148858404141,97.3761223121605,87.2850756372037,77.8075184420746,108.666164218954,119.67930112637,113.664112058374,151.982579637144,194.47535384798,32.3823143176788,85.2620541783265,303.902217197752,63.6575769919203,59.2537330782056,78.563361500555,69.9172326305247,75.4996321625586,66.3498931687422,70.8284178021675,123.090279573468,79.9133961720202,68.9859343518941,134.500102146574,55.4645553239695,196.795816726965,40.2032929835553,51.5966986161505,121.80729279115,35.2686772886893,145.947732863779,435.750624823907,175.419894361376,-93.2959394902048,181.305056098936,345.173188828119,154.730272886001,2.28273324451791,-33.6580220685931,317.294140031726,91.7741584210218,155.106784117609,171.155320289446,-43.568448765739,-13.9849989796442,8.92849984401451,-36.6886964079118,-1.47251257989725,-3.20520200753076,-14.9259033641882,17.1574364349057,4.78554810207451,22.6781558609256,-8.36720839616103,6.9479776317306,52.8614477349756,-1.34690848945822,23.8031653177781,21.6667678448507,-2.56128008929041,22.0093073434633,16.9401998416297,11.0950252776739
103.344949467057,79.491873347154,74.5429153930567,98.6731998941506,84.000364284938,47.4635503801293,93.9872113077262,118.449495190426,94.9245114470303,132.901066121597,183.759573340287,19.6150413831831,75.5778766963431,292.024883046721,53.2367327109445,32.3658620408471,67.1895572717223,47.5808891926565,45.3544289688929,47.8822538514555,38.5176668328541,93.9336919933708,41.6906035285974,27.6415073003296,92.0568969779539,-4.10099290074014,147.069125777047,-20.5186359549626,-12.7227016146675,54.3887729922152,-42.0809480993985,100.407999897286,390.267151418201,109.343652305669,-193.414755802299,144.651158287384,279.583754450484,104.088892394014,-117.631680983205,-44.0890328462766,266.005997731002,78.936288638061,177.254981387913,140.474853589287,16.0123224992122,-60.9402234796334,-24.0718384068508,-77.9132566012879,-29.2727358017266,-21.9611326769935,-52.7454122757655,-7.45847631713475,-20.0250408290975,-12.1549488268039,-25.3007092126902,-14.29210639581,39.1872216365788,-23.7352271686127,-0.416010501211129,1.97385492832688,-18.4755170293494,2.62069578865081,-5.30933499138191,-4.32218144553906
112.257868726024,84.4351775486869,75.2593627760117,108.501607689013,93.6167735751732,54.6642038376659,105.595442825002,139.093249959923,95.8088177152962,145.555160528642,198.412276830541,28.4770917532825,86.7893214504503,323.277114733294,56.6058258062005,27.8091624578569,73.9141701187208,45.6400491299939,32.0329204134885,53.0344584893029,30.3793577860359,88.3275572056973,37.6002125816196,17.4603250225403,84.4887801838647,-12.5119177564218,149.392982657353,-18.1104267731221,0.741102992066585,59.8806997443599,-36.8925106670536,121.55111075624,341.317687153786,106.83511914241,-171.591588824548,102.53344580378,258.452108642776,93.5680132161158,-129.237564847145,-26.9060788926531,186.874130378864,106.710317012987,167.209741412902,123.356597544805,106.237898243414,-60.9859888856839,-25.8871329822639,-73.5612892953433,-28.8014811885045,-13.5232131189018,-48.997443137364,-3.28587149309376,-10.6011713748315,-16.3777185353801,-20.9309265373748,-9.1554250735102,48.7318955299921,-19.670551509235,-0.155451576301915,1.36731030920344,-12.4423414395635,16.119154380185,-8.70075078314106,7.63244929371826
98.4218864182098,69.0895495540963,65.442489412852,87.0435015502696,72.9534144928622,63.887277027079,103.441548468468,128.82696454205,91.297733997799,141.215908992402,188.654294720695,28.6202125718861,80.7111215648074,334.123044282138,50.7487531233459,21.318557222703,66.9193713767003,38.8137332163557,22.3282943797209,47.9495102942528,18.6114185315725,82.0222290140612,29.6644045423494,12.0714988238916,89.4088668440664,-5.81148829316257,168.858091455381,-4.54125681891076,30.605711740577,84.8740758517923,-6.04142256760836,149.317115298678,294.986895710893,138.144199259001,-70.7475854619893,7.61288231426031,241.240880458829,92.9051275190246,-68.893576200186,-46.3051309468486,97.8051067424101,128.715072675362,129.882411776396,113.790747936769,174.084782447227,-46.4304530813744,-27.1925248885983,-64.5158309269382,-30.0649126751576,-15.617459130189,-38.6741122231148,-8.41063062369502,6.2108681601866,-20.0739505048052,-27.6148448198648,-14.6099255892497,47.1508462943462,-26.8202819274832,-1.94572361835476,-8.82581086286792,-16.5194643524587,17.4238902672749,-17.6239320154449,8.30852529107329
52.7074964539515,21.904722635847,36.5592159892709,25.5554169522622,-13.8906291656153,49.2232224185993,67.2185116043752,66.0427008795276,72.9322033054436,98.4317177391834,127.176861206618,7.52003559279099,48.7078321287243,298.150246737569,27.9588948148034,-3.39595695777019,40.9173002200516,13.470075258269,-0.220815214078597,24.9721530602524,-8.79027080558618,64.0547055517157,1.10919093919839,-9.99353209557873,84.0910678979494,-25.0769911170578,174.559291240521,-15.3243496979219,21.7110829226387,96.5011696542798,-3.18601118177251,134.958223255598,225.741561282536,166.582633618679,26.2905280603356,-78.3103543295619,176.221363010707,59.8666396190372,-8.42826778436756,-73.5377306033995,13.1799998508253,101.507297885758,112.002006211368,80.3254142867592,182.557695311966,-49.2551245841741,-41.26865001148,-77.7759298293717,-48.4222057990934,-37.5536296059994,-51.2488553985712,-37.4691541469146,9.37900499827936,-45.1461950413286,-55.7466559445903,-41.291208449824,24.7780889939321,-58.6774476509583,-16.3826270115334,-36.4498895520951,-42.1613184955121,-16.6382421850225,-39.5446751877559,-18.3601755912586
-9.33956159395079,-53.4150841782186,-5.33230055400317,-56.6578253740496,-163.164367752627,17.1190364171414,11.3999427779113,-38.9023345245465,43.3369481163718,36.6668572342982,33.3298218398591,-26.360187527829,3.95170723446499,243.312166528981,-11.7103263299292,-51.7217552459935,4.32846292596412,-31.6635142198881,-45.6678899928951,-9.43011414438118,-49.6813466024958,33.025719534189,-43.4610030375376,-55.2107672090962,46.2250092060539,-79.2678894715935,146.449285866455,-61.3102935602762,-20.6642422323475,69.2073010481857,-32.9891557001403,87.1673848134663,120.654973422593,158.172921144107,38.525628579957,-70.277501482512,55.2420988152464,-14.8034832054347,6.73525728194192,-43.396380891635,-49.6460020185088,23.0006419277685,131.838861461766,-1.69803844741594,126.426468692504,-81.7783330988968,-63.0478764621671,-116.657155037263,-88.0376081455217,-66.5602607629992,-91.520387993439,-80.0149628659182,-16.8840771848556,-93.0215166279962,-103.813785769375,-76.7327202978437,-8.56690854801536,-101.955837567388,-43.1809703833814,-77.0081034242019,-85.611600258242,-69.0784605508976,-74.0832389490093,-62.5522564309867
-60.4600606663159,-124.066764161539,-42.443736984359,-123.038357383296,-291.998697359802,-8.70095599887794,-33.2151833207534,-133.235086025363,17.5291154578646,-5.56229998615193,-30.3843396396677,-50.803683347763,-30.4632711343893,210.19299716241,-52.6180246452924,-103.701181681555,-33.2021061464987,-81.0691638499806,-98.0599951117305,-46.4365229361023,-94.511331976774,-4.82473822667949,-91.9210976297958,-109.630468647234,-17.1665389403346,-144.406678599263,92.1618896503212,-134.562127464895,-70.0176582868117,-11.0499917523547,-81.100089477135,28.0606943889995,2.72667842583194,119.743716507511,-51.1577463236204,-22.6723554944436,-82.5822576433496,-106.09050682815,-26.5516611161892,4.75077268030405,-88.8452873809951,-73.6721765640626,152.538545330039,-106.631449487591,38.6884183486451,-123.945483794107,-89.747402282861,-162.815866968795,-134.096112390676,-94.5700300299366,-139.593640419797,-117.157093146149,-67.6131446363978,-140.065798168805,-153.087534692391,-105.687554952781,-39.5105779421405,-136.479496758997,-74.6496326691601,-117.834468246857,-129.032173072979,-108.341462323058,-108.665619606154,-104.505743914765
-97.8108395698393,-162.9055645459,-72.579481320125,-159.002937023629,-320.063682493926,-36.1857627200155,-65.1331726617757,-171.436315809224,-6.61938477556885,-27.0810598659,-46.2679112698808,-71.3814963670407,-57.352656849874,188.455987490425,-93.6650514437062,-149.578342147426,-80.1557151474512,-133.925195740527,-154.082782433496,-97.2244931999849,-154.345220535024,-59.8918333616008,-156.928828318727,-179.325002103668,-94.169663059326,-221.092865899535,19.9456423047879,-236.561485406804,-149.786636809779,-140.683403135647,-166.87734217038,-68.2899465319914,-130.01336187349,76.9214027767043,-197.576354436093,-75.3098748614368,-227.904081055427,-217.647283821131,-103.171856702292,-41.2940801199515,-146.642351922819,-185.934729061295,115.811310356531,-216.861053434006,-62.116889275473,-160.158546291368,-142.269253292156,-201.528617798842,-176.564693771124,-142.588793041933,-183.282102113557,-154.40302347285,-126.08756669677,-172.934588849742,-191.392771884248,-140.784208946289,-78.1357597369213,-173.244161089701,-116.994266124978,-156.768816977677,-169.924421864136,-146.74880245304,-143.413662531337,-151.770163605864
-146.99204813116,-188.610118082898,-117.132135792475,-187.347032324595,-280.816294436909,-90.9172984042188,-111.017067240824,-178.072470144213,-52.722087925867,-66.6668135681628,-71.1440554906321,-120.561045317358,-108.584826996199,136.825093283367,-156.951804532382,-210.473208793564,-152.673940823045,-209.154604432872,-233.332524710473,-180.827659142775,-247.255936379232,-147.587225108377,-259.037646285758,-285.508443050128,-198.475141563049,-331.314960276414,-78.7213277235233,-370.883680056541,-287.307137259008,-295.027612662281,-307.721396717908,-231.002276821666,-301.597185663267,29.3555385082718,-340.29470501542,-249.92810103878,-399.937601996694,-365.292549590503,-213.663408654873,-205.872584173103,-263.266745546028,-330.04041329124,11.5759586165181,-348.987143472014,-183.018432249711,-203.050890892699,-231.683891026152,-236.411986538983,-224.55777144623,-231.680622439973,-228.257828255225,-213.370506464434,-182.914263140529,-206.020737181661,-233.79081444513,-208.960147465376,-139.693305761808,-234.014518617919,-181.539060002568,-203.484770271906,-224.021559369089,-217.388425457315,-195.21361880445,-221.951700890648
-201.778528037793,-220.905979393668,-169.075520608105,-217.931319701936,-256.684321318337,-151.058674121343,-162.205548375044,-193.984214981322,-110.155370635858,-124.735363567378,-120.506607258295,-188.666668290485,-176.748948070645,72.9961369521213,-229.652536730433,-278.015689454858,-226.534310896023,-286.630963251428,-315.508013618639,-270.796736280228,-338.99217280337,-236.485820830231,-362.22882085282,-392.560385870724,-314.186351634494,-439.002708281398,-179.709214935823,-492.056463829556,-420.740154203967,-412.059315760754,-441.48903986978,-397.035813959009,-465.443100405122,-20.3324995373701,-415.599233450176,-413.139272997374,-548.089394672554,-491.372920525271,-305.697968898483,-364.701262940373,-382.079894649236,-457.258732761513,-76.8204610666641,-468.909167415033,-294.662721370954,-247.992912303099,-310.135569351173,-261.58241806544,-265.957026038941,-322.226584393215,-265.913091358793,-273.798239191753,-222.953610278977,-240.617591402563,-277.782705709734,-284.195221994088,-199.405175111234,-291.044175991931,-239.966273476958,-244.619659972009,-274.521436426114,-291.734360099057,-244.703039577657,-284.260758897731
-218.12086941225,-239.435231070496,-187.931108686713,-227.704632333106,-253.91326308329,-169.038177202628,-173.051327823266,-204.248007214763,-134.590028688838,-151.653044896553,-136.859298632099,-224.791963509922,-209.313101122887,54.6210320584381,-261.960860003758,-305.004355764006,-252.894038270517,-314.418989358611,-347.148090298791,-313.499382788667,-372.521875993959,-274.324074961307,-399.643716316047,-432.527370024838,-375.136864147482,-471.863412782891,-230.274420729064,-526.420404498826,-464.931660410964,-423.394066039212,-478.432371635553,-468.545617125997,-531.05011931103,-45.3927032082282,-384.469092152337,-450.647122938685,-581.3102108928,-515.755325944268,-315.478342118783,-380.364244290899,-400.638057858689,-490.626293794733,-61.9341135621546,-495.450383392525,-343.663605308144,-262.736412282279,-319.000824553053,-256.32054701863,-267.270569590918,-347.611866179193,-274.088052276364,-286.327690266807,-225.488993155667,-251.77890674451,-287.116588305881,-303.950837291524,-217.756845854322,-296.43570399599,-247.34101969397,-248.868924224943,-281.809328035846,-307.067784342469,-246.205672543704,-291.425218640844
-181.224285903792,-218.55597861629,-160.180246568649,-204.142932271169,-225.162047535154,-140.419297479338,-132.829892707133,-178.502426456361,-110.462775871376,-123.837260783634,-97.2288443104167,-207.258461814825,-182.444540297573,89.5054186669169,-234.938148437185,-274.66200546409,-223.90135373331,-282.225791716382,-317.870209383771,-293.834654169027,-343.094037125925,-256.450599817373,-360.298240466776,-398.565196702751,-349.054964674078,-423.411003462635,-218.045620763744,-456.344006939296,-429.106811841451,-329.666950149893,-416.151725434464,-444.865974002221,-486.947219248048,-40.4428417322975,-285.259254775963,-377.810948997799,-493.953395854629,-455.459876947267,-250.07966442928,-259.189284173386,-315.630530273672,-433.219992274702,21.1570771933898,-415.80257302754,-323.363132064543,-232.101737999593,-260.153290799608,-210.747092193004,-219.255335525648,-294.41558627274,-242.433579295995,-239.142909622134,-185.950218616344,-216.11862738597,-240.526700009507,-252.565348670525,-183.084260261634,-246.957570314799,-199.909357793662,-205.576581303653,-237.696981394127,-254.286260908604,-193.78130556164,-245.376857402947
-134.348371886333,-180.389979695782,-123.15065190177,-175.383247477251,-176.656450528925,-105.418225541851,-88.347016204308,-143.091930818228,-71.4420403723969,-80.7501692024603,-53.5968886398406,-169.833808274779,-133.292746847498,133.60020475373,-189.092850524514,-229.459391581548,-183.084059078881,-236.394280036053,-273.723034906237,-248.879274016244,-294.610508458098,-225.431621370826,-299.926554247494,-346.406741892628,-291.765661721967,-358.666534445246,-191.561210583518,-351.890079998638,-385.69564879547,-224.735927127964,-333.785841320451,-402.707397500779,-411.069123637043,-53.3593364101063,-230.223255530166,-275.071214936097,-366.200412316156,-403.119883769191,-202.836994320787,-130.472694369349,-219.438311507613,-365.800305910927,58.1629708701324,-309.456672540959,-281.195328754593,-180.7805958359,-183.390197519749,-145.52766162347,-148.804671510318,-208.932763135433,-185.781622735719,-171.305727927133,-130.691254527457,-142.717890319419,-165.834909151663,-177.94811036954,-115.632026489965,-181.320724523431,-136.87309199886,-136.825387735263,-173.422778737331,-183.476873141173,-131.117327411621,-188.765348441134
-118.736129983985,-171.110510744811,-109.997309457009,-172.021670680121,-157.586436522276,-89.8469614529488,-74.8378113109104,-140.525931459003,-50.0415561202784,-62.8661695798069,-44.3438050512805,-151.109356500674,-103.704183208477,162.348124525057,-167.188230111324,-208.214596665966,-162.498757442854,-212.327843313208,-243.198627036291,-217.615847778326,-257.103600791689,-207.065211128593,-260.4057908483,-307.892966713316,-263.792118796766,-316.112049349517,-194.751557911701,-288.15902555356,-356.199152675797,-195.917855991202,-276.901065947839,-360.50952733196,-349.860500994148,-129.2899903905,-292.769061298174,-180.826781656797,-249.028404958395,-397.075213528217,-252.87552788622,-79.5648108773105,-161.107544533567,-338.038664613693,19.4627166655189,-234.567540013033,-257.129395112476,-140.82404138995,-119.768058209179,-92.9162906987845,-81.8776675453804,-135.028448748295,-130.243624043887,-116.202303866369,-95.0720326123963,-65.6093925017036,-102.024560691148,-124.736438242998,-48.3354741494277,-127.458545796761,-93.8610374672052,-69.2145668076332,-118.860479704019,-133.79397044491,-90.3968475791035,-146.076976718017
-114.694162752799,-183.381490222616,-101.216008419679,-177.836958248956,-159.503190313852,-73.9104868840226,-67.6963211680273,-146.790115951689,-32.5490380208503,-49.6035683299669,-32.7984735159784,-140.357342438576,-80.1271884178966,196.608343335764,-154.468057981307,-189.430669232215,-143.0910110185,-186.980147161108,-201.298766964393,-192.762991344792,-217.186044023359,-178.13191539088,-221.267348073705,-260.664546561442,-244.020918940054,-269.379649763333,-204.780021537075,-255.166996431669,-303.433929863689,-214.548467899023,-220.05564420105,-266.298702130452,-266.425130827778,-241.862522086438,-395.406980500082,-88.7870259968986,-133.214067625386,-382.123293086296,-353.39022079346,-67.859651013301,-116.177350402899,-315.099798131796,-24.2171344613269,-161.087242475628,-244.000622509485,-108.930220732812,-49.7234073602127,-52.078898306882,-10.4059829088488,-63.7838176053512,-78.6862993920787,-54.329482278429,-78.2418409953716,2.45972171784728,-42.6930437005905,-76.9661681786949,5.36049432828892,-69.4923509016842,-67.946079823875,-5.63888127129742,-65.2385888941213,-88.9115239373142,-52.6215064231949,-96.0377139604404
-82.8788448431958,-163.558552657881,-67.7241098416075,-156.005006595663,-124.802687412196,-35.471161288325,-34.1098511545168,-109.170359606148,5.71179510892163,-7.21284868921264,25.983598240373,-107.27496397415,-31.2488105265716,250.46887099492,-117.81878072147,-141.862965875127,-103.89763040582,-134.377630607754,-137.911890455473,-150.741937954116,-163.03941972002,-122.085452612332,-162.984385009798,-198.15264231331,-192.980091241921,-208.433071754196,-178.65523707523,-210.633368455498,-232.763188394,-202.765641499368,-161.92727144216,-136.466014082876,-151.671752022518,-327.058717914993,-404.677865466372,-37.5151502939836,-41.8362870736402,-318.147370992703,-390.965956189861,-45.8381906386691,-93.5207350990478,-263.630959547237,-55.7989942828148,-58.3387024738444,-228.218931019132,-64.5115879357045,43.0914849700992,-0.356414388264058,73.9458161551639,27.8288075549691,-19.6680593107745,39.910524697054,-55.072867432151,65.1212940323558,35.271781509733,-3.11376290293954,48.173837311919,11.3323585788022,-39.8124591637978,56.8126710441244,8.87107624826659,-21.6767265187925,3.81097163727558,-20.5906076475558
-20.0468604193529,-85.4636004379301,-11.9494587571577,-93.2358385542692,-32.1548555124242,18.9037140321803,27.6363677925046,-20.6580334090797,62.1672502656364,62.2976391309654,126.89384577181,-46.9946923484256,41.3605563420861,315.152401033136,-58.1797083769956,-72.54234495421,-54.518129208797,-71.0841569303352,-77.543263083291,-92.4429362367645,-104.887259848962,-62.6797441948932,-101.843756186632,-143.380874003855,-122.640828030105,-159.735884125827,-121.606668388756,-154.882601366744,-195.16566794049,-161.845031103825,-142.237846142845,-72.365598935394,-82.0970651768145,-353.773104933728,-320.226845184346,-104.550982893206,-42.019313324207,-240.335824445983,-335.100734324719,-38.3057413925003,-148.669674320458,-210.869482603332,-139.887523902558,27.3656951726906,-210.932416018679,-5.98721791071648,130.644435647807,59.800028684123,143.00483355899,125.213020179788,40.5072741619898,140.780638753624,-24.2115301778309,108.893930953743,116.830016185551,83.0558704877041,76.9094622178166,98.5463499729829,-6.47558866755751,112.925317745366,98.2974696720824,62.8181967737153,66.9595614644063,65.7034405493062
52.5623775747921,25.3961076948337,52.8966481267938,-0.685887322685873,86.0350289989941,71.6758314295176,107.259105979361,84.2043149807999,124.458984659268,146.487628517472,239.330203280552,23.9421792393509,119.239646799857,387.036155626505,3.80240625941891,-3.20547186105778,-9.45469929718692,-18.0718754847658,-24.5439551116683,-32.5238535116605,-46.2706547015239,-21.5718280248617,-46.7569415028475,-94.9204215160732,-60.8914533678201,-119.0295903941,-72.4086039761036,-101.384132166248,-194.06706701729,-143.733316125775,-154.318097069408,-115.677730698067,-114.643916248617,-334.942285747315,-249.129539096773,-296.991218426044,-149.896015919559,-197.152489339963,-245.18612441624,-74.425569005228,-299.307595495242,-192.06623576396,-301.686532560603,18.397959921959,-180.615426312146,50.3851537354625,184.968239086814,99.1400947804871,166.946402945538,198.846776780889,82.3808934539715,198.141765345476,-6.10046792012777,116.770642778357,163.580637716342,144.412268063731,89.400276229397,165.974155362931,21.3506624531413,158.486700714285,179.05771909039,146.494337870634,116.952705892848,148.84107248915
111.213725306909,118.126651832992,108.885823870381,86.0499235095557,181.162312970926,104.150783181511,178.531126548013,159.461943527872,174.94838514302,223.819899401604,323.587637023363,73.8649686941787,177.970457795233,448.313924719358,44.1850578007735,41.5708154613752,16.6540788869242,16.7800047949719,21.7919923624508,6.04190147539649,1.21632287441066,-1.86885732063279,-3.06710916003677,-48.5831072142741,-20.3842523804193,-70.7399218394684,-56.330263068427,-52.3646773822827,-188.657965816195,-142.903085144854,-154.384718089682,-199.417288739543,-214.384152571156,-293.034090478732,-220.021924754043,-508.425863844389,-306.776439295463,-210.362499997897,-155.825180743384,-129.342047318963,-492.51045868881,-217.650318644289,-488.651831953532,-108.460680970015,-137.804347424705,95.2946437001871,216.1671358541,107.508993197718,159.036147504965,233.184550196207,99.835387198271,190.2308833384,2.06873167443877,97.3508627603762,159.63322152684,155.423755796116,90.8737453218577,195.945063913661,37.2538894919081,177.308569893039,223.381792357628,209.690140079653,136.678332276061,214.610013648893
141.451451055349,162.201525777584,136.523696374473,128.157501683315,228.859172984861,110.79090106476,209.308024681602,186.929669091732,193.477125125826,263.032281793691,351.746531251544,82.3424961067208,198.400325422498,468.392870900868,50.8123499585843,50.7631909325108,18.1390223598497,29.1681970211718,44.0174060977949,9.09645008354169,17.9102427592319,-1.13015499002911,16.961252537954,-21.678826121211,1.24953194727189,-28.5236689881918,-60.605713364466,-8.9509788918654,-150.36880408444,-100.667682681324,-125.787252942901,-232.420050078204,-298.864593056301,-228.476506829884,-151.354229307778,-581.320914812263,-418.021483789423,-263.196725935873,-29.0919808248681,-162.537766172346,-617.301608508986,-267.723793501717,-618.947763542491,-273.410152047561,-114.468095942919,144.543474982082,247.55704220488,123.54709843741,164.168789458064,234.423403989574,116.912752747511,153.461720675253,36.3734279376977,88.426318616411,136.083218643493,128.859809402236,89.8864150083057,186.031860132457,50.5913225070703,150.505515467079,214.926014254037,232.217769655847,120.938038753561,228.784327529318
142.759746319926,170.757353915931,133.034061682133,126.543086169686,239.149253331681,106.292150232326,198.483417950718,192.404084775135,180.856204405136,259.772483133134,341.047567171076,68.3987712401286,192.350410779021,452.25393206228,40.3253418199514,47.2949242918337,15.10935146496,28.9245794731945,45.9072804663409,0.990319984670704,18.5923328800172,-7.78977889190476,24.9033118682303,-6.41817615671149,20.8800657323741,5.22548902422879,-57.3628141210888,33.1764433446412,-65.8960669456581,-4.80627864180924,-71.3621150178209,-171.51835851054,-292.880535747686,-139.557970978691,-4.53454879700829,-441.081804412067,-389.688831762582,-285.211939954639,160.366575941228,-163.647045967705,-581.80191574446,-279.697732884539,-635.228689854568,-345.564225880643,-120.627335475427,196.368594765701,271.559529649414,173.460229748028,195.886397099,226.496723500891,151.120965717166,149.169314292609,102.822140480871,111.988687165529,135.765403852931,116.519071450682,92.7579510885566,157.439846217654,70.0964561902112,98.4085983738284,161.930431895907,199.971683966698,91.6205896328498,158.837386577192
125.865689720781,170.917426956681,111.192493198922,112.58471356068,233.660961159559,103.110488275524,165.389930592958,201.945146993612,158.528164306968,240.390941612736,328.774928686001,63.4084986142668,188.685408328192,433.530822487174,42.213928561706,59.3213045663156,30.8554399325874,40.8233952661419,56.7518192906793,18.4842073884962,37.2287548218189,-1.83567435847246,48.4364278072592,31.8895508421585,53.0063051236408,55.8014043978059,-42.9090510272722,80.8549521234814,66.8334447750237,86.2139632759469,14.8308701690848,-21.8548046129544,-152.612801530264,-46.602416488059,153.747061612924,-174.935164027509,-185.689704730078,-202.778700615196,345.633735526943,-142.859883437396,-404.13563245814,-191.638251631365,-543.072196252235,-259.135638881274,-113.65569091381,199.288200774179,256.445654431451,210.40284550293,213.528929217823,218.942762310685,170.752212263832,178.51881427536,151.538555714397,136.733866374711,152.756929950438,136.509160132275,96.6294645127013,128.857325117314,91.4653446218628,69.0951758947699,90.5563224096063,113.635397984165,79.3790685890802,24.5159601582251
112.522348675428,170.144065874756,93.2814011886041,109.24932526957,224.619336185512,104.032011333592,129.15777463351,212.396870766432,148.947659230237,229.194981745627,321.014849138469,77.1703638847543,198.403073312467,422.638956075031,68.0794234945573,88.2526377533373,63.1522436024342,77.1058578903207,87.5379775951849,60.4800245874944,76.4667249494707,23.032148133383,90.6354456220846,98.1005059586249,90.1188410388524,130.451185958002,-37.5689714059417,128.658878253043,222.724085249402,114.8083297333,135.568654830811,189.147284727444,100.214568712905,30.4326290121986,245.484275596042,65.29676629782,126.800393462641,-21.434613546256,415.173962995669,-116.369651594268,-176.434418103614,-22.3367118452999,-412.980586036026,-68.3439614434353,-56.5731655868265,128.745894168806,198.668272876644,182.393488299223,183.900562920999,193.86091983756,142.790956683483,180.778469012348,149.794935480306,124.780162813908,146.664678367939,143.028185902393,92.2214439112048,99.2767653908547,108.956795583575,74.9794452923523,37.0983848057397,18.967936183134,93.2592963318961,-75.7120355906027
112.274909137941,157.608747700196,92.9675008773974,114.868784526504,203.865976006159,103.524167431092,111.305749961474,204.027206795478,150.868181774011,223.50602937848,294.468555041733,91.6287102711358,203.590904511834,396.000486690852,91.4687080562348,108.642103700951,81.682549483788,109.920585732775,113.503947338989,85.7255999813696,105.71637475307,38.0141970177641,120.14358740201,152.814477734748,102.185744003257,193.274097494169,-62.7190939419684,152.32319076608,350.270207568107,69.6918163375235,258.672895999374,400.686015488638,357.428177764748,82.6045367684495,246.94793339879,196.094033719566,397.116050732105,162.065153220115,331.696949449457,-116.250606706705,4.32317201879938,118.06669157679,-335.471551311915,86.3458690860169,6.59550350518674,38.468186027879,127.513899111443,110.107951151319,118.199990648009,138.439566526472,88.7308933449014,126.187002838849,115.735026427722,82.5209865987641,103.240389724817,103.813640957398,70.5712410506443,69.5922041432861,108.300782874642,78.3073430703833,24.3005447558725,-15.5148149205517,107.234918612904,-59.8598789384603
108.216784174748,128.984690437486,93.9746277354567,112.520221486272,162.962025175178,88.794441268709,115.844143082451,169.417030603997,137.874406577382,206.975485435843,243.844337937255,80.0958282274069,184.383036007792,341.58319320373,77.8144852120983,98.5048820239797,61.1240964318873,104.743323698802,109.238902989856,66.574752708149,106.479846176764,14.0528297205353,112.520197623221,165.435045096515,68.9296467861132,210.689745792657,-112.076139281614,137.159205677345,413.971266951325,-11.568877300574,335.508245807313,528.797740705686,499.43373860258,107.618154062797,196.060084678326,223.209608389345,495.643567154258,243.812367996877,196.912127018722,-150.497976093551,63.2598273559394,139.93571895328,-317.626172627747,94.3046786110877,-8.45319100978463,-7.63184108612396,70.5942627748373,53.0272607072213,49.8784500318223,75.370637485878,50.4873925894412,56.1360344088284,76.7468933355037,40.8100971984782,50.6223411518405,49.3137223501644,32.7405420578624,51.5725236631713,75.878451933672,52.8833761749081,35.6552132339099,14.7672245720881,87.824023463105,19.7949707047096
88.4548298102411,97.2862038800253,75.3503757737094,97.4977324979667,121.203278990693,60.5190188399558,119.318859108492,132.78759131333,102.919682836196,182.475661313108,197.268064869551,44.0524128706693,151.735334631918,284.921020281139,40.1539276343268,74.0106223903925,17.5120761816625,76.5973429228817,89.002446067556,29.1515478381095,97.6663378260248,-28.541565815352,88.56189473403,158.453365114536,14.1808313511991,200.244130646316,-145.936934129977,112.889740244701,426.692621356852,-68.3254192459614,361.955742107256,539.875630886042,498.402588037198,114.895136064279,170.158100790334,200.208523066156,423.086580703592,212.593566752482,151.084931760507,-160.860197412574,8.40668411901823,83.3257480348768,-263.515598580581,-7.08812462443974,-97.1722870632018,-2.69413154685685,40.0677127325291,39.8881281644308,9.03187804087767,42.4942504953135,40.4826091650299,22.7484651408927,50.1658330790141,17.8568367215745,24.5841293170474,24.8335992195429,-6.3162528899404,52.5184376386009,32.5694332439251,19.8722821659356,42.2395221923506,51.0497752073381,43.0223941153976,60.0844026335554
65.8190833942649,76.8358129857994,49.2968572585177,86.4047080053614,100.83959427761,38.8366183420855,111.305818746706,119.858952892656,76.2916532792545,165.276291456391,175.144885660825,15.5429620307909,133.966072429007,250.670927645571,21.3125862326423,68.4983885458671,-9.71159213647073,65.7137465221981,88.7352876732538,16.2251315640604,104.251221644846,-49.1287302460427,83.3022816637453,173.293181785873,-14.0938404565255,198.547277194248,-136.028138608546,120.901187675006,427.010058127012,-72.8915514117338,379.27089008713,486.270898014293,410.313506561917,115.495879719133,212.193051429022,196.996283357796,289.712936510354,148.161107936631,212.984414955451,-84.2018840587773,-52.0058579613581,58.0876035221709,-112.578827925476,-74.1111430922121,-148.030899665995,21.0499330763889,28.4538395553157,54.1057285743824,2.07969140490104,45.1896438370425,47.6353198874324,29.0459023550522,47.5058304828254,13.7135667260102,29.9622115936632,36.4358564345627,-31.3533412649793,67.8755516556862,13.8866347451151,8.30863090526735,41.6037571498235,62.6736000932372,14.12365699189,57.109635177319
58.3235961378194,71.7067951500184,41.9804094850372,89.0762408007806,97.7099005474438,35.4705852257029,107.571700147464,124.249872953285,76.5803050352547,156.317501231558,165.631032814617,14.7892835908838,138.542765817625,230.05633478561,30.6568901702919,85.6980382715327,-5.16893326606262,79.1040116821302,115.294947054358,29.9997168869573,123.910409030118,-41.1214696535859,98.5056225842697,212.531925233168,6.40612148961982,213.034873349337,-97.0777923320077,160.228849364632,446.139492262188,-37.250483902362,412.0582655397,463.15533254751,311.242524453172,110.282525232982,295.70940291043,274.503746504132,208.420689183062,126.967374292197,303.671705328247,74.5572768054889,-3.95260508069093,107.654289776354,100.285815148348,-18.0320742012674,-80.7302875984063,46.5950028220917,25.0405994843059,70.7687242115055,16.614119390319,59.7360700745138,61.7278068494492,47.2341900327796,67.1413401303776,25.209036291204,46.2434531337228,60.3654300915627,-36.5524895930941,86.6332119688673,22.3162675354406,17.5873008760683,46.8379049929204,67.5073608054698,17.2741573843541,65.1902912191879
63.6236957297286,74.2359308961632,49.2125474262361,90.050309936659,96.0840668295104,38.4900715771103,111.062031011197,127.979553876979,80.807373046994,148.863472286066,152.653497462752,25.4335077519475,143.102774666572,204.753220116883,38.4885276069276,99.4660993342353,8.11037387203939,89.6540280525584,138.25102210643,37.9758403388134,135.332363263042,-27.5222344290861,111.657092483705,243.416971094957,52.7112514383638,231.256303787843,-54.7059952519661,203.748553928356,482.838425908841,30.5199304872676,436.956156560565,530.754310106147,267.643204448717,93.4684385314765,370.182625393864,438.362118866674,230.484884546402,157.528079142363,371.980179142795,258.943833027918,185.557874116876,193.76906811461,317.231573576314,123.887610047138,60.8895300929778,82.453008855496,38.2268153803767,87.0761672860289,45.3442227487428,75.19470224691,78.391428374663,65.5054686221766,92.2770481637704,48.7548396433947,61.5896989021177,77.8557596525373,-21.9920167954887,99.4183261984982,33.2438235095178,28.102697424821,59.9446999745091,76.7692988819466,29.0777491492426,87.9843338219155
70.0387553651817,78.6510183804976,56.5656719352159,83.3762619423775,96.0405699699627,45.1660908187431,118.72637616472,134.228306386175,74.3611407241237,156.761496122835,149.132697382343,31.1182897104934,135.105344706526,190.313674698365,32.4997926768778,97.5884195420793,11.8436626857995,84.2691155328464,137.971691676542,30.2268089326592,134.296504967332,-18.5427587778578,116.431435108019,250.068519214074,89.9108397237503,251.705096964412,-4.15655826509449,251.146193310952,506.711167146687,129.105010785909,436.937402679255,654.463071770141,311.331112103926,67.9661800006675,410.443441665865,623.16011950945,336.654089658768,216.691226042256,414.985504950569,421.593429992493,464.540412974573,280.797380616485,495.975191141381,271.987294740076,197.594102704889,138.432316358252,80.1416158629705,121.479422141871,87.9062824865894,103.86842893906,107.367896297096,96.1464149390449,117.747685411409,81.5246647699509,85.6383744456316,92.9194831607657,18.3649570157392,112.147777481844,46.29884408397,38.8660809490027,81.8794617327506,90.5096417559523,39.6355761598515,107.396163092644
90.6864694609928,100.810581361032,81.1754706147255,99.5614956224465,118.913020280109,81.6413702999635,151.930516351039,162.561661550433,87.9581188074375,208.057752840587,182.90017498259,52.2218350121431,144.042787058688,224.379361494137,46.2123766617948,108.367502830103,29.4608279287006,93.2397167901428,141.750038107234,40.0414112795707,150.769458280487,2.98494746707935,136.592110825345,262.088547753985,117.29311337794,292.166599318711,59.8313361568224,328.910044672642,516.463624238894,241.234584935263,454.815980721717,743.036255258465,417.370984262394,45.5573466193072,430.600828468156,745.998733665848,461.307193645727,311.335193685554,440.209022364815,546.957447109418,723.709710927726,374.336134586529,612.65180906675,396.797295925496,325.606829761587,212.587428494351,144.065473158467,187.2219798173,141.613720437838,157.871663583909,165.472486449164,149.814226819947,162.273220756679,129.47045531545,130.45954960847,125.436833339163,91.7306422906159,145.222093781893,91.8137742091514,76.4202415199874,124.933590958005,125.405540193478,76.0868572405906,143.561600736773
141.995929004724,152.956325162202,134.808268807112,155.365621850244,171.575607130739,153.576196137158,215.934259288797,213.784338551341,141.903341570498,292.361721717936,247.263020089889,108.953449826483,194.818963465464,295.695587452927,104.582057687374,159.639487982649,81.7480036261571,144.807196169153,186.336709956377,90.1306728475704,207.776519563825,46.3192258729832,192.719782034671,316.851251618307,154.910306628766,366.478126354338,97.0360420936215,436.460079492298,558.038132759814,333.694329219168,525.814423110855,758.022440695762,517.725614313399,12.9652846175343,449.293640216484,771.299233613093,540.753034906989,447.100955342896,443.324661457526,619.847547218622,850.877682602954,480.413863558084,665.309210581601,500.891639473307,467.101949473844,277.404678041936,204.995501367953,256.632668655616,198.172877389107,222.100354847808,233.6239352525,212.710795143488,221.189154904482,186.986959287046,184.821442706469,178.451079704909,173.836873193197,199.211769109651,166.030553241946,142.204225926421,183.447728621384,185.790831115336,144.541711862356,207.517914307233
200.513596922924,211.445303556627,188.419450216264,217.253609952227,225.708135892077,222.987837442201,272.078659849935,259.749300109299,205.867113010647,354.433694997979,297.403088046311,182.167849928818,259.547979377646,341.837992195757,181.726043786031,232.622873158881,146.925539560445,216.521755920819,262.476383419107,158.821720432771,284.745989791777,95.0977628532445,270.02044786301,406.541658728214,199.877770663151,458.104784059567,81.089970650568,526.232037446486,650.042955139151,367.477034587548,605.597684850058,742.19358420925,551.690158259022,-55.2485033912954,451.041954263677,740.021643862957,553.841071014412,566.449794054239,408.167357680054,630.248501290854,830.197918258781,566.059794364751,673.073163753038,566.71946090116,576.882995161458,291.963629952043,238.974226665629,279.000459828923,241.148786885801,263.93760059171,265.088214194431,256.837409284003,252.050708879107,223.761200457532,223.142362899074,226.894193080326,220.683282897049,242.649541048007,218.232388074227,192.635152171269,226.490649806405,239.093985857753,203.648734501836,261.155264065823
232.062589698308,247.380687311455,218.598109140395,251.840707564748,259.85540942983,264.298920909028,296.316358718756,281.846716488846,248.911448226723,366.545043817425,307.920594524946,243.810070309906,299.812076653744,338.000971398978,243.744668014192,291.616911469975,202.584267708859,272.08785384746,329.865190416277,217.642030442526,347.51882723696,139.765368166089,336.610824622212,484.868671716064,236.042712424007,528.369897200972,66.0630754414196,553.746388678653,736.466402534164,326.667367235503,629.612436002923,727.04345341396,513.3457026632,-125.07255291713,409.730680784654,721.770864980271,516.603034442148,594.425330067447,333.778708612822,620.329241706565,764.950963525172,582.421091042139,677.327529663419,578.127466727176,583.84513220897,257.717469303175,246.060296785279,251.190081694647,258.27169231858,275.739947208024,255.050863420406,271.576591385334,242.274260201506,226.977418204434,237.96208247148,252.982792722883,226.47976064747,258.454112447309,225.555260658844,205.589918404871,243.722872176766,261.553564800108,228.268651195087,278.086764588904
244.966231817623,268.891055586485,243.280155290483,270.006257524937,286.982168946695,294.461257828134,313.898689279451,296.922750404275,279.095507658985,365.500206600243,305.156491815593,294.638064792553,321.739834312481,326.298544491263,291.965505972364,334.572442422684,257.899803860692,313.825942671759,373.147689278714,266.562642685466,390.728901285951,196.088237990545,385.172879956629,523.769512332198,271.177153396348,559.384907757227,115.988276172785,534.462057421259,745.967132283206,258.768908692119,591.079199388397,665.972183642743,429.812306994109,-114.499358155028,332.618105625595,724.06086621997,441.549028728889,530.377556608846,233.667999273601,645.3851515597,747.812481075913,521.32340245413,715.274945536507,559.448757365506,500.985798873528,228.816377402896,248.12567853023,229.573430848288,262.564828069576,282.379112045585,249.541802812094,277.452535646486,234.053749398599,229.892882633894,247.831898397011,269.596635934458,231.196182709063,272.228311201172,225.851066063919,215.696779455362,260.216859051876,274.337431410419,245.352122931407,286.657138221134
276.785999721848,304.54477837554,289.067521482574,303.004568981117,325.236024344624,334.419765283491,352.259303513642,329.799888867796,316.418702754139,395.86212810233,328.383645765167,349.747551353809,355.749014407015,346.226323396592,346.073660766777,382.37294184941,324.345064088236,365.874488787351,410.242446055159,322.214363653971,434.843744274474,277.639443890486,434.463277286982,541.389365217494,323.34822444617,573.488744255887,218.779609681989,524.732414784275,671.845620260184,245.570726162588,536.290104791633,509.199805117117,306.427872306064,3.09099497412262,270.434933575255,699.227342682425,326.382112597279,440.91319238792,125.629656954113,691.6449123184,748.573790790922,423.937093615696,771.577227230928,534.906400236466,426.879393767595,245.855495694699,262.23774103429,251.114496423577,278.899490292297,305.107415617601,280.160661497982,300.602759078507,262.339344067567,266.588080493578,276.062646326714,298.49779421766,267.952996539164,309.262206072786,260.688241547099,259.383949406042,297.005164593519,308.326063765034,287.260200357836,322.503087310345
328.026350198021,351.368417332296,341.002955534617,352.030037588239,368.636936248124,368.165297735859,392.982546702513,372.069114619811,351.972560609028,440.499846480704,371.086564719023,396.229975036036,394.689464938396,374.601673425784,398.247231283565,426.385611173017,379.127836102119,417.734823320972,443.396886453475,377.133161738005,478.172426851802,356.083403294652,476.635762708701,552.702450325582,370.209773786422,578.271284545983,306.671594448559,532.878933143126,558.802120311217,297.659715605807,497.56181315571,298.240247151611,148.191023634615,155.549206024259,277.219423308229,621.28533519688,182.280968538942,374.445144010139,59.0722506529425,697.766486289205,677.212710676713,329.73176605009,771.792235058286,474.136441996095,413.03696691441,287.023760893039,279.097403114452,284.725159816647,303.79844359701,331.007499588781,323.993618800377,330.708724907304,306.106841660563,317.130734746997,317.179526089003,334.506649247514,316.648715996336,349.527109768499,312.1664409105,318.752917684061,339.659981234011,352.391975193429,339.713149585559,372.281870564204
