2.46487888925599,4.6397720268348,-0.0724964379192937,3.33483614428751,6.30719009897856,-4.20479339931904,-3.33483614428751,0.57997150335435,-10.7294728120555,-3.11734683052963,1.23243944462799,-9.49703336742748,-13.2668481392308,-8.04710460904161,1.30493588254729,-18.0516130419041,10.8019692499748,-0.942453692950819,-3.11734683052963,5.87221147146279,0.724964379192938,12.831869511715,7.75711885736443,2.10239669965952,9.93201199494325,5.43723284394703,12.6868766358764,10.9469621258134,7.17714735401008,13.0493588254729,13.0493588254729,5.94470790938209,-10.2219977466204,12.5418837600378,14.064308956343,17.6166344143884,-7.82961529528373,-5.7997150335435,6.23469366105926,20.6614848069987,13.6293303288272,-5.00225421643127,18.269102355662,15.5867341526482,-2.24738957549811,6.81466516441361,15.4417412768096,8.62707611239596,15.0792590872131,17.3991451006305,8.77206898823454,16.0217127801639,5.7997150335435,8.98955830199243,13.4118410150693,17.036662911034,7.53962954360655,13.7018267667465,0.144992875838587,6.30719009897856,11.7444229429256,14.4267911459395,4.85726134059268,13.5568338909079
8.79593658207361,20.2032014733736,-3.75132652629049,13.4313389765129,29.2750051940071,-22.6340169598677,-18.143607441267,2.53446223891161,-53.1584932998838,-15.879186164388,5.41291842190692,-47.6005820021383,-64.9082955911356,-40.5032138067067,5.32193373847484,-87.0319243973047,50.6026297271957,-5.55936784187734,-15.154221785195,26.6310700261507,1.990010682451,58.3495527756373,35.7924018860844,10.4108030059427,46.0397237706757,25.4370636166801,58.7490114562594,50.5656532361702,35.2153434709937,61.7739170592251,61.5564277454672,28.9324677940553,-44.8058277819159,60.0909238298322,67.1698037797511,84.5329821052867,-34.3239848821858,-24.9096437616004,32.9908117734039,98.5457491292859,65.9757973702805,-21.415696128357,87.2664454124435,73.1612371608804,-10.8088051424329,29.0730910374984,71.0958169522466,37.6729396395905,69.1583579180702,81.3986035733762,37.9259489002422,74.6452293220283,22.9522399377795,38.7404414187354,61.0290078903875,79.8236267287964,32.2230447266581,62.9124587321573,-4.3142663282639,26.1576583634775,52.8271614247856,66.6423839246714,19.350275919723,61.5720029027163
18.6023954524565,43.4086128151033,-7.40288847833277,28.9993699298536,66.115747008059,-41.3489317704753,-30.1175199849402,15.4826463325008,-97.3539354551158,-21.4930320106822,19.7355868821451,-87.2973513072623,-118.197853680518,-74.5935939531631,16.446425867649,-158.914268059835,104.987868972594,-4.2391062606275,-18.4880711973612,56.4331812852523,10.3017014136198,112.920985797609,75.632574181973,31.4175524524449,93.4849596808948,57.1828199021649,117.703928579999,102.649860289815,82.7046124789623,127.991830570156,128.119791744614,69.4980746419491,-60.5411577033387,126.958792635478,140.124715501372,176.2358971899,-41.4487250890041,-26.4012083671771,84.1397263374833,200.502322713053,141.816807811235,-21.1728416898011,178.495913968829,147.405764826817,-9.82955468589531,53.4926739318071,138.390516810703,70.8553820845304,134.567459864348,162.25104244201,69.8933491780857,147.95960554832,38.3548281872706,70.1880295122841,118.362147206221,159.56798371272,57.7713448215982,122.901469893003,-14.8040360884332,46.0317674443519,100.435408283544,130.149581649221,34.1965108011523,118.051125696918
48.4014001419985,77.258088902132,18.3428638305459,62.1074313239254,113.256246572327,-10.3970009622044,8.56101503239192,62.8723623325595,-59.5564102719059,26.1991385113612,63.5397520413587,-50.4855480133557,-76.1122370024608,-44.0808687499848,48.3275125058273,-114.486882454371,145.696831477304,32.5759371334902,30.8047716438547,90.2639936825417,49.7407877111004,138.358641829037,113.841707080239,77.2479302936944,125.118163508338,97.2491483330912,151.184289965419,138.522226392508,139.707015655623,170.154089900585,174.331330839474,124.545071559299,19.182446431384,172.876154320278,186.695734489501,230.153238660898,40.8689291029864,45.210122647351,147.728293542656,247.109732911087,198.370299726898,46.4697402438866,223.019331552699,184.2798671625,39.7170143342171,69.4271932193702,162.597152999936,89.0231034991214,159.85988747273,196.068329498601,84.8498207475524,177.487162011839,49.8023406942648,82.4863610646141,143.229733710388,193.442683970748,67.778660603757,148.016118638363,-4.74135784299157,58.1097390380437,117.954056216162,153.692198273132,49.1810776687846,138.54533741329
106.739678055835,127.294801385203,83.8240747293025,121.443127378334,168.129909649146,75.580740954758,99.282742545489,138.072020643699,55.9148981587213,121.429304664531,132.536750355974,60.2192911821985,49.9922699683079,45.3490442123318,95.9151831933426,29.0049070810536,183.073608874451,104.650331361561,126.249621148964,137.22926296017,122.117115950008,156.521058020015,156.882260001039,140.600135441675,151.944769700716,149.08987881296,171.997902337435,169.30019126615,199.968642123501,193.493908855595,206.463499267079,187.118011479317,155.835624141095,199.851928232689,212.332983397996,250.355076192959,179.517988511724,161.808123131172,205.800364195646,248.477476288016,235.759215373668,157.122310871595,230.607097310589,196.046347925465,132.86919146638,93.0177778991081,156.275570780602,105.848398317989,157.710569136188,190.519346329467,99.0536909183277,172.429251609665,78.9021457114463,96.265645654383,149.387571895241,189.80869402309,80.9998457799806,151.685019702511,43.5758448906616,82.6414238474041,120.842995033756,152.04985610621,79.8609276487677,140.383090825559
152.100212155652,165.529536786092,138.139831058305,169.167719971713,199.816784007138,142.41250160602,164.327007894927,185.207831079735,137.770252765568,181.465994540316,176.588221422273,140.225432037952,130.554780006571,98.271450785154,118.515937969044,125.003699359139,219.381210595698,156.84365651241,190.013391511376,180.088431139207,175.430475970175,186.952141564403,192.516997856212,179.083704393292,178.970934149887,189.512874157496,193.082691303341,194.80387295095,233.829874280723,210.259712160171,228.461050129799,217.809584263616,227.290022856965,218.886044298365,228.349628671513,259.390741158132,255.476544803453,223.124862746038,232.627537893804,249.92990926185,260.404726278915,219.034256757557,240.861447573018,209.563431169987,199.453539291869,114.716096800256,144.126256534282,116.014039943373,148.992899961429,173.803472137558,111.700330026229,161.674053992272,108.228231817828,113.278899537921,149.358752704139,180.604750880327,98.1418257341041,153.354262002591,88.5064889274337,111.289339845827,124.289859652997,153.611392101438,111.676532519216,144.898097515017
148.539273335702,160.964326646007,141.814385770808,166.091006176014,184.591571925478,143.818054068263,158.598974843392,173.034084597948,136.081306679266,163.553585105147,163.805133199747,140.90251865199,120.049444002057,73.4165210553339,93.2457212515704,134.664938442821,215.944844119364,153.149012929606,178.550222093022,179.462952313281,168.545115584003,190.345695273333,186.518945316028,163.622849404496,171.678135359024,179.459783244223,183.442285542544,176.056745313861,203.708080843051,194.775092739404,201.759910234076,174.63084147401,207.062686846345,205.442018253119,199.787667963745,217.397554795719,236.706424258295,196.26726001819,209.856924132758,223.099615499732,238.337254239516,199.452208837663,224.363545095395,189.904174102797,194.750235280817,100.729917886447,100.433323333631,88.6171116486013,106.808735518985,123.169518152187,91.9331946176891,123.113420808708,95.6257708297171,93.4525187432381,110.765627961148,141.560868136363,84.6638286498424,122.23671622783,90.9124106217309,103.198070086858,100.503885054759,127.584599216136,112.80775313617,120.708253828849
117.149065981473,122.775020688903,117.916120988633,126.082272660725,138.358016521881,113.904737029464,117.084205079785,123.281646844872,100.029386629597,105.422110083412,109.451882376373,110.047997336279,81.958048294451,8.58139904854248,47.905703565441,135.771322701741,162.037736127933,121.555681255879,133.310320654302,135.751878597509,124.516013321646,145.715315436012,137.296894761216,111.245880161062,118.400031740626,121.072851996324,132.685539973453,108.319627589038,119.425583218393,134.901677022367,119.199823762589,72.1817111838931,144.004911037745,148.222236181991,120.274798457434,104.87211349145,172.342171886783,121.630808984327,151.051181593821,143.645971629484,155.521977613221,134.676081369561,153.469030496814,110.036586411353,140.71783639139,59.6500178435175,19.1525930137142,31.6043186047629,25.3184138907013,28.7371837618992,43.706112185403,42.0740875922215,55.5717860409173,32.1813369781795,28.4569841719254,51.0083366864762,40.1745118221053,43.2889317026296,73.2054660982645,57.7367290917325,38.9432380197187,49.3519441701636,88.1356781033734,53.1230120353846
82.6389655203932,68.7495080675484,91.918537759723,73.8206298319325,67.9069987981159,89.4712106536583,70.6384653096682,51.702463638652,70.8991657253108,34.6218358789203,20.7238400482078,92.1627410572957,51.5570269707456,-78.3977078635063,23.2740952211223,166.331053847824,103.073955338475,104.138277241769,110.028481529221,92.6311739334518,90.44684501603,89.2844142094872,83.0388021094913,59.7499359514004,57.9934637507931,59.1111784718895,72.9011749737241,36.585128281148,30.6695438387318,56.6189820059959,31.4316335002525,-35.4215186662658,54.656065756453,76.7513687741823,36.9216922894815,-14.33065292809,79.621984664731,33.1450748350208,87.605406768772,51.5603623602876,53.1813484313486,53.8566797190625,64.0198359195065,5.77736936728198,73.9268363494988,26.6891970016812,-62.9010831436988,-17.9036190412831,-58.0376257731285,-76.9841839183522,6.58504918789769,-51.909177308863,35.446644089184,-21.8235542052578,-55.3886372905122,-58.8217850788916,9.02674222815373,-46.217581978177,68.9310743787051,18.6383987254517,-29.2522257703573,-48.3628090026862,66.7521501703906,-24.9857269639844
38.2277423290209,2.40399058047085,56.6504290733009,11.0740454189125,-30.2758803828952,65.4616215773126,15.1555775242475,-38.8122998004231,44.7775365242807,-50.1331136251573,-99.4738747346576,84.0717509003084,16.8965333773866,-180.173093584962,30.860235206191,200.009240485784,79.3627417350757,109.383700576829,115.769046942238,80.299414185846,82.6728786946129,58.9866014983993,58.2679006721203,35.9981027611188,28.0043732082566,25.9402190551695,33.8372006227388,-4.37007290525465,-30.041445192569,-6.54299021426392,-24.0474406446236,-108.717048086004,-45.5330860294217,21.9341460834849,-19.5843724841302,-77.4815448914429,-29.8922936099943,-36.6971118631537,35.0874028145491,-15.7112134225951,-22.0139042561056,-21.1211278275205,-1.2868191167676,-77.4735121628888,19.4902470596425,11.1705989216733,-116.047596760905,-38.539740570035,-107.911694625377,-153.67168048972,1.85953852249885,-117.003083223801,42.3952067109564,-29.7835864457678,-99.3293415208032,-133.104004658641,15.8722650382634,-97.5475570524113,76.1092089352665,12.4906772276966,-67.1580826311937,-113.125277817631,57.0810498400048,-77.9247962034141
-12.0035769007793,-60.3440602656325,12.2411933815754,-51.2275382414504,-118.196728414489,35.713706635068,-36.9434670741604,-116.546103920288,15.973912740153,-119.318495098043,-198.228539000663,70.4045955517666,-17.7138184036939,-241.651609507842,54.3194353885664,212.415709667549,85.6969484206111,124.338023398606,129.284541109452,93.5974466564486,92.1315333385183,61.3396591441641,66.9994067252432,42.7307006250798,31.8379751963319,22.1281310222183,24.5854031146695,-10.4897639217762,-62.246476860195,-31.599825884603,-50.2331991689964,-125.154406278043,-99.0332722062846,-5.30877266898213,-45.515315849329,-87.6343207137525,-93.9208995804355,-49.114894290146,-0.0684770143358312,-51.3059914858778,-52.6281137191295,-51.3040149112601,-26.5537700801753,-125.913644841523,0.496863926772227,11.6745989175651,-122.015299071736,-23.8286043467522,-104.774622774062,-165.615505287045,20.5625294820224,-123.835386397042,54.2171855546202,1.20129177546329,-86.8189612019435,-139.517125687088,43.110125184768,-89.6963447394753,78.5889913473591,26.3522696591517,-60.0037221914909,-115.215874748652,48.5926721597054,-89.1447783997656
-39.5196401038644,-94.0623005405245,-16.5307618347719,-86.122501672995,-152.075403027207,16.6746375129844,-54.878829819722,-144.383826715959,2.57390484960987,-131.622748346519,-217.483594109583,59.0877699405026,-28.8221872336465,-222.579667219705,79.3756913055585,209.577434227061,93.3057647511116,140.973274377068,139.556718811456,111.079126996826,110.890556252948,78.1311254004516,86.4881171870073,62.4150134411266,48.6777066257258,37.6270882895121,33.6065473007095,5.05257457921425,-70.1279193621006,-19.9289899829783,-54.0186694843263,-78.8470502187589,-71.1944833171251,-6.71934259287109,-39.9454929509124,-74.9512581964916,-73.0807592851137,-10.7236018695523,-9.32995284693817,-56.4034072913056,-51.1941069999686,-24.2604577978439,-21.3659723155998,-140.694431213594,13.3703399394673,28.6885443132337,-82.3232731477313,11.8150083057685,-59.2322766922035,-119.236358748766,41.8017587518718,-85.3994513106108,57.0889181828839,33.3416100621156,-42.345809563147,-102.059318852682,61.1219313172056,-49.9173104449695,67.7498039200755,32.6258541666734,-28.9244035602176,-74.1250993040092,34.8071600217611,-67.7628162203878
-28.7929608205541,-88.3369078485189,-7.34717528024262,-76.1719097752999,-134.482602553833,26.1476080713122,-27.5614479326369,-119.169634556293,26.8970313838229,-85.1959238014802,-162.681420717791,71.8843553084829,-0.0359339269355921,-149.335055965428,102.157975224381,212.095119563375,80.7005906512124,151.391695889175,141.042245859094,110.067417716904,122.581207717566,78.565612183738,87.7233177175565,72.4480356007856,51.5766875796006,53.37171533674,35.3478720326266,19.8760558899406,-56.8225384274202,-2.35795460839163,-39.1810635817507,-12.2497165266636,-5.78347092883461,2.10874812758297,-22.1374428479969,-60.7886603583872,-18.6695375926796,26.7889395790697,-4.96192429860082,-51.4822133718092,-58.8568624790942,17.9844558956618,-30.8127862394757,-123.654693814176,18.4807730906534,43.3434671120299,-38.4120075774307,35.0049816007466,-16.9940987820798,-74.5610307104275,46.4435691150255,-48.7269435979143,45.9638657952732,38.5622088734507,-12.1451957022944,-71.2193272466309,54.5703584384322,-22.4890679101378,45.6023543490481,21.0688947120017,-6.56254150191221,-34.8087712379615,18.4647884860258,-37.7594847690959
7.84691012474108,-46.5888458104028,34.063754218923,-25.2156317720409,-84.3857739443846,60.3758165426992,30.7353209487471,-56.4401157927882,80.1747888783258,-7.06088214548551,-71.7351870276536,103.58554416003,60.8586463043891,-51.3472694580607,108.320928730392,223.260511407476,44.2787862246417,139.009155701568,123.173438166089,80.5640149056956,103.613489569464,51.0975898104917,62.1286165656482,59.7625308786581,34.5133402560769,45.9020594732063,19.7264950076463,20.6126719066103,-37.2701695113299,-3.60719865980234,-23.8680386326127,15.3637543978004,33.4147805029097,1.80258687561607,-20.6270210180956,-60.4238711074658,5.3710071635656,33.6902097167148,-10.6189653425571,-68.7394336019622,-107.361161218171,33.9851036309214,-90.6559741293148,-83.8797176740797,-8.59983488038132,38.860646453856,-17.7298741881161,36.2311603368267,0.605870024134576,-53.7987789705517,33.5083867034256,-24.354094757184,27.1644618970633,28.2895820543721,1.8270851120239,-46.2584770509937,33.6413436485532,-3.63563484837704,26.1842861111281,8.53694338490211,8.33878933492606,-1.01178565454751,8.80643467591687,-4.23020075749258
25.3835364507739,-6.63763931104083,53.5516004528414,18.2648617535119,-35.7376908460693,70.0144586604207,66.4017652286269,3.7000567060015,100.100936137293,49.1029726776968,11.130802918535,97.0794279422273,94.2789831941777,45.9063100007036,69.9116186601182,198.97449138952,-13.3558352829897,86.2954853448339,68.4388226738116,23.6658684089011,45.6556952051234,5.86597667895471,14.5893181489272,18.1184440460088,6.46994939415934,7.10135858823977,-9.91895827674309,3.0832754854375,-36.4551852051222,-25.7976320986929,-33.8835821753202,-7.83556861337934,28.7188456530432,-20.4272109591364,-43.6594674543689,-85.3503180811161,-9.22343251775984,9.38504232935345,-35.5583872983023,-114.564548475081,-180.22123476026,9.75750441479769,-176.129137640423,-52.3118530916364,-67.9394217063241,16.7978951889733,-8.19971916639322,23.3137477504771,9.16402292730763,-24.5679196554499,7.51116778701534,1.45474412502595,2.19470072924402,12.0774832063663,17.9560359941945,-6.17736984104664,2.97039986291375,21.769733676927,1.82893763534325,-9.08103519790978,17.5240123351871,32.9825295456766,-11.0128190304195,17.6807671543598
-23.5117251201227,-23.4173506336076,-4.14625209065284,-4.48772812582388,-31.8183325658203,0.0891650919414566,22.0542732393509,13.5247973510676,30.721587317026,36.2049749272838,49.8852380697176,5.21332341852505,40.3952090211767,98.1877606657119,-8.76334468463324,85.2892661598498,-90.632788266623,-7.0951619917153,-35.4020556231244,-57.1894674647957,-42.1568414470638,-58.4514981225922,-55.8609538371083,-48.6934806488813,-38.0967520645961,-51.8177328298504,-58.2666654243528,-38.104591996474,-62.7214374810365,-67.1194688885021,-72.0783388381343,-48.1534343527875,-2.31173674051803,-67.1211830934421,-82.4045534772532,-125.113801994996,-45.575290626453,-42.6929073675807,-78.0910250265424,-163.681613687959,-228.298497366726,-49.9394276768221,-233.114673286432,-59.7941502283808,-144.505887188352,-24.7836177893751,-10.1080043964082,-10.9921274491038,4.24903477186557,7.52019302617412,-41.1979855559032,5.4171645834972,-47.334315258138,-34.3806694970444,11.1628798228105,18.6999184895234,-56.9525241944378,19.3385534853907,-59.8399855838544,-68.1500717933805,-11.6305404159872,28.1553067611121,-77.1590253493971,-12.7402733616688
-113.841229688046,-81.2066650412326,-104.80724042195,-68.8349669997992,-54.5969489999452,-114.892561779977,-67.0325766486023,-9.67388407564808,-83.7182573707648,-11.7688945756562,61.5362397765999,-121.911424870688,-56.9920582357822,107.469635733859,-75.0094529375947,-95.6159262470414,-176.201337295162,-113.62189023792,-166.301572957446,-149.077558975073,-138.596383830521,-142.766688144885,-141.073118213491,-117.637181300525,-104.04769447713,-112.940207396932,-125.315112188502,-95.2469637650015,-96.0527664505414,-119.588051613696,-113.778524636243,-73.0908570883683,-36.8044721787084,-122.786126078599,-121.52162317536,-149.410851154511,-82.4039884953285,-94.7834723287243,-127.259710407655,-190.792234978957,-220.677331857586,-106.543939739387,-238.107839065338,-92.4680615065601,-183.506946082488,-83.4577887728409,-42.5642822361516,-67.8002159836888,-32.9114700412524,-1.00469814799777,-110.580120699954,-33.9858365382846,-121.201575592443,-111.552362124358,-41.5843566517481,-4.52879127076879,-139.439311838996,-33.0096306187392,-146.926147142959,-157.795588181322,-82.7276704799159,-26.9331424918863,-167.592304681798,-84.4044264709719
-161.160181104806,-102.753995516727,-153.354786530852,-92.0888733878048,-43.5166750638683,-170.197305917416,-103.465079004831,-5.85329500235894,-135.988496409112,-19.728082136331,90.0550209929057,-175.391832787488,-89.1176153777601,135.225123801482,-85.1701258660484,-238.365407938275,-238.613716967726,-188.594829645309,-262.493575549601,-221.838372866924,-207.657334368071,-211.277942256456,-207.646352528909,-159.376484523836,-163.763623864699,-156.743244618663,-188.448757314971,-138.838252786799,-112.380410703748,-159.966605598936,-134.54571146009,-75.7719026361799,-51.7078963048851,-161.939566128705,-145.051978063578,-145.08456233223,-93.9753258716957,-102.080596838186,-160.821282696221,-191.211971909736,-174.610685795616,-115.329880503787,-209.268244242744,-107.653725296656,-142.524986730321,-133.121204444187,-101.467539699291,-123.748012482874,-90.8053932249821,-54.2917658115567,-166.628560247641,-89.1293499668388,-178.931488401092,-171.621779822681,-109.552529141372,-55.0516109268331,-195.841183446591,-97.8131370509049,-196.991001696911,-211.783061711965,-143.879889412137,-79.8772847976927,-212.116054507983,-131.682152966642
-124.126272116,-59.3585761556196,-112.500737656672,-50.0193726265962,7.9023123199733,-121.141402657865,-58.7775807375881,33.817963308214,-84.5829066798725,25.2363362119165,132.942352283999,-111.973091444799,-24.3878868962911,205.893378779958,-39.2818314846259,-258.041875741526,-238.910958607469,-195.715495943648,-264.564081367009,-237.203287477249,-212.071065092128,-213.503557664812,-218.765800914122,-157.106028631994,-173.64699787411,-161.490753787843,-210.680846366361,-140.550068548926,-99.4603452151924,-165.284737685756,-124.104080826726,-59.9801157192718,-32.2605924161632,-166.831784703594,-140.941836359906,-121.655686725568,-71.2299087091564,-60.6884499019064,-160.415331663363,-170.239630350702,-123.918158795595,-79.9585963843986,-173.404742997544,-88.7561632804729,-63.1035843539995,-145.05955507604,-151.387267626287,-149.428718142586,-134.815226412311,-109.182865798007,-176.802183681387,-123.709027967449,-181.245249983826,-180.816994555305,-147.629921635487,-96.6301709688671,-193.612166205615,-136.361803234444,-177.02530169437,-197.72207966814,-157.770921740745,-101.320836642413,-186.820580449208,-130.713649976637
-60.4206747075324,-12.8326720595755,-50.2527941539343,-8.33678838150173,35.0304207159603,-45.0046762643527,-7.13737114267899,47.646935176334,-8.39414470778949,56.7396720331614,128.719601203066,-12.5171759550575,45.9870880651593,243.161250688246,23.8984003379724,-200.372892731776,-178.575895788395,-147.444679329861,-191.080993604691,-190.649011193145,-163.245989323774,-155.386753233824,-182.314781976692,-131.6824235495,-134.957826245932,-135.514655651834,-188.016017575007,-114.47500534964,-73.6440145209164,-144.282436408836,-100.604319322474,-41.4572391417468,-5.49349055681639,-149.141976921042,-119.30117111222,-101.382703681912,-42.0751181480447,-24.6243368093375,-140.124435987805,-147.922247149014,-92.5602502416963,-47.1409924306349,-152.224033583661,-65.8816581178027,-22.3100112019135,-129.497334837012,-171.505345775177,-142.125115645463,-152.881326323099,-138.69679681064,-154.38742927426,-143.235832426677,-142.673336359527,-162.220720631657,-155.349504030228,-127.206827971883,-158.031650237888,-155.267110618738,-124.227460410997,-153.632968738582,-147.926590843152,-120.330031641432,-137.769689630016,-121.622918148758
-59.9632763908802,-36.4278978025817,-54.320642252731,-37.9322615675744,-16.7544195096072,-43.1882711493758,-29.4892929619948,-15.9711393375475,-13.8098244673807,10.9706190929423,36.3438090490726,6.249997842295,22.9007492817105,167.822146206513,47.8548642748099,-193.805826293943,-108.387460726343,-106.239840561818,-136.760191997246,-129.573529475842,-126.978324643022,-98.2570156303877,-147.777418694631,-133.311056243824,-100.04630594834,-124.298663295002,-163.087036462498,-107.571386754226,-77.5450509783595,-130.037984715505,-101.504797330611,-47.0082820068559,-17.5753251145225,-142.018412384442,-112.731501636795,-108.5544821274,-44.3726861181146,-36.4923918249796,-133.45672146064,-149.510872570623,-94.0695921331606,-49.2366942800451,-156.470951841123,-73.1322353429861,-38.8258579442475,-118.943683147213,-177.270294411651,-126.809304376454,-162.599391555147,-158.122837106203,-134.986948407247,-169.418793238631,-112.555168733539,-151.113056393075,-164.547877412383,-163.197438025987,-132.902968041088,-176.984128322873,-93.1455181183867,-131.179419856282,-153.7475124,-157.154227860638,-116.16625786135,-137.380519570002
-125.988655480942,-122.281297727519,-119.842663092005,-125.151421743643,-121.53577797769,-109.138675393956,-115.372539773593,-121.368542459043,-97.7587483605604,-86.3046931502038,-92.3043115515738,-63.5930614679704,-71.5428383436414,36.5951667735702,13.9104303446945,-276.255928921987,-68.0867384467304,-112.332384735399,-154.364559345806,-99.5828545788979,-138.748239100633,-74.4078103087894,-141.034041995465,-171.381519706652,-98.8976447087994,-145.73129252988,-155.503077356107,-133.783683416744,-119.150566265867,-130.159825050307,-130.849063430464,-73.7830816732862,-59.9916124947875,-151.220208894753,-130.882702373323,-135.604018089336,-74.5024989599955,-72.4737397692503,-142.823871014527,-165.056958169979,-114.726824734867,-72.5452761893526,-167.429101027143,-98.1076606726437,-66.9654192920777,-109.976705073925,-177.502329241616,-113.177497382418,-169.357757242675,-181.856510423988,-119.7364904632,-195.686285682201,-101.49509870821,-140.22234765336,-181.553833395314,-206.54806185669,-117.974304717768,-205.595482734688,-85.626464510814,-131.665693158038,-176.335548000211,-201.57193727084,-120.391065460223,-172.924923782449
-187.055972105702,-210.930916591364,-178.444697621478,-207.404244500224,-223.536916739213,-163.201308751744,-196.869175230232,-208.387362402658,-173.890266198551,-168.586229022516,-192.85152348412,-131.876908810994,-146.766126886373,-37.1019724684244,-44.7548531215833,-357.164510001086,-61.1953825742846,-145.471569777782,-200.270256171097,-105.024083983193,-166.612038120828,-72.0323325675787,-149.461773687697,-200.277199593506,-116.909301100362,-171.541695309908,-142.552871093519,-165.434625409247,-158.688952330912,-128.57421611263,-158.625956118893,-96.0269175929656,-92.772276334119,-156.492341545126,-151.269562376159,-154.745931036806,-101.836452615802,-97.6965343086966,-149.672927958392,-171.182330607767,-131.213614547357,-95.7875059171564,-164.643189776694,-113.789476095518,-78.9184480958776,-83.5997670273137,-162.097626819109,-91.9100412706147,-161.875058061684,-201.978772771476,-94.4388100493505,-211.702174628569,-83.3466735149821,-114.888009874724,-192.092405524027,-254.543326288685,-92.8954024209911,-240.646334755136,-70.6826020694909,-125.116916163892,-201.362303399035,-259.973643747387,-119.830837678342,-224.487101770025
-205.597282088324,-266.955680025489,-193.745095850797,-254.13178862501,-303.545284301642,-171.109817927781,-235.874302362441,-272.301883884513,-198.464816692826,-218.683192183298,-274.103818333426,-144.088902755999,-166.301574107508,-38.6797539445748,-97.1702188933938,-346.336003480992,-83.3163064932923,-172.128428041564,-208.504851162469,-131.560686977116,-175.650929686518,-88.9928745605929,-162.038655150605,-193.523085270661,-141.240526240695,-182.609265775292,-122.848630090939,-184.644049629249,-172.94541084397,-129.962974581123,-172.499670445759,-112.570850926496,-115.859380086785,-157.174027122834,-162.156361045174,-162.751786059324,-121.495212746114,-120.369969770643,-155.920291421582,-174.633324196981,-143.861042443656,-120.433799811631,-160.672241092607,-124.461484767507,-96.9111644370095,-55.4763990492036,-135.119012265062,-68.0676530566719,-141.947824308598,-211.995245342579,-68.554144298839,-222.267074471092,-53.6596940203397,-90.9401511340017,-194.573679522976,-300.813686275785,-65.0644261499712,-276.749584432736,-42.3307679224276,-103.643213027301,-218.525700390807,-331.349791512855,-100.720338156848,-281.183200548176
-184.754382985913,-271.020186298227,-164.005311467243,-254.006595724662,-341.602514653899,-142.736582100254,-223.428333930917,-304.64540858175,-175.725522988579,-228.991061070226,-331.962605348688,-109.580923740991,-133.948403760204,-10.4302252824579,-129.729958392798,-236.888091631466,-125.69695586973,-177.668791516397,-156.776043411976,-163.161458454496,-164.48523757842,-129.824354921102,-174.157714503279,-171.160375006178,-168.96942304315,-184.167824491912,-118.456822199991,-193.788823378517,-170.797007624276,-146.239752482919,-180.811099561335,-131.494583198835,-142.624490813554,-162.753489455514,-168.885632317184,-169.255789637082,-142.010654151106,-147.470928151884,-166.083867490843,-183.776450981898,-154.509101431818,-141.149967382364,-164.455788088279,-134.886007299335,-125.288970301908,-39.5209958027636,-106.772683057369,-48.2828925746787,-119.365705651904,-217.377602941834,-45.7242310337954,-224.746384046663,-24.3040170155275,-72.619414121292,-187.687316994258,-326.044036773357,-40.0278362432383,-286.007991111513,-7.98604736227196,-69.6036281137334,-199.897447070339,-361.551583602568,-60.1869345994338,-288.860062530813
-127.436708441443,-216.114768101133,-99.3022524173866,-201.035831548883,-311.801799614401,-85.3057712107943,-164.116762825388,-271.236869661323,-111.793202362566,-176.825495957298,-308.770219512369,-48.0959139760298,-56.4526454845041,32.8511939176747,-128.275921577727,-90.0052553276322,-162.994653053511,-158.599488563266,-76.8865945071472,-180.869616412566,-142.745091524627,-178.755999767991,-175.064765273479,-153.894204313267,-188.658311331075,-179.681740459745,-125.349510443822,-192.353739583776,-163.870902675575,-161.606178447514,-184.987726775567,-141.076409308633,-158.831816571468,-164.057329000733,-170.358630561483,-171.142810696665,-151.347819778597,-156.848118887484,-166.98478282048,-183.107579647917,-151.332167292461,-142.209701630954,-154.909829811603,-130.175218299146,-131.565671364241,-11.961398656343,-61.572752591206,-15.6313135179531,-86.4807315447497,-207.556883998705,-6.52510606712215,-204.982671827314,10.6461654250467,-32.651678564817,-155.738223986492,-310.340126526159,0.653312977338054,-242.919385224017,36.3044949321658,-13.5871524112553,-126.492423122463,-305.632964357558,0.611790385971604,-210.935004072245
-49.9497038451077,-134.537400293992,-26.2865247856574,-120.356753729649,-232.934774664382,-16.4441977298755,-86.8376557269251,-184.321601407342,-31.1155746502298,-85.2542238033585,-199.268630894202,13.1342337716773,30.9761587045612,83.3999944631601,-102.639194617616,9.31689675434017,-180.082654812425,-135.939664287583,-33.2960399339355,-185.351154322162,-125.277402846006,-227.896482035055,-164.217502131619,-140.094783978494,-196.787629604255,-169.441730572303,-131.23605912078,-181.487184296169,-162.62065079538,-162.797795192197,-183.336572122798,-135.730807864424,-154.705479046191,-155.264949410098,-165.440161879663,-166.167262731966,-141.65203096408,-142.588843520635,-155.51711110343,-164.993660043717,-134.861229816737,-130.721578126262,-124.583083397839,-109.734928534438,-111.787012622699,41.8984017709737,25.9583558188457,48.2472308261645,-13.974730199639,-132.67253317837,58.4156434677015,-129.647478411187,64.5987596583323,48.6101469071981,-71.3943286040662,-221.237482206685,67.2933444039463,-138.372084007222,91.4468509847954,67.364740112948,-14.0597976458915,-174.642486507284,71.3487115435445,-81.5437588013542
29.7913023517333,-51.8100328730742,40.2411831145621,-31.284049867567,-129.181606639252,42.4044039280524,-7.97252783395898,-76.6048689928078,39.4045457537295,10.472904300952,-52.8144807552961,52.4776441955632,99.8738766252542,144.728996367203,-92.9138828169247,24.6403800328498,-198.204435761496,-148.981828232709,-60.8527838620941,-202.202041724549,-131.011496453049,-293.509743726522,-161.928487110844,-122.29408093358,-208.388992925087,-156.380179157176,-147.280626509795,-171.755244026432,-166.290930439506,-165.350075110512,-177.244319122428,-124.251900923554,-137.635256825739,-149.541036314528,-159.823548234811,-155.641947722438,-125.092032994077,-122.175202005866,-145.163544264348,-142.547189012198,-114.937029778362,-118.476892715601,-93.756916764681,-86.08853533471,-89.9702401233961,96.2733982522214,145.684388457579,130.46840289221,108.792856135297,36.3522298556439,134.47136732541,28.1056734271679,132.007368371544,157.859237567545,76.9707575432641,-33.3276484101661,149.731401957672,29.4211922474789,152.034172469157,165.655697473211,120.590397181043,8.14854399273177,146.394295431663,60.9988505122715
120.919447299615,61.1224080156816,117.116201093443,87.6959837912554,23.8027354327295,100.643265836285,96.3010591823803,69.8901512382608,116.550155683519,133.618649604491,128.984123198404,90.6352087820752,181.230952333402,256.254408794009,-106.811604811517,22.2291148225956,-234.564502121288,-189.079623548225,-110.379456435375,-229.706505996493,-147.028008799441,-361.537635051842,-177.500121189914,-88.6696283047065,-218.486973457205,-130.894807459231,-168.276370497366,-156.192424424923,-146.121593589577,-166.946499476234,-154.984526978459,-94.6024245268673,-97.5501292468299,-144.686731757936,-143.271788226797,-125.257881881975,-94.860904186668,-86.1788016447794,-130.154232710436,-114.793550344679,-82.1058344114049,-84.5449416551026,-65.1000935308966,-51.1192727565066,-55.6643384484214,124.326207614838,251.936219972016,194.808672727397,236.366525545273,239.364383931302,197.38810452809,221.659606674505,188.051440897419,256.904666120136,246.697095303595,202.119043049603,227.358429532689,228.927359039952,210.50330178293,267.791826333439,266.613049251906,218.842685157821,222.207980537311,216.914584100416
228.867740488634,224.742671564757,211.680090126667,241.511670246963,233.135235834854,176.921468772034,236.024337335565,267.084249823475,223.355194245389,300.910113061509,357.94578206361,153.993064989185,304.358755553235,426.640084964265,-94.7482780808663,95.978257179549,-261.343083778475,-188.820500948445,-92.931992524923,-221.605679181716,-126.174109490277,-368.643979567597,-178.689386922373,-21.4209711237779,-189.803725107423,-73.7327474100845,-158.392705006674,-105.96517786386,-75.1779582008001,-131.924883797565,-98.0228756077237,-23.5923068709283,-17.3277349869378,-113.020646187619,-93.269155664696,-59.9202770801308,-25.6993112886279,-7.34109314248386,-85.7123225051081,-60.1771535411113,-19.9261016778565,-7.5643810018681,-15.6342006824169,10.427338760938,16.7927555829646,132.039031712203,318.917041511347,225.011187863966,318.297620578649,393.945089733633,233.382381528359,370.283951953989,217.400844635961,315.600019145453,374.499318502243,393.098584989291,280.087965953663,398.395921015115,253.535637649108,350.498313491247,398.374242445961,414.968046967212,284.478723592389,376.926378181081
315.067766322376,375.237120702095,287.479772406737,369.447529371998,416.474333385151,245.895548516722,356.111939953597,437.497303139855,321.915318302203,441.860633225082,549.701523843575,215.960708434995,415.752104882169,566.737290916445,-30.9934774374145,227.807235567137,-247.136138385673,-119.007990457983,2.59041599739503,-158.880466011936,-59.1813532578523,-284.930927713504,-131.713051787042,65.4901324646958,-114.251825744279,4.01896950026044,-111.952659214513,-23.0055766376355,22.278444686117,-58.1195230858038,-18.0485585447403,68.1774840435347,75.4656792337675,-51.4321440051618,-18.6311024215052,21.313554145105,65.1027699252087,89.0577260378855,-17.9685215916646,16.3824639555478,55.8975366012912,81.5013398841922,54.0762688416077,82.2904068348336,101.489916757406,135.97000053579,356.568148149376,232.936031446327,352.935417317721,478.371211716574,243.754985760994,446.381244152568,223.524435792788,331.148719305494,434.970922723447,498.548766553339,296.770960264867,492.563346550629,267.490187420347,386.594244016491,477.290890554201,542.374218190683,314.895650200418,490.643999920553
325.013521353923,419.039539458567,295.774107563845,397.897394282092,472.680194733318,252.81566229717,382.037652862896,479.875378683944,343.067056929819,464.822564471947,583.732369920331,224.545349405944,426.719933523946,567.427546892487,34.4401242523399,300.945162459627,-199.76641850258,-31.7917448487252,88.2656762486319,-81.9170228534839,5.40831972591945,-161.198545142573,-54.086007631435,116.861815524902,-34.0242262486957,58.6282459357796,-63.0163887762694,45.6135282480213,87.5030334201312,6.38038893673696,44.1300144717575,126.07648729627,125.013170056175,2.8827077986508,38.8967974442504,79.0262335501885,119.40879752054,136.967814767822,32.3837951527295,75.1731971458253,105.182713826415,128.53764218757,105.504684424346,127.802384727793,145.137090355163,126.582586573996,359.610522407119,215.20490279355,344.699663854869,491.253051306027,221.765460863802,450.123489253785,199.770766183309,304.680169782953,425.251206312562,514.351332156373,268.149777981271,492.286598440593,240.087423950912,357.032620005213,468.322349415055,555.424255141138,295.673564564995,501.953147347242
256.025659155622,348.251946886735,230.776593679887,323.398869331695,401.343610047917,187.907208725229,306.39762845451,394.772870110533,272.41173368267,368.092870668333,462.810731019936,167.398540372686,323.565012680326,427.403774817958,44.676499717327,256.173277714213,-142.518968736887,15.5912972492323,97.8870823335409,-29.3067267385183,34.1990048643619,-64.6922555747456,9.01568853468079,102.439556322369,15.73713112807,66.3261124287605,-32.8279964188374,64.4116172442993,93.2158958130677,30.5511756625306,61.8540184105469,127.799814501584,117.847017094538,22.901194376212,53.2669188727346,93.2834494026353,115.743253574473,121.827109607823,44.6215521151295,88.5617259141361,108.559707466358,123.56503510359,110.404292141218,129.697577595825,137.54944274462,80.8973508023572,300.42717493018,151.662195385934,277.084692001689,421.526432893681,152.782310443553,373.600700313918,132.335137416703,230.139464466391,344.605823804518,439.604740591475,191.864192992701,404.071165670202,166.80788934306,267.52608394272,372.372322456941,458.203657905696,219.706440077398,409.883091780507
161.414155230527,239.777851049105,136.81107397609,210.427475824584,285.866697227672,104.829437713656,194.999895187297,270.906399684668,169.035036377644,231.810224770064,301.193341700721,85.7119123032698,185.09981490305,246.619675132602,6.70806610727198,158.983808672946,-89.2407918981435,21.5021835028999,63.1856057127942,-0.0107067544700605,40.025699890272,-14.4307819669852,34.7940925731737,57.2178199690888,32.8093649615326,45.7180942836934,-20.5042610675334,42.1892355280719,63.7343009695487,24.1220258390195,41.3568854523336,96.8997875140034,91.5257599714558,15.6633947027242,34.5690250522723,69.5274824442377,91.7981772375456,92.6273171066203,34.9243245344521,60.3630418946336,78.9472569526169,100.351286713945,77.6807385874247,96.1374878251203,109.160637166639,7.81350490519824,183.651399577302,53.9130919319772,155.730471670224,287.856179508963,52.0714169469521,235.965263589018,38.9974286188825,119.041040803228,214.671425088313,299.459345619418,89.4283207766659,266.568338888222,71.9988162085187,151.090059934951,234.568814221486,309.138068254134,111.93985958613,270.969875320339
83.5437477315181,150.517917068363,59.8673851556434,113.418388262271,179.119401747207,51.8014850578254,107.576561226429,165.292015757579,98.403166410596,118.272573064363,168.931360730191,32.3229368502522,91.8886811542512,106.037032210544,-30.5374632531627,104.256600159927,-45.5150752947812,19.8011043597552,45.0730386400569,24.3758528500163,47.9678190932643,11.5720317798778,35.3688883169118,35.3654552607824,30.9759599859363,30.2082047111605,-20.8555358518356,10.2459210647571,37.6579860252061,2.65424496004925,6.52771823821412,61.6248142674595,77.8244068828205,-1.80083900356823,5.27300481770579,23.3100167612091,82.5303440153323,78.9820504101883,21.5335201188832,10.904531256196,35.0150250894559,82.8687609614126,28.9997146234584,43.0854695848219,83.0380146780892,-54.6789342646222,51.9382992944374,-35.4864866246547,19.0419098576721,133.013530494482,-36.4570645482054,85.726091629577,-37.929241723201,8.43594346524497,74.9033527070419,142.10230849209,-4.0518119354174,124.848974011859,-1.61691117052577,44.5448424847978,101.061270737577,160.025243446871,17.401225972808,137.321475108131
17.5705750243456,67.8148350980507,2.74886104806872,28.8252041388248,68.7862253261787,16.7928694206378,37.9794410934546,59.248662759295,57.9316192468392,17.7605842787406,39.8987158124973,8.42165812799487,36.3902057339566,-6.89563166097152,-48.442461131939,98.2171733596911,-16.2269012521632,26.4627036968042,44.7682117078796,48.7028744141961,63.4924351070571,32.2424639970322,33.3487145739867,46.4946614460467,26.4788669451046,31.237101156935,-27.3831064657309,-11.7293235069954,24.8251424910253,-22.8723638082112,-25.1531577539925,23.8208830403887,60.6961949284658,-21.291543135138,-25.5385251560923,-30.6310750932994,70.0101619792107,53.2980496085439,2.686637428282,-40.3482748155616,-16.7184259968022,55.9929256745206,-21.492242415135,-14.2995219221752,52.8369642725736,-87.2744204518182,-60.48738984737,-93.7674111701076,-98.6441184781235,-15.2818276910878,-91.4511928140663,-44.7698465217122,-80.8535402074075,-72.2361103945008,-47.6874686563355,0.0165976739559968,-69.0135386519278,3.46272479801727,-40.5778211840326,-34.3842319281734,-10.5761802231718,29.4358054124995,-43.949098959286,23.7491963999362
-57.707865987309,-35.700023889074,-60.0215110739835,-70.1774960099975,-60.8882835889306,-38.7799356517723,-52.5495891315564,-74.7455078850847,-10.5941970598259,-104.954219229334,-117.154133557174,-39.0924930212185,-50.1294456686844,-142.657497577241,-74.9398168240372,69.7936515887068,-10.6966325645612,22.5210348491951,22.7292746022043,57.2009556704017,65.3801578021639,44.7355235593041,31.9807000791596,53.4962114978167,26.1429101053085,31.6748630656114,-32.9992617181281,-25.5125337746712,5.94170617349658,-37.7319178534663,-49.3843938695123,-30.1609028630172,7.51269970318613,-41.3588112253605,-55.7708545124861,-78.0048109727903,17.0363718433825,-9.11867245478371,-27.1378026236977,-80.2674013277816,-67.8646418502673,-1.4462215098751,-59.9070062396668,-60.1388537836765,2.49122990176921,-101.065460682644,-137.427545501257,-127.283270660726,-178.829774844154,-136.732899830279,-124.930041036059,-143.566665871548,-106.046037591489,-125.88580976885,-141.426835642793,-116.286428502531,-111.466991850344,-91.6872923472944,-70.0600053935072,-92.2225917935722,-96.7032140354257,-72.5699490378608,-90.0506605139918,-71.2410089165099
-137.877978523701,-141.083349800387,-134.411191368073,-174.362063926702,-184.605633933256,-116.863887896483,-161.89205109371,-209.91247944142,-124.112133475644,-239.254907604208,-269.670452434587,-131.663839774662,-180.279652535679,-293.408669127067,-118.126002174183,-12.5076395751475,-30.5994744117648,-7.41805626098262,-30.1724750418154,38.2073427323373,34.4626749803919,42.120664845631,20.4044688375931,25.2074399541903,25.1519140348296,16.7294193270219,-31.1557327048456,-34.9337132595457,-28.033577651254,-37.7574644613315,-62.2438959088064,-93.0035092324182,-70.410588898252,-62.5128019651139,-75.6205562976055,-105.909718422547,-67.7289401407613,-83.1314781633313,-59.7867358319972,-99.6163459793588,-101.043478143508,-72.8999528866605,-75.6232158221252,-85.4004580043438,-60.5319524391183,-108.729214720399,-165.779050788315,-142.859905020367,-210.01122075744,-202.714476001405,-144.419462394927,-195.987412282434,-126.30322748925,-163.624600442404,-195.76882041041,-194.539739968512,-142.494047512587,-160.296744649764,-108.01483383781,-143.113492580786,-154.7234377,-143.076952775715,-137.850386847206,-145.457513782018
-189.412087094061,-199.542033534467,-191.257563647531,-234.893451000755,-252.049195245696,-176.175756485414,-237.452628752545,-283.723824494442,-215.023412844999,-323.380854293559,-352.290828140766,-212.284353467963,-274.890187063388,-388.306889461618,-139.688281195585,-92.6129648937174,-56.9503576532013,-44.0080337523713,-80.3250183310672,6.84148357632247,-11.4539632909932,26.3676652838803,0.0884546591921049,-23.3157854755951,19.3666158937085,-2.10238099694372,-20.0268530427353,-34.2449697099983,-55.6735224636808,-34.8376903424432,-55.8277463332216,-128.748245470728,-126.900095699129,-83.0188785572,-78.8551523615778,-109.195655647243,-133.764042109425,-129.887233798432,-79.6157509099517,-98.3382290400522,-110.262428062638,-120.039355240353,-77.3441547940534,-95.2487799977949,-107.235421682164,-107.606834755636,-145.90526361752,-140.094016552205,-193.967387438239,-202.476335305717,-141.346248090958,-195.640464811593,-133.287056202998,-175.749453126487,-202.475260462217,-218.130055123404,-156.26292864998,-194.282042433134,-138.62301923335,-179.493499660654,-183.175457775981,-186.013547934555,-172.51896328461,-189.241277642008
-187.455471629619,-189.921708700458,-197.162655786677,-218.995215092855,-235.010158955413,-180.054996417355,-235.664630236497,-263.342581532552,-217.095353437396,-305.299895922178,-331.364490650313,-218.585396878765,-265.837100026542,-372.715518799485,-114.532039316674,-109.174715402975,-61.8865628976807,-51.8452741529658,-89.4194418887247,-6.76613860072587,-31.6380764598048,11.7983574443129,-9.5317329033088,-47.3338199555748,18.3860393539663,-0.246306347447121,-2.06213071692735,-14.4645896006905,-49.2567215396661,-30.0754206841537,-24.767078048407,-111.018429948956,-132.536130470871,-91.2645860310093,-67.2295747535495,-83.9895347654334,-144.533733862618,-133.667625462725,-75.8991158801817,-81.9643757398339,-99.6897279569729,-123.504585734546,-73.7839777212485,-89.6823592266104,-116.741698110128,-88.1340181341095,-97.3202666619043,-116.104259184013,-144.651383179114,-156.168260665533,-111.563334659505,-153.511275740588,-116.414303491138,-147.486395398956,-164.059638793461,-184.441565823741,-139.501403028176,-179.519741207884,-139.866956354689,-174.538605107616,-175.933577204641,-188.350278708706,-170.418200864916,-187.05233230723
-145.259219860766,-134.326804550694,-155.482705352632,-151.341663428657,-157.262945959786,-138.077692569674,-168.848098643425,-175.680333712774,-149.967979931606,-203.829996853227,-232.247674290048,-165.054857206765,-182.432163417841,-267.533475458479,-66.4682781012587,-80.1328848869696,-35.4674467119541,-24.3654210208329,-55.7335752095584,9.79254804587709,-14.5645527653931,21.0849698575037,5.75073910922836,-29.7403538310218,36.6137416354915,24.5852395632063,26.2181067931688,27.2678008071592,-14.678270612492,-7.45861687967645,20.5325277562931,-54.1962876214728,-92.0280847331117,-73.2631652038229,-38.4126101790559,-30.3570079730832,-105.491894450133,-97.7875966953936,-51.2615787084075,-50.1789266139913,-66.3881301637628,-92.527808751117,-51.6478346677694,-58.6842080847904,-91.9566557915544,-50.7967821598833,-38.6571964339354,-70.9648725936187,-74.498732287576,-82.4232893452711,-67.1534056450749,-81.3613413066193,-81.8252759225048,-87.4132498977519,-93.2479222066658,-106.051718854553,-96.717136145803,-115.744004659256,-114.657920507381,-125.460758578217,-128.636651832912,-133.860680806813,-136.913467580934,-133.597873843836
-91.0570759126755,-63.0954831729396,-100.043276356759,-78.8886608263594,-63.4125868470857,-89.1822516781601,-86.1673702407953,-72.6301508948185,-79.2039251271892,-90.9042795334014,-108.353782970663,-113.726640558867,-101.969039123315,-140.963103146644,-30.880507513481,-67.2228814328154,0.817719696637738,3.44611691085958,-20.7422646461368,34.2641558837852,7.84988076113871,55.9816584736422,30.7078655787335,-4.17147532351631,67.7182846403816,43.3116212371638,70.5242000837643,73.7170216789976,8.15087119148743,35.281320980076,49.183947755024,7.12321091910549,-31.927092594294,-29.8112388379019,4.08330485923295,29.0333355440854,-45.5568423762528,-41.7597284390409,-18.6991900073013,-4.81665820934194,-12.7822478550885,-48.0626461773268,-6.05474951784927,-9.5109030219569,-55.1409286180768,-10.5798447502819,22.1843565466024,-16.9471375755803,2.23142620658497,9.31173521717835,-27.3218983023914,6.06470243788195,-48.4995828607371,-23.2417274966899,-9.13840693477623,-2.37132088137801,-52.0843762622254,-25.465534252444,-85.5231230526967,-66.61799061374,-57.4150651693945,-40.5396183534765,-97.6251469424964,-49.7558239712761
-33.3842539892733,14.1590507212526,-48.0246874745931,-11.3850257091569,30.9871635732889,-49.4214840660692,-15.9808262915773,20.9370812567818,-31.1879427102869,-5.33251526615762,9.87891945581496,-85.3858871221532,-48.4095811906949,-35.4452296356428,-11.6635709752299,-77.5411605654002,16.8246920956442,5.97479382322608,-13.5669841284701,37.7136096686964,10.8452356989454,85.8647527895595,39.1829461065934,-2.9108873766103,89.3250064730154,35.5766231901396,122.237449009458,96.8922192879627,2.87941853029512,79.1248419098222,47.3575671664018,55.5324589220527,23.7603308936234,25.7907536379493,42.7553895497347,66.7794678464192,15.6450206128117,8.03664086376875,14.6420760379588,42.7590479133294,40.8375257467229,-1.36839631731197,41.0727861943622,40.575314737696,-23.3047329931205,16.8552075072065,75.0882393696777,25.0091422013486,63.4848316981347,94.4137422948665,-3.74203820605824,83.8640591381224,-30.4123111421553,18.2459537042711,63.7422651365875,97.8593946209427,-25.8299801098057,59.3643017105616,-69.8347245973439,-26.0921799405731,9.73241257874586,52.4667631015498,-63.8872361231716,33.8098517358423
34.9401669249553,100.069225300543,11.9849243133778,68.9827925400689,130.707828267337,-1.26284828596576,52.5372023340109,113.271047924468,18.1477425209908,74.4438995728458,119.739330191541,-46.3724381402744,14.4797155147031,51.8513171120005,12.6064283848208,-57.3077730086806,14.8977155091319,8.0521130510581,-5.53541349343987,29.6966779615322,14.2177633829137,94.591201537324,38.0055640086504,-7.46151027203739,96.9137165375704,19.0213574147682,166.247552054636,98.2979705447938,9.83705011016757,116.583810727521,51.37061558704,94.2369752368294,68.7753281525457,85.5771095006257,76.92792813426,92.2958045218607,73.6969024273994,47.1770468963766,57.8532136496979,89.2561848360773,82.7538610875976,47.7062604787946,79.8888886328922,93.4834609265316,13.6373743887842,32.9567657646935,106.916429223156,42.6387502947826,96.8371751520322,149.182107004156,5.99267696043248,138.52593520726,-20.5118057525577,29.9911667135941,108.915611597445,173.120687754654,-13.6628741650279,120.484111202916,-57.837944493396,3.58477507627403,62.051717608461,126.276082106321,-26.6087919114218,105.34128339937
104.547873126222,176.923323400516,76.0141136115209,147.672483641513,214.05060257197,56.9005031087213,117.70373310406,194.416646702426,77.9405256961016,149.891863729426,201.484732124049,12.0430444767847,89.0451017019125,114.381705647063,47.813947168957,10.1076885018868,28.4624977175203,38.0762832241118,35.7432046205085,43.4407276155924,40.7981833482843,106.952901324029,52.8021914477353,12.5677725342811,107.515901347464,16.9042518208943,200.50000679638,103.48613175779,63.1577558072435,154.869810641073,91.0443986916681,121.202606195645,92.8479604639265,144.989444644533,123.456568801328,128.872398816088,115.516537082644,83.959953302797,116.927735567531,138.878734050812,123.113384897333,88.8289452621365,121.955266482105,147.581093989144,61.3467291607511,47.4377364123418,113.875214094553,40.5348046690623,106.042296915578,174.47292400183,11.4999823598097,172.907076432097,1.56900356773577,28.9694697978079,128.124698367684,224.534388192974,0.327327152726491,159.262053562391,-28.7601072697037,34.0225784465124,99.8664733329688,178.370698748343,17.7695517151576,159.890039075511
133.252011595831,198.453920404976,100.575508373414,169.244506865466,232.091998339057,82.7082534339295,135.215043874725,211.996959111209,101.363541547665,160.431379852431,205.415986989881,39.1223378983279,107.14631821442,106.18307526569,69.891193918146,58.9978678803842,74.0561659794309,74.5629554280341,78.5462805166142,79.6347580202541,70.8962332155218,140.955340836991,77.6209756871603,43.5160341231911,126.287033063832,24.1896073545315,223.217254677449,110.449088125636,127.741606962625,180.661201251316,129.204345730549,122.389791954308,78.4257943655735,184.612530317138,167.889034808826,161.550378242836,118.644753314992,101.625342530346,166.243847434912,177.840510256707,163.153097434677,99.9233615904658,161.818208444079,172.052412485573,90.4909470096327,49.844248841001,94.8665008731005,25.0803029489202,89.5050950703928,169.422903832024,10.0701538469351,177.816185380453,31.2566282268347,22.8281472356192,120.975420251494,243.985031689579,9.89743706414204,169.952481688747,0.243243932436206,43.3489514304703,104.468635636865,187.95402481026,42.9479436879603,169.881529468582
91.7954325374345,141.929954861735,56.596504130484,108.318838154618,169.162328484165,45.6369745482961,79.4819483659268,141.148452203868,51.0124627689565,77.0431324375152,117.415684500326,3.45870417752397,32.3402532683252,6.83259383004629,61.0776094477554,29.7857172338968,129.080297622491,84.4986450145695,77.2509072761535,110.184996971273,78.8768414285112,175.150831634216,89.5501368717008,57.8147510075775,135.697545313168,30.466350431917,218.860839722991,96.9057226428721,153.724241739128,172.568604436107,125.955041643041,104.394260763992,45.1407231952036,185.03470362185,178.408533259555,166.231287807888,90.1629476289453,84.1073099306626,172.711286439335,188.776694522004,190.335817732543,80.7328161575734,185.020737066342,149.128886784175,86.338592941961,21.7981936524766,44.5466167865808,-8.33199072640578,39.5559118586285,117.29540007418,-14.3881536392292,131.993018109728,31.5691889020682,-7.4407176679681,74.9951918130393,202.523137982737,-8.45430693838241,129.771407613748,-11.927663555715,4.3283389674776,55.3826739998657,130.419913855305,17.8853769000406,112.448729692476
21.1628548200655,55.5599296634469,-11.8669481677427,20.5870121848048,79.2659123758131,-14.0593611366747,-0.613827672330883,40.7752028541697,-25.5828159477347,-29.0015594260253,3.55892964967633,-47.7400719602617,-66.9145753870137,-121.967545901922,41.9884576675119,-36.9792446900476,166.860978732662,80.5325094143205,55.064455990724,128.687768811677,78.2752692726204,188.137148167294,93.911618245814,65.1545068002007,127.518616133035,45.4585537970714,187.385688677812,73.8077699711995,155.273801832176,146.616058587368,112.029431482301,102.875701895109,40.7321061091486,161.514825449779,165.360817904006,161.657350727012,73.7589364180025,63.7494013692703,149.749445730679,185.262643557633,207.544674092336,65.1701167754975,201.278063224011,110.832400504705,87.6274954813285,-20.9160285145781,-25.4807566043673,-53.3965068068699,-27.9546832347312,26.3090879154064,-54.6773664032278,48.0485147987183,-4.52730522803274,-59.8588855323115,1.00561127052418,109.049677135224,-47.4385030655704,47.1370567418559,-54.8477631823779,-56.6665721524551,-18.8731757709193,34.5434141336656,-35.1476057966563,24.5723130786244
-8.15782829512072,12.8236070733303,-32.8894387696382,-15.2584936768215,33.8870429259015,-28.5325795455124,-31.8266494964721,-13.6361122064139,-47.2338613045911,-75.198027853905,-61.0381923140756,-49.1140477084506,-103.769866609554,-199.499472275169,46.6544351631547,-48.3087910726069,193.246272044195,99.2508299205104,69.1952553881149,153.859101460446,96.9065720780888,193.723867494577,112.185272467353,90.7623377180414,120.289774382144,79.4682106211838,160.504280039372,72.6037784220337,177.044823569182,139.886288270095,133.197547913973,134.52618203888,74.1297270356421,151.567420412859,162.713350345585,178.486187570046,96.4319786432549,83.1255437460444,141.86167676481,194.016715000692,225.947767411513,84.5760203905196,222.674498935396,99.9321374911944,124.919060636649,-39.8860425456628,-78.0107173211342,-78.7767179808273,-73.4998174323485,-51.1934539052568,-70.6701554036529,-15.814140803978,-27.2048967266053,-88.8804018661248,-50.5923987530106,31.3433780829861,-64.984211217557,-14.2618959445295,-71.5916167385898,-76.7992795202577,-53.9108549860065,-25.2194744323064,-55.8275487195795,-19.7081715853848
14.0085966205895,26.0944120661304,-0.822158800257438,6.37055918015848,41.4614706775576,7.17153548677339,-6.13708761793256,-18.8371919396291,-7.59753294707229,-68.0095855933018,-76.930518332122,-3.16298140184837,-79.5780257800972,-219.482139289818,69.4270054445409,16.6981357118293,225.15421386284,143.324606755474,125.595907647754,188.464856780762,135.887198864152,210.208245136468,143.702035040109,130.389329056194,127.473356311976,121.658601840616,156.5624408172,87.5049388593261,218.161548176218,155.940142700994,177.537131736647,172.398032561596,113.779192856314,165.393060434464,173.718095603536,208.197406028531,136.343879198259,130.243545382969,158.105374509474,213.704080453791,237.666288444324,127.792683865503,235.964689050517,119.879156449327,166.476163948391,-28.155494461352,-88.4874962902895,-66.8933256586992,-78.9878428506028,-72.706204398472,-45.6275129094804,-23.0769134757332,-7.51170486392393,-68.5439613642006,-46.379071460093,16.7840042618311,-46.7722825783585,-9.03010029960487,-49.1612244821853,-43.8224215243078,-29.7198156828203,-16.9046674996869,-31.2414029449454,0.378483444237006
36.2835075796137,42.2440761149716,24.8236214966206,24.373838086691,48.9769421041783,31.7053273867032,16.5933574056876,-22.1226120304157,22.6226946210097,-65.0776248108032,-89.0778372895005,25.5712810975423,-60.7432613006669,-233.77585487323,65.0226730698757,85.7035532670024,247.696259347504,175.608025068944,176.764841679238,207.896572908692,167.285662640868,218.443740307951,163.054458711774,156.83090845583,127.126541205203,150.752559667043,148.067997826164,83.4517783233151,240.930550445412,158.84710115478,203.693527299449,182.850019365406,140.586425493518,174.343990166479,176.732519498625,219.977570455965,158.7552955138,159.497919018929,167.710566745305,219.870430750838,226.39753518065,155.830149369416,226.117644435392,140.602413045419,169.274662402073,-14.1648908382024,-76.8163154952804,-41.3814777600891,-66.8066269438675,-57.1142727592247,-15.6918934874144,-2.91347292265425,14.3056978344107,-33.749468944837,-16.6015688642406,37.4118477329157,-28.8979253386537,27.0852104389133,-36.0584372364747,-14.2754632574584,3.72560536748579,14.5110903258134,-10.8795064355021,30.5676948016176
17.8182423489085,18.7255745092712,4.54514994738845,3.09666627791878,23.4061389718541,3.84490711158814,-4.63296068309085,-41.2761895821748,-3.50312249653422,-85.3719708829098,-108.408798146591,-7.69477698663189,-85.048374258378,-267.267814345634,11.1746993664395,93.9721509696253,230.423347287023,165.80774412358,181.359806750486,192.719317112722,165.436363839033,183.754418158839,150.777620157144,156.971190807573,84.8475438011826,158.975299050171,99.750880301379,53.1614271270338,230.432103525954,120.377619139449,199.482730360052,159.900201428392,155.705541206576,152.218573848403,157.676567981244,203.35453927195,155.719370825893,154.256843889453,151.598617592014,202.236432387799,194.316027830999,152.136419545066,201.357894152823,136.981665870515,138.432896741662,-17.7573185766505,-82.2485337716306,-35.1242202420004,-66.2223629696243,-59.2228507565785,-18.7926616010138,-2.89706642946717,-5.88452167846906,-30.0171766132837,-13.2476342728562,37.3103180642063,-45.6361866655156,31.0413962768227,-65.4998353390808,-32.5600747023097,-4.14301367166313,15.461148806413,-33.3802984920873,19.5869297397686
-25.1046442530466,-23.32989425884,-35.181486716203,-27.0615825463277,-4.50618947166905,-44.7386536795328,-38.4269135005254,-45.5394181166733,-52.1233399338736,-97.1707028379732,-106.630959041858,-70.2984080555125,-121.244902265499,-289.967628009735,-54.5305398816397,61.1258542271302,180.732807001865,128.568135192171,148.117219791113,153.632297511085,142.67505080367,112.585660505289,121.698753314972,150.490843556286,6.4278367554147,164.844553354308,19.1247335455759,31.8203948235753,209.144238904157,57.6999421844944,190.146037500838,125.833632293999,160.186769477745,109.179796880427,124.958348193748,177.444494662326,141.419194621884,134.105716796357,120.983883400641,176.211796276452,161.753378934035,134.198667344799,179.973189671845,114.932303485139,106.351488726128,-31.8385099788154,-111.577517209991,-51.8182364642159,-82.5309200105658,-98.5307997932791,-47.8779849367673,-31.3335847492923,-53.7413146615752,-56.4523165549393,-42.6127712032906,2.51697595364871,-87.2819432687627,-2.05436499568138,-113.575179287928,-77.587555569526,-42.616271852938,-14.5915243021393,-79.0021214064921,-23.1509046287937
-42.7786753833794,-33.4548581070221,-42.6583123809859,-23.1475836156288,6.0094268649742,-57.2147986171948,-34.3361120347181,-11.8427844197457,-63.3894918897378,-73.8169816752582,-69.5910368981975,-91.6483581498806,-117.560100662725,-266.053618360241,-80.1970125681801,52.8882457414653,136.872980301129,104.455730047751,122.66829578683,116.516781753199,134.744964393113,50.230727884059,109.756099337199,164.336988325577,-53.1374422520329,188.371835474216,-46.6907364805285,56.5369782384983,200.776446086657,13.7481030587793,200.469492275284,110.927529730742,157.804323264931,74.9149685912268,104.654568618211,166.552431103383,129.996831582885,117.860797631637,96.0271372570161,160.422681870534,143.707463028615,119.517788879159,167.747435195091,96.5451919856312,87.35831655377,-39.9760502523922,-125.150558624652,-64.7053808080872,-90.8656129911909,-129.203266054311,-68.2682207417339,-52.1301033593631,-83.0897608371844,-74.7282985701293,-61.6734898853414,-24.1654249898805,-114.523065357498,-22.4759365253558,-136.360728841786,-100.782660442295,-62.8945399318681,-37.0802884031031,-101.084831902518,-53.5965670007394
-19.7939568360259,-6.23663727136433,-10.8346159157893,8.65855686558423,40.025428059419,-26.8937213725154,2.71392687399403,30.643267572206,-29.8145488204289,-32.9466067126721,-26.1484049196227,-54.7503667664164,-74.9425846919248,-210.170113988277,-64.3492434250808,91.5270741304053,111.731404385019,107.753698958747,127.89725535804,94.913992000578,146.522705094916,23.3402387771149,121.638741049111,187.696457339533,-51.0933805473676,210.994489364347,-60.2531465257036,119.7477464021,195.1065819962,9.0825693761866,214.580276288162,115.297374273344,154.456393419446,60.9137974728513,108.750269026876,165.740232516444,121.690523842702,103.870275119113,85.2738986567728,154.333956307653,132.416416259183,104.787982978877,153.908613953672,84.603350070498,70.0596702686933,-37.753508167506,-89.2332146581556,-52.0912610357468,-61.1309900454937,-101.508784813395,-62.5411807283701,-29.5485666334723,-75.1856902166285,-63.4412674753727,-39.5087701890046,-2.46056723041193,-107.844146007878,-1.90334623723425,-122.134467639564,-90.1428996219488,-47.6048794600607,-25.23795243874,-88.6290313749055,-48.882457420317
2.57399733012724,12.1516684467133,13.7617342579893,24.8802017757885,47.8811432841424,-0.16767057653975,23.9750188804748,35.8531391187666,0.226170545692762,-16.8410504512165,-16.9333107374511,-16.310640140894,-51.652612356116,-181.335108854158,-46.7477463108625,126.978225273732,86.8509811604033,114.359737258061,133.642429659279,84.2737321027355,145.558926469642,18.2773026959778,131.116597410511,181.320179737341,-7.49301440468082,197.971921876429,-35.499251939939,170.383046090428,162.52780589343,24.8583868160594,194.842456160018,103.791884567732,142.629663191524,54.8937971421249,113.887196073743,147.173966052577,103.729431131226,80.1760908068084,78.9584744104875,139.036335710238,109.774544482529,78.4412417016102,125.048765748342,65.6773346180893,40.745853097551,-41.3616593744997,-30.8089916402996,-38.329913052843,-13.2124641637956,-43.5410428354583,-53.6019451114753,8.46054914961798,-59.9822664837217,-53.7604704849952,-13.5467162836521,29.6271139731246,-98.0175638281173,19.7847237213049,-104.725183119688,-84.4612041308402,-36.8960857263379,0.935008423550101,-79.3986497666738,-31.8977589102246
-14.8197265670792,-8.36721590390775,-4.82281386570497,3.81073125193634,14.9205237091036,-14.4649370103354,2.55589201773647,3.57233355051362,-15.3793384167891,-41.7257813684323,-44.2062112257604,-29.5916090192917,-85.9786514270265,-211.790008870035,-50.1582556870588,95.1070165710126,58.1211000983638,98.5457457016298,98.3573072649314,78.1405636283248,113.50977144511,20.1078996488983,124.971573776523,138.775007031875,34.7866001507269,161.933106077429,-16.797025854552,178.737268383481,111.80818444769,34.9318271022041,144.977640794326,71.1496696246409,110.313448257318,48.5358314729362,99.2376754223559,111.894688439038,72.0981205747876,45.3326593392038,66.1347875828132,108.463615256831,78.6652594882441,42.539415178934,86.8123319896488,42.2747601858484,6.54324832973539,-66.6018599697976,-5.56291711485611,-63.9029610803523,-8.09245472984065,-30.5827494832189,-72.3980917119105,-12.5669507548136,-80.0114932473369,-83.1567680966121,-49.9284789752468,-9.52372555585462,-120.472291723923,-20.0547621981857,-120.380532380751,-119.463146223574,-74.9693501167853,-5.05480728610048,-104.756726699161,-43.3111809396885
-60.3874742777432,-49.1708080286265,-50.8978052360585,-34.6298459267652,-26.099041516957,-60.0203880391388,-43.0848451822844,-28.3912745500042,-66.5235841632805,-81.237811556395,-73.405506317732,-83.9173864189768,-146.271696101101,-266.745834068392,-75.2456610715249,-14.5704542215367,44.7259296460884,57.9414545134878,18.4767263655097,78.7794120436698,69.8383397072842,39.2961621102967,121.192793334527,97.6333374792505,71.7649832401827,152.163814699275,-15.7259265582345,179.997844975713,93.5682509889052,44.8525581014786,116.163280116908,61.486799422164,70.5509900097557,51.2711011302928,85.3676942375311,96.3240968571027,47.7882141699654,18.8231738993869,57.6513113643077,89.8034741093628,64.3795825216521,18.7379639066795,62.4383991457618,33.2809416978416,-7.74662068595205,-94.3311281170291,-26.0758824979375,-107.456202667928,-56.0512236918647,-76.1254573360702,-104.82272126972,-101.604944602341,-135.043757525387,-125.657618997003,-137.198708452331,-123.299984280167,-150.888448397681,-120.421173611597,-153.653636364371,-170.639806257314,-148.20896865801,-56.0120990830724,-144.926311470329,-92.5525473372164
-99.7278619194618,-80.8392762995156,-91.620495515932,-64.7083361815137,-44.7104528842243,-104.097845745341,-82.5711386261569,-43.2115666537138,-116.351247147945,-107.054256575673,-83.6185920466992,-139.302835905349,-188.020171347429,-293.959827027981,-129.291023843525,-155.888240936415,49.7991918220897,4.98370646676796,-73.862979046023,85.7858471579131,38.0418361868753,83.6920616746593,133.940668993355,83.6748427672792,123.098879526749,181.781824773076,0.205446216300739,216.624452895948,125.989850502062,78.7068564563046,141.052895126131,90.3001798632428,57.2015527216781,72.1377444980015,101.81044499486,115.904862746486,54.9023229223367,24.204373101798,72.0069913382086,104.770348134068,79.8246618602958,26.5812174548738,61.173205119666,45.4873700220277,11.6219379273495,-89.593769051717,-62.0870373631451,-106.855397837828,-97.801392775352,-121.127419413274,-109.417473340336,-173.992910543467,-185.960302751725,-124.505343474108,-187.247719014424,-219.32556135076,-139.374760696889,-206.131886099539,-158.068495796542,-181.884293238863,-200.096662523401,-116.165673774022,-157.935750309043,-148.170331948259
-121.632651486898,-97.6306349747502,-118.792666366961,-86.6548637514997,-48.4132668149623,-131.993429670688,-110.396238074927,-60.6399827454451,-155.557525313595,-126.369806239409,-94.2776245435974,-182.826120853816,-217.067409293111,-286.90014979468,-195.621681820071,-265.455137872163,60.8009780322955,-38.1466719759641,-132.986349996623,96.8058815187463,23.9332865451774,143.18491619653,156.970602505597,88.8979665944408,187.960348086154,217.659386184508,51.1137966556031,274.16975480156,170.533418714626,137.459573214004,197.129201053675,123.614200517543,78.6480258622858,107.063318159607,144.259152600983,148.336278803253,89.3933581823537,59.5899756768418,106.805263395098,135.911132964289,108.821930156662,58.7027907219324,70.5198668924359,65.1310289014237,48.0169763481542,-59.6259375866041,-97.1902091423568,-60.7118395400007,-100.986941111793,-136.116304141223,-82.3314850485054,-177.227771705085,-208.168817439117,-80.2290801675773,-165.355040679433,-231.214161677724,-90.5167998838403,-218.068834985143,-126.057389147942,-144.523451602171,-198.766206719323,-149.439894412583,-136.950991433438,-175.213410530489
-149.854225432392,-123.268376195865,-154.075446868945,-128.017753953022,-80.4964742164666,-163.391203385885,-154.908243699776,-113.223801657795,-210.179703877306,-174.049348768304,-149.614041837305,-226.581953309054,-266.586924697383,-292.713445371706,-218.756646628459,-309.105706650125,82.3081479713908,-46.0967171084558,-130.653639186724,116.939226969448,26.6821049103262,206.867756248969,179.861143637406,94.1129473598132,240.355672839728,228.373283504791,107.566932986911,309.898054253324,187.812411923028,189.841329238344,237.409648029521,131.723146239615,92.1989349271043,139.468488656724,183.060703034651,167.533798374707,113.706913415117,86.7950813141538,137.567913905511,153.191122299159,121.942725012274,80.8787684116665,75.1694860408047,70.9320041352561,65.8296660303079,-52.2190518755955,-150.530627828066,-38.8478317849321,-116.039046153761,-171.171965038729,-69.2879260793006,-175.791984888074,-211.546886555132,-63.2483143572601,-151.186603711573,-212.865274735687,-67.0707846068239,-199.67329682786,-105.249865610524,-121.548794515986,-184.511945463137,-170.850091750776,-127.027525863108,-185.193019078622
-209.691341912003,-188.473904756498,-217.417272208671,-209.906271379145,-174.972339264934,-218.470294183224,-237.872402342048,-217.334707913995,-288.781804562609,-266.283494505078,-270.908343283326,-269.544261486027,-338.00077711465,-352.430494758638,-174.243101651818,-304.253091321898,120.08399581917,-16.5231210981957,-86.748930584255,142.686405933155,40.3249851828508,259.08222551412,194.029426865151,82.3891795695309,254.23627531223,203.678806156225,128.428076815604,302.075872926731,168.432998894746,204.791630048212,229.159520765764,101.644329134863,52.4536909449309,144.135330427697,188.055651153271,155.338608978795,87.4662474219626,64.9580969718645,137.107147057193,140.067123420366,98.5619595073525,60.1063897010802,59.530681751721,46.0957840453515,40.992672569954,-89.6954391588851,-228.218316466637,-82.6036705137085,-188.410826390288,-266.826768844602,-108.350524700505,-245.415695458671,-216.911619283127,-124.189031826157,-222.848349017321,-263.669108930472,-113.204712223426,-244.447662630948,-134.930235494062,-174.654579572674,-230.123863890374,-233.947984870766,-171.703283390611,-231.106769919762
-273.256639298738,-275.292743205136,-276.306461825228,-296.95302136842,-293.931527195434,-262.860927927194,-318.587857341349,-332.567346651504,-342.168347959641,-355.253493586592,-404.362720021582,-278.611689813901,-381.13763984757,-425.618462710656,-98.1759874262196,-283.339779480573,155.72918914182,25.3469395976941,-42.5192928203267,155.182779933248,52.1551043872208,273.243584277664,190.381927459935,51.5571773281739,227.492187501518,146.398417864429,114.456381895502,246.978646165555,114.470166178824,181.329797301958,164.926527957642,34.8725509521579,-22.8366107207582,107.312801632872,146.331383642364,100.945713702861,16.1556629497777,2.7650028519547,96.7960331566976,91.492049378334,40.4402721792659,1.26960771102779,13.4479623006439,-7.37299463212179,-15.6113147701242,-137.635131127377,-283.947424984427,-147.684708179883,-262.615621326816,-363.70732763028,-174.204844458161,-338.419588906847,-229.258031231633,-207.162062606006,-323.260128704729,-369.906771936685,-184.930720644058,-345.368806539912,-180.967607842847,-264.837592759502,-325.738448323782,-340.794000676132,-239.093089468251,-318.237824504485
-277.818178473348,-316.793962541086,-266.198108330595,-319.6250817177,-353.281731488453,-236.734416713968,-326.823260449602,-379.210716328525,-314.91772460037,-366.986409218949,-458.421171728115,-223.000301218485,-348.646803488709,-425.000726102149,-31.0368371735652,-257.519305305231,167.824362417517,52.2959990850103,-16.1025218801953,142.384453852324,53.8281916081293,233.321529390556,161.23301792932,18.0721010559933,174.43665369515,70.5138945904829,97.7375734435212,151.177905417042,34.0037294359066,135.396126747635,66.0552145812749,-42.1284501543673,-75.6745368968371,46.8423074136789,75.8451418064029,19.838135779499,-53.184617406805,-50.2679768712705,35.5112874706784,20.5679034874629,-27.1810881286267,-54.7383739699566,-46.6308468993858,-63.7967920166689,-67.2517357291972,-152.967514518628,-279.441011024375,-175.644889355805,-265.684730129363,-380.256412699637,-207.07036313046,-355.208747243589,-229.827805549563,-221.263539087271,-336.457034090664,-420.290584717074,-199.553898346794,-392.709817455628,-173.646302339419,-287.63561045189,-368.463082860938,-411.062721289414,-248.062925406403,-371.008194037967
-211.208593835067,-280.831164158737,-181.997955546074,-261.814187837015,-323.389522949538,-144.508694495215,-254.4095154403,-330.034546839024,-222.942636338461,-291.890659086121,-402.812184984956,-122.98816845117,-256.876135243434,-329.045016058865,22.0486871863959,-229.118441182873,155.782496516815,53.0055985339133,-11.3150559181656,110.766002221352,44.023178722679,156.5724433737,108.219829177289,-4.0616974679227,110.493661221551,0.460251815297961,97.2480752010574,48.2336988349093,-45.8314130665536,83.1395645406568,-20.42200003125,-98.1207991518576,-84.1297814522691,0.436392654515933,15.2638459048481,-46.5536486123044,-89.4554379773469,-65.8279611689805,-14.1664232334103,-35.9674760925734,-70.9961690490484,-76.259076466335,-85.6218215720713,-95.0912358719383,-86.5212668483962,-133.171969193585,-246.685694296716,-169.327488261474,-231.110636725057,-336.727783070487,-188.334429307816,-303.390106583562,-195.520665651917,-177.501655360603,-268.596931572077,-380.516069927622,-150.093064021958,-345.041580101932,-105.367529339849,-221.833022852715,-312.903370291937,-389.521887279939,-177.920171441417,-340.760138154909
-131.069304482111,-209.439910026376,-94.8309436313059,-180.736686947642,-251.083508750755,-57.1477589626421,-164.087305471965,-239.372987999377,-137.05095628587,-192.335120906561,-282.081689460924,-36.6395822784369,-164.742581431046,-197.879808650002,72.619145242245,-205.145750885641,131.318383092113,31.1490927322924,-36.5175417133782,72.6509522073625,17.8470803888967,83.238430750514,47.0927348760899,-21.0071373507969,55.6464420667884,-46.1394242814906,104.360034865029,-16.9228674872975,-98.723358505765,46.3879798301271,-60.2194671321664,-123.126103039718,-68.6828584334122,-10.8320310354672,-12.0686502561685,-71.1620035473558,-95.6119038855007,-57.536265837894,-32.3907238373073,-49.9563721152554,-79.4352195680388,-68.0397754860897,-87.4429362671529,-94.4945566783208,-77.4334823942325,-98.4110872033145,-232.601737337515,-152.597989392099,-225.28612383939,-310.612184245855,-144.285421123054,-269.031753197779,-127.093387534588,-150.242398055669,-225.096388205713,-328.065032856422,-97.5877919705762,-283.593306806553,-32.6648326416731,-150.232705651448,-239.699745310896,-324.206728346132,-92.7071302075836,-279.993456192108
-99.8065328884612,-172.926392816474,-69.1775934534439,-144.261438782714,-199.949245912493,-32.1588727251389,-121.840898168389,-179.936410071247,-108.714252909347,-136.261836354262,-165.164689138678,-3.79716407159102,-122.002196609249,-99.3795738661975,119.518893626926,-190.504787637892,101.247042796482,-5.20718737162448,-93.1833307115988,29.2081535839192,-33.4044785104561,31.1687422784212,-11.1094662764447,-54.1191046849686,16.2837873278484,-79.5558749921536,95.6806873084205,-43.9050860601107,-134.763001795935,31.2083251845408,-71.9609053137698,-130.486415763057,-51.5102593766558,-5.44833330351735,-23.1316050359641,-74.5992570318349,-87.0511612460234,-51.9262540655409,-30.2667799434367,-44.9339950528442,-78.3888582541932,-58.4325061342489,-76.7062516506644,-83.1599914554008,-67.2722690790959,-60.4849087328754,-239.439615390962,-127.503289368052,-238.874241093101,-325.876323341551,-99.1710870720166,-285.153054467684,-50.3550830742135,-153.755249369019,-248.415815949177,-327.663809472929,-69.33410843028,-284.067561043652,12.8765152381895,-125.0737762267,-236.191082338053,-302.982801699087,-48.1124112912487,-270.301625382875
-132.140807026172,-212.038046729469,-106.937772955403,-180.40881346054,-217.056679958825,-70.0649677693993,-152.31026555933,-191.504148544386,-141.193392046573,-151.995434897914,-118.721673021943,-21.1186126015913,-143.016572318994,-66.2207606590251,153.364528840482,-173.705155581744,64.8893894829749,-47.4471006818937,-160.710938864867,-28.6389080540746,-106.27540913939,-22.5131685313261,-77.5400906172248,-117.936867157878,-33.7557294295079,-129.012146403226,52.357720069396,-84.0162893018514,-183.974047739714,3.18367009980965,-105.153975693599,-146.338030940862,-55.0935465290959,-24.119603825466,-56.826585144222,-104.998076640578,-87.5281359358866,-69.7302429197992,-43.562100478985,-77.7220438980163,-106.458944132999,-74.8178775248944,-100.143522648371,-99.5295206386257,-84.8250591041447,-31.2817491406223,-258.717199155343,-108.599288466531,-248.584829365589,-362.46252804306,-65.8105381420038,-328.60147402798,12.1143703717734,-151.717087896183,-295.270182232841,-377.658212463305,-38.7733757661469,-338.309199545306,54.3363651892902,-110.731466801062,-294.793827371055,-360.197946029569,-33.2709929635769,-332.395077687075
-193.665617409854,-300.796109694527,-162.496771034053,-258.872168224476,-304.539148386563,-124.731433861844,-222.380671324871,-258.099089732326,-194.597041525635,-207.065854600237,-156.729186706686,-50.2804749472879,-182.594504280345,-79.4862339762226,174.052777798678,-124.243087448315,19.708823652409,-81.9089474680233,-199.877434182551,-97.2512150266687,-176.494127362233,-95.7777127211962,-157.527294332514,-198.815693260474,-110.359460856103,-201.931711058536,-19.11721050613,-164.060088163823,-247.80486150305,-69.0837716638729,-176.551047202744,-183.589774269611,-96.7828941461547,-82.857197261517,-124.94242805897,-174.780032408368,-117.848635135375,-116.428190653837,-93.2985335503409,-160.867219806472,-168.401210786702,-121.739623903026,-169.653527851437,-158.967774348574,-133.802862635129,-21.1442614062604,-279.984057946003,-109.869359142022,-255.691476091823,-393.649688118092,-42.8317766203514,-363.412651363767,66.2001462687408,-120.814060049587,-309.45458134863,-430.703153615449,18.0213476821265,-385.060716540605,112.9402036621,-64.7120780598484,-342.144244118576,-446.538104457556,-16.1162933865536,-410.632159260802
-231.644815540339,-367.478297504095,-180.712893920618,-307.678511245796,-392.952426745188,-136.724458163654,-255.12929721993,-309.213219723081,-200.066903416889,-223.604607621682,-204.067663890516,-39.4012714383655,-160.460650959534,-76.9967326710325,180.326765551086,-32.1233369757142,-40.7277131155981,-100.963641417202,-188.357806727367,-159.97621153186,-221.206883658641,-174.485481355932,-229.70261745678,-266.394408060454,-190.490845772417,-273.140680634537,-95.196492478525,-249.591211646334,-304.738221407156,-166.600901824339,-257.107681767869,-231.321550819518,-167.131520433273,-156.091362944842,-202.205799122885,-246.21922629284,-177.435571573916,-181.284458901937,-163.610520944563,-244.675725770941,-233.890828553126,-186.449916851902,-243.248912071361,-230.763913760528,-192.033624461661,-17.8562015786589,-262.506790354251,-99.3941560802023,-224.15624348776,-379.195189245382,-7.90366239751847,-339.029936632048,130.469630739784,-55.8342873833199,-255.034909258741,-419.410357148961,95.1083374236991,-363.698496835078,175.044435434868,5.81646999622239,-317.311467002634,-478.255752954363,10.1804102774049,-422.172317101122
-211.245643586872,-366.896894533349,-132.064767667211,-277.746215441891,-403.860826676059,-79.8723180878992,-200.930757734279,-283.066564927096,-116.920518647797,-154.672687452496,-182.766777110301,33.4528187816651,-52.8435506806837,-20.7504841733356,161.099804605065,60.2697518299446,-122.209991416462,-116.583260504113,-154.515503784335,-217.784491667256,-246.532401329988,-245.753596894952,-283.665033487995,-308.781774049924,-259.030659915547,-328.562430820689,-169.842390899322,-312.451106529131,-353.723544329678,-253.361479012544,-325.934239021879,-279.568234672441,-250.005517202606,-217.157443214072,-270.631352628838,-296.798037098249,-255.607572860762,-255.597030673814,-233.954963186946,-295.645870216691,-288.492322795393,-260.501589209832,-290.539945506315,-284.943601154888,-245.858227922299,-5.86798885868134,-187.921112137783,-51.3027614770632,-123.098271380377,-309.605335663387,45.9444259775916,-242.841097949691,202.295385254009,34.2744974266945,-142.924793716858,-337.089409039035,177.673942317189,-276.106145644026,227.170068669226,84.5078638395102,-220.382144897271,-436.992534907618,53.8490722938139,-343.062357535514
-132.653920171105,-304.039250693101,-32.7675742646422,-184.353903061016,-331.34215969028,15.6652242592816,-87.8025060265909,-191.562443649704,14.71618807412,-37.0599658545025,-107.395318980266,129.440616232771,75.0627637902478,59.1162532204116,122.653472256193,100.425864482933,-207.731166755006,-142.631385488746,-143.721067766216,-281.142506711395,-272.472444246604,-312.722745217,-332.754882931976,-337.06124381234,-324.8419454826,-378.402604408006,-247.674261448721,-365.848125337791,-404.93187808339,-319.568131510703,-388.761780899174,-326.46027102047,-332.911911629047,-263.771539463532,-331.065685333141,-342.008389367811,-336.165727735363,-327.272780438711,-297.370874729662,-330.946506750383,-339.550381738058,-328.819463758847,-324.378080483694,-323.324261225746,-294.040465906151,16.3208892816803,-90.1831161644532,16.5562575904041,12.6288034385577,-219.70893142306,101.239190636199,-120.414301429228,268.711215902338,133.187080185712,-10.2912941837997,-246.593894880676,266.991190245124,-170.065143215293,284.264973123625,183.714290551579,-84.8904925859869,-368.0447789566,140.674795245855,-216.872634995676
-23.826646417936,-196.371748267815,69.152438614618,-71.3217477915358,-215.874758249194,96.8012256854583,23.0408278188306,-88.9104401650852,116.615097026698,60.3719377971138,-32.0114605366233,190.487589501704,151.54943041746,115.411684468491,98.2721129676693,85.4267924676579,-258.721598981201,-167.109071619238,-157.250797989162,-331.91136908347,-295.251849917739,-367.956511313999,-369.998993295954,-354.531374380755,-375.606463463392,-417.676869257943,-310.138644846689,-409.904599917915,-440.574464170278,-365.33904649799,-435.706139651114,-357.647479554277,-385.958623475385,-294.554830375242,-370.46200120574,-378.423037222049,-386.895232844327,-364.065307115045,-339.007543855214,-359.359836172774,-374.027306541065,-359.968537886831,-347.863650200386,-341.810028977462,-319.885682176373,62.2236222424027,18.6972685527319,107.470265887375,157.484837554182,-103.346595292148,166.898352256258,20.6886412774198,329.139687845314,237.713723958615,147.158194627683,-142.279369642069,364.982965636159,-38.1728662967949,353.732658727029,306.297471904311,77.8217918285014,-257.19878837404,258.183112549528,-61.8667612390442
78.3239845723997,-61.0246169702466,133.522076131591,35.2956287641482,-82.5475019183185,138.085755360548,100.139697210558,3.63469826863519,158.668863686042,118.923819673675,41.0817108092857,203.881742902183,174.194037918351,149.769368387943,107.954416663155,57.0934632873273,-251.554937944855,-161.429900412563,-158.943843268921,-335.773054850611,-287.914444337347,-386.617290656076,-366.78810514433,-345.031529381383,-378.30023907559,-419.607639603655,-328.545045265739,-412.188491978019,-427.503095000211,-376.442652227502,-433.999521993545,-347.332638399447,-381.479918962435,-295.502534147413,-364.31795146428,-369.583365233797,-379.340682507531,-338.813256348172,-337.254063813546,-354.085822234578,-362.849641250788,-334.123699968388,-335.1361618999,-315.243035915269,-299.415935609958,133.575560868195,149.015685787284,230.451435408169,312.331372717942,77.7333859868364,256.198567131418,210.140094878653,370.887368680383,339.367371772516,336.677940783577,56.5496319694442,439.425805110325,162.199130308338,398.290658883771,406.098342672848,259.678953725762,-36.7164109245361,338.618939728568,141.659019745255
140.108294205864,64.1551302362775,150.911171443934,118.429927056018,51.267787455835,142.020153065435,139.872769928366,92.4639752586719,161.802682826463,162.15451354021,130.35474915779,190.203400971962,179.073977311701,194.23883631837,128.992854020055,44.0747008080043,-201.031272138946,-123.267646999114,-132.894943201312,-290.224705280241,-243.135096386993,-356.782169858648,-322.191088403248,-302.10869150183,-332.978023855331,-374.19536144541,-302.796956908925,-363.179515943273,-360.302759878508,-342.883394122419,-374.008577890367,-288.269645896201,-326.042229027151,-260.742375883234,-312.385223413097,-303.955468427198,-317.688247073291,-263.137176658058,-292.226407393481,-300.631835152067,-301.059808199868,-263.158191082923,-277.302805667445,-238.311204004438,-235.278122859553,172.690252478692,251.905683831306,312.912830378374,416.476396185382,277.041836325944,314.375525919263,395.460276369686,357.021282633344,393.144433780712,486.397985390949,321.02382613563,440.302029938508,380.240977302309,374.399846058002,426.249334889314,408.635117649524,252.959184284661,334.495392368111,357.010061874599
145.117893909182,134.088183776445,132.663766785739,156.366020468026,153.312630892888,113.684724753341,145.622925491841,161.011430915207,142.101050654114,195.779468348675,213.546212543204,156.071492171761,175.848831904757,249.666849030877,118.437394605159,26.9599471204942,-148.104721153425,-92.0344260580026,-107.184248808122,-234.605064105996,-196.669802365296,-303.176927692106,-272.608093281953,-251.557789852439,-284.375998455698,-310.985113723765,-268.318029922315,-304.962035092052,-273.650206242585,-290.703033027912,-294.282545707763,-214.783845404828,-252.724877784231,-216.025337165226,-250.056338612015,-224.759363038451,-238.336671554241,-184.251467902866,-235.854661212334,-232.846184458871,-224.831797222578,-185.864643915358,-211.254320445097,-152.104169702416,-166.652703400132,123.871545668764,249.882666210141,271.132548790579,385.745686656974,372.516491915687,270.805766767281,459.635705924844,274.124608550324,352.674781490041,501.682670640765,479.491935315874,355.766242474671,481.118849315221,289.525808528066,355.549611285951,455.129742768841,445.837325299926,262.374629864775,482.563546555288
108.243090464115,138.848612833989,92.3715941386542,145.143505921882,196.40505195407,59.5372061183433,124.860252582741,182.272666246976,98.2634631180009,200.126310458661,252.254914778454,95.2247110878236,146.628280115105,280.59102151089,46.5174572245438,-30.1348399333427,-131.722864097465,-112.262128144729,-123.096414671166,-215.615013013618,-194.323959713458,-270.002856137473,-258.04314280266,-231.177545628586,-272.475527913708,-276.855481381442,-267.286471913285,-286.258920805625,-219.985786323634,-269.33929012182,-251.382790716578,-183.717107300378,-203.721986319069,-205.304953806569,-224.153340011482,-191.091193524405,-190.943817965192,-154.137201329132,-210.623924518636,-205.726835814298,-191.098261931783,-151.119569659018,-191.379662845872,-113.086030309946,-144.10670915718,13.6443213744673,141.018021569449,135.277023061962,236.97042011654,309.86038224552,141.216135418215,364.697498881726,156.436458760397,229.461487165046,375.447598576976,426.231673675109,224.574436069827,402.958720382618,186.998265997731,226.408491098923,382.748195398207,437.381378911875,161.331933164462,465.028531221652
57.672124169361,106.872960556229,39.9765299222435,104.996058993094,180.435605174301,-8.40026650830061,81.7671986116776,157.353388565728,32.7146686234318,162.170830306205,234.91463593517,11.2579752448845,85.0669721533433,263.351451395671,-89.7645181858134,-126.686679629074,-167.457839340205,-190.564476935075,-187.603354393256,-248.582004503451,-243.611078926585,-279.677907096849,-289.550625876044,-255.510690961757,-296.232623770062,-290.266967737647,-308.055564435609,-311.397566387092,-228.436875713603,-297.283678894022,-267.375243398341,-218.605299070631,-207.890138383541,-240.527685170888,-253.082582360726,-220.386171982066,-204.974953796037,-189.314196742296,-232.943989774481,-236.746031464129,-222.099734731324,-181.076499562798,-229.423291661902,-135.807214673319,-182.156776206272,-90.7206714645349,0.485325878008485,0.441134238076823,69.0187323915992,162.103196341424,4.28855530593104,194.562432365524,48.3295123795002,87.9424668233434,196.480545752924,250.954309227737,97.8328844860283,232.107525931355,92.5496538342959,88.7526766857098,252.087177715519,296.091857367947,60.4779535703317,362.403065095702
12.8883096161231,72.5608482004431,-11.2196471087281,61.1726807470033,131.455738122868,-70.1952383610843,25.6381303954977,111.97645580871,-34.8040313962747,98.387880837018,180.490983577082,-74.2081536608247,17.0564704811236,218.190745766568,-254.110438242307,-218.858039985012,-236.484936232723,-286.218130239362,-257.742787703227,-304.707106426249,-306.028600061206,-313.094197615705,-335.259594386999,-301.530761906009,-327.626881698114,-323.609200763246,-355.576294401852,-344.020517140955,-275.907443174738,-338.883134011795,-311.419206884209,-281.994055351424,-252.297552849071,-284.724098888739,-305.59120661309,-273.393268912207,-256.515418187601,-253.190410817225,-274.738819772576,-283.318217721219,-272.406350592852,-244.185605585391,-274.920209118767,-180.477355870345,-238.389230532938,-148.72352843129,-95.5787649954393,-76.7066806652976,-44.262450662663,42.6753001166389,-79.7365518819152,63.5487763189044,-23.2975870723712,-11.1752006344175,70.178434587416,108.308907343535,1.27996483790034,101.330544408673,-3.34875824157439,-9.76590314859277,150.737170587029,161.568609204585,-13.0263194654233,271.576583195348
-8.50764020896233,54.7174333552921,-40.5596921042068,34.5279364520773,85.6412915958487,-99.1412944672753,-14.1552540645238,73.5370146792631,-70.6020006233971,50.7632897722629,120.655672787625,-126.615793486742,-15.6434623184696,189.294511187605,-375.0509991778,-256.954602257513,-285.001998031025,-336.835867290899,-275.925039586539,-330.835224699845,-326.252179907137,-325.298550599386,-342.187726127795,-319.195284797561,-331.516553918855,-327.042104183556,-364.167233207693,-340.164739158533,-304.588329636971,-340.312560709984,-326.313039028183,-309.207388270852,-285.182322978983,-291.042001948659,-322.586369470807,-291.380135591753,-281.320627746703,-282.257849553219,-282.957037611592,-284.101383941359,-272.099583611075,-276.043438559046,-266.201204476988,-197.847083512787,-250.706691406201,-138.334681387778,-102.954347141145,-77.432468008204,-72.7777892312977,13.0358173536005,-90.5067900936166,31.0760453063001,-53.4978659267532,-50.6866261924058,43.50662554331,59.228724070361,-84.5036905233666,72.7456626319601,-131.103023674515,-65.4133377039935,131.640847907314,116.756224889024,-56.6673477415092,240.039447214519
5.05791658831452,57.6407802024257,-30.7007374930222,35.7863059548062,67.2987877523073,-78.807756716079,-10.3713243727443,58.7266102147201,-53.6959623306224,51.4370885963625,80.9869940908178,-117.5507411966,11.0328294531955,200.156458853573,-393.323296538943,-215.790129537399,-255.934292584072,-298.350229190237,-210.231668586037,-281.788903107476,-262.958534305334,-271.72106757722,-274.039197949643,-260.078501403119,-271.925253058404,-260.035185518354,-303.132682636333,-268.494949050979,-263.989408901438,-268.412655028805,-265.383983766823,-257.372737344359,-252.650216582644,-232.971642165084,-261.057872842799,-235.17094140943,-228.92973595826,-231.007235887774,-218.662817148025,-211.174710155668,-192.030452111506,-226.644502127791,-181.122491895965,-161.075790905938,-184.292194690454,-50.9949442504362,-14.1473323075092,-2.28620916387164,-16.3494739244146,69.0985938553904,-40.7279196183739,80.3800598233039,-68.5418675042309,-51.76435631583,84.7863258194325,76.4043026879246,-210.126864125465,122.885915749567,-314.377130709561,-128.206077210309,181.458502596203,173.450506966548,-118.917063614946,245.379013656496
46.0009518504563,82.3364890929649,19.4362857208752,64.4496085529894,79.8745663927866,-8.77589595017265,38.5257068106388,73.5064163732475,11.3125496013279,98.601875813717,78.7391678284207,-42.5456602903395,91.5641704108903,243.373213492159,-304.892454072857,-104.970642288728,-138.470619539679,-172.321417697957,-64.5090607923887,-144.925683384385,-112.0181314658,-133.045871862915,-126.144315677227,-114.48451895701,-133.19023723987,-114.620071952173,-161.122907933284,-124.619545914833,-141.582736437617,-124.591936432864,-123.919145567304,-131.497094787135,-138.515341124362,-108.044845983778,-122.127224571547,-103.206985451465,-100.124215230925,-101.22031776986,-85.5895036042807,-78.4766613056236,-53.8103218566009,-95.1810355396376,-39.9031946561202,-61.8736915743665,-47.8855531106923,80.1878573202835,130.387508779666,106.608777651873,69.8537428131576,167.967453597877,30.9773405035124,123.709875254808,-98.5993014576603,-45.4719022377893,102.86876818151,92.7710309087414,-369.17721235675,154.97739898493,-493.063748455802,-211.780462664813,206.377697973039,278.111572119578,-213.550096951273,208.439218810006
104.83764607481,130.842489194545,98.0466691573984,117.537041367035,115.320712515429,99.820930960284,117.565662121441,118.441231356074,108.570561611149,171.219361980488,118.589067732514,72.7047444575751,197.253085624706,302.216133500389,-157.117127838968,26.1272824011707,23.1231852523962,-5.54992357424097,117.204861187174,45.3124202399496,80.2041006516098,63.4482085811031,69.845330088553,72.2555023383993,56.559782237387,70.9396009245317,37.87392706188,58.3617507446446,23.1941675213815,51.6657275192212,50.5466984659483,21.4409813939446,19.7632240080502,55.75405724019,50.1321194262084,61.1664365452067,58.4801350749399,61.7564869472326,73.4544889122366,76.7577817779173,98.4972319799118,68.668098372937,112.295135497694,81.650749426294,111.407091840729,197.374506280867,273.697777870012,186.544546789124,121.590355150708,261.328859601685,93.490452715448,77.9029118807454,-128.935777196907,-37.850786839718,32.9464895875514,49.4791745582915,-436.476026872832,76.786399358692,-499.910519460881,-240.726687433357,117.476040774394,342.464644100554,-235.354636453417,91.444192488962
186.537285492608,209.169945034488,193.157069799293,196.352864198925,178.389234651094,219.057703879895,212.097430612323,196.357175787721,217.309040070665,254.5836308985,193.361836804904,182.287992842913,285.848698293536,363.676366450489,-15.80216424087,108.511436729114,169.365643195805,136.709039009432,255.838662822127,221.115787161465,239.559565698999,252.209369359668,250.492094569447,231.674268928962,238.431318862212,231.685103993264,230.951288856959,227.784508713375,164.840108207355,208.368863914287,195.158268140064,152.978702875862,161.168151748856,207.104363983561,200.915841849859,198.520248317349,193.000008849314,201.730101704237,210.168754675948,211.534883984615,221.10176310652,208.012693132975,232.58913431906,220.854795655923,238.632709615661,269.678768319945,394.362337171021,227.037887517242,169.071284550777,331.088218042735,148.811040955514,0.232981995291936,-123.663950162214,4.04930190959978,-35.7943448284296,-9.2298784536058,-311.969128475483,-28.888892803939,-261.241186345525,-153.241619576705,-2.61998250232791,344.927781785188,-85.7646942858414,-10.42902190713
280.575204879781,311.523425606775,284.586869226739,292.785636135798,278.450756749454,311.003846968549,305.388994840346,299.505319539654,308.190689802687,337.766174708643,298.58401254499,246.330973820003,322.492204180485,414.738399934567,73.1407473828721,99.7918114393145,259.785703697404,204.601783912251,283.978767764992,325.453421433413,312.607802736237,372.198704657656,356.745728057713,315.641427135103,363.325602809655,319.326507587475,362.960478838484,340.605355119142,242.900725360606,318.531891710675,276.490873461053,239.847352071537,243.597330747434,303.669558580157,298.341878152428,276.298597480794,273.890225717639,281.51210008198,297.468769991555,293.456395832045,287.955394717752,295.89939665257,304.052586728888,309.196947581249,306.082345936629,305.102644320703,494.406238798269,269.071486090411,288.678761543811,393.973639417709,208.312121245726,48.542145044819,-69.9979193409117,92.5160352045551,48.1773368992496,31.6460151979931,-81.9408053495401,19.7976869765689,57.1956009052194,0.496496122488657,5.90900171424391,308.571042673607,162.580533501063,-42.722531785507
332.445161888594,381.988751550443,325.817150071514,356.830799657276,368.279122416158,339.724632836191,355.426163369962,375.313276409073,340.490533497029,381.119987090494,398.391180309366,243.745602589035,291.469754401385,422.650041275974,100.30966584159,21.1111875638107,268.782549145489,183.425822079835,203.202628508694,334.225192566743,286.797294036732,397.095967879725,364.279425748466,305.211799547116,409.345386726531,315.060456791516,419.443234471861,367.65581712205,245.924287553184,369.672096808445,285.227193421283,262.926632523117,246.59557764227,329.15595247154,325.24351242867,284.5681323673,284.400803007821,284.72624331812,322.156770138853,308.569071232625,291.543806208401,312.013982182154,319.729113706923,324.449596380028,305.14671339185,312.745677894574,551.853038905367,314.870643491659,446.321782463736,452.482627398398,254.442011296782,241.72096327688,23.8583050371967,162.077259517522,231.704800649869,180.195735343916,89.3874512396274,191.942101680721,250.743183561254,110.867837183655,93.7132011202513,206.837197067879,334.217543475853,-114.964871938975
298.266069313876,360.488801498435,282.892120174252,333.550642291519,371.49757523726,289.511535446906,319.670213642511,362.760466887058,290.843148951402,340.374319275003,418.350861143752,179.336906992727,203.220948225873,353.078153404002,87.1783286638872,-46.6112144028111,194.811208508068,103.634653505516,88.63315652098,257.891674242937,191.984454298518,338.658565783616,288.74119471054,219.963049486987,374.71150075181,231.34462378635,405.68314398243,303.489226068598,181.996470338046,346.555172978117,226.262627269497,211.762453528875,174.339853609545,290.998250339659,276.84240489857,227.314521005503,221.327567439038,216.769109578977,281.938374661854,262.83550490862,236.377275561474,241.552915467372,272.543183369464,269.383079522575,235.670566096385,285.833184784435,531.438746829161,317.010296647014,516.393773173168,465.139539325192,251.611983775497,408.626408831719,114.924637116925,154.875917459109,324.400475106118,324.186504996751,143.079509456783,299.669175936108,280.374266739031,138.604091172006,109.114214015568,72.1321830400501,340.57815138086,-229.493536009837
215.597048750682,283.246408905445,194.498201885666,254.315721844602,308.176110965548,197.13213971433,229.28780758204,288.567667329722,200.994255159817,246.733928042354,354.492043221083,98.1865202000985,108.030786414508,238.633332556735,75.6395753415748,-33.9615971824781,91.7540933398705,30.5514480913567,25.1898883834729,150.048493363434,95.9444076456906,242.560594439829,184.40107202288,125.876794821678,286.33343918623,124.776002022465,339.941580029579,191.198288448773,99.1250412393587,263.122689504,137.011442545162,123.643643043731,73.9842812661946,222.383059270197,190.343542467648,140.169982466178,125.634116839376,116.070424162498,206.318073893068,182.687272609024,150.601106189591,126.282926592961,184.874079661786,177.126436973476,129.393897240664,232.772651045848,429.00485994407,266.290674798525,450.576262384355,404.409574983583,202.974020797229,427.611935555377,149.447926075322,115.254769134637,308.060837859023,392.188401792001,127.670325515408,316.066132337152,222.637557055171,146.923487938736,91.5450205082275,40.525493789859,242.998932176142,-210.741073213534
163.268097127088,242.08921652272,136.267056473883,206.304570992028,276.466194617033,130.553902421429,168.356262383269,242.523931941304,145.72597063481,184.063738709368,296.344223832275,59.6806287144932,63.4884249616264,157.391428361246,99.6997025833049,49.5728404960529,32.8104980961461,16.1952834577077,39.1082531512813,80.7469874147486,56.5247235122218,166.52988172823,111.1075802994,83.5186992664992,199.290994266856,60.3898022451656,265.166329746787,98.8785196198521,54.2949010079904,176.953364286481,71.2375573043459,57.9083750931614,4.2972167420653,167.740901069922,123.683555338616,72.5890334915707,56.7862640656128,37.1060874280275,145.808475290541,106.701821614211,79.5495214429226,42.7845636301214,104.488767344341,94.1775664757832,42.5341542187103,183.358194524421,278.026113077317,205.403569441842,320.182384992564,320.442322665655,161.89609870022,361.158840874523,145.113127701655,117.404586321119,303.291109135728,408.730480957135,116.952737916123,336.241802783605,171.235940877629,199.417479341915,151.918531095759,148.420015675307,171.096898522201,-30.0579476689517
165.109549036383,251.453435617214,130.256708032335,207.655083947221,290.951386241016,113.11630876539,158.327788651624,238.276317706689,138.83238622196,166.107459207527,275.148504264743,73.8030937150445,64.1077225225311,111.26461913676,154.109507315998,140.960934845518,38.9846873633747,55.6525247462554,90.3443454996485,77.1629498779451,70.3966085257325,141.500403835608,86.3094963396869,86.5029827564214,152.468168506935,47.2052051211488,221.192951130626,56.4707133720376,46.6652741894941,133.876195353896,47.6968320729569,30.9260572547873,-17.7349300584895,146.836427990389,95.3407982031704,41.7754626721996,31.2796256502291,7.08139455151676,123.379528408925,64.4782494893254,45.2212088687185,16.4351577708649,57.8145353639565,44.2066585307789,5.01019290366876,154.530105617085,130.112254511921,162.831530864883,201.333386103152,286.01823569236,168.855008914522,313.065434719407,163.568647886948,172.125349462942,330.703845689746,419.673975923333,160.107512315796,374.885945401781,184.835376434877,294.874591375069,260.36551523347,296.573796932534,211.31746577388,165.279750537098
172.553422957782,239.307215239138,129.577268820316,190.283264227045,260.892111363757,104.035812381179,134.138947847461,193.472746192638,120.298856920253,116.310574117799,211.586885786836,85.5579153989575,40.2821308045076,19.2208412540532,203.987100342199,180.725335338949,83.6299948309116,100.558620623092,113.592558340586,105.955820470867,88.3903769865384,150.639632457226,82.4853396641557,82.9609939033656,134.127003445208,41.004076693656,205.944817494904,37.608752891789,32.6380963438152,120.211957418342,39.3750080477075,14.8074701462881,-16.0010601295161,141.993245177795,83.5476439442619,27.3079784355331,22.3861446763379,5.58801670398779,117.686795107262,52.7359663213694,30.1854461770533,11.0648806051002,35.5845303299918,18.4745672089297,-2.2049058379156,134.934467228113,22.731529415235,130.666744023326,99.3516360641392,288.143397178282,203.703872883339,280.76153645423,206.588497259391,235.535007352873,305.399258642489,421.699362687938,245.652597396647,381.528591511088,242.674359642385,391.968331516233,324.280421409797,405.801791811784,330.889809279331,289.13614197594
133.562566910407,156.2007049165,86.7270617735466,102.810340972418,138.269011285028,60.2023498177112,48.0604867831377,64.1206653859292,46.6547894407916,-9.62450126731505,58.1182902253602,48.7652564981559,-43.1773100414335,-140.960523730478,226.292523275955,158.938817706273,135.77075467071,116.935149699599,82.9695975976701,122.082491519968,78.8743971834697,155.669359830646,66.9185564172528,50.2273437516694,110.623287265415,11.8570895867942,186.877966064432,4.33909672937818,-3.92261340539084,98.9172100877158,17.024655878569,-11.9802956463317,-16.4489072960267,125.309410832567,66.0903280577165,6.83191365694702,6.28696784109819,-1.86643877752237,99.2965229428545,41.2340701010714,9.26853795689284,-4.2924803610019,17.8215450815021,-3.38244915748756,-13.5685312314948,98.1508563006126,-48.1704891712966,82.3273097665915,-5.62090559629773,248.784357185427,207.811220767923,200.271816505754,223.641786062263,241.204445188612,158.657858296905,356.849913602839,296.146128861742,301.876837585894,270.19486314882,430.775750302039,291.01957902784,431.584896176988,403.486133459563,322.81158066104
55.7821438445616,32.1325604998368,13.7079108765946,-21.4204867563421,-20.5370213897282,-8.1946507243007,-63.3398232933965,-91.9668508128868,-46.696160032751,-154.345055036251,-126.274443852613,-6.89339331399825,-126.456089819104,-281.974966614958,227.871245867396,140.205635005664,173.232915144105,122.212915011111,50.9731488939253,121.725302217746,64.4673000302227,145.080426142024,38.9202070738306,17.0128494394301,71.7734196957576,-23.2843849117709,143.859725089912,-48.3829533239877,-40.163589672588,62.1814649847862,-19.3130225392835,-38.6386115883568,-24.9304612218271,88.4660098063848,32.8105751365684,-21.8490527827186,-17.0915390465925,-21.8290771541124,63.7796763087497,10.2643294899285,-21.3150359427358,-25.6398020712544,-6.80634626351809,-30.9380023702582,-39.8672685497669,20.9213167397632,-101.30479863624,-15.8930318547863,-104.761382237949,153.596091403621,134.733684151848,76.0874250066974,184.674898986488,142.3424508271,-72.2548275072478,206.719165637074,239.239030950624,125.694035686561,222.939410203566,368.753597540084,163.713900599864,332.127133230312,349.494964336492,251.215836518932
-6.82470645545785,-70.5953053637892,-38.2184391914977,-109.906678747327,-144.815630589694,-52.4955456105676,-130.726005378235,-200.084646647782,-91.168086785328,-235.660268313405,-266.741820937386,-20.1663072075366,-132.738323226257,-321.396338094066,229.013551459969,195.915231830153,189.947390952933,156.042986123529,89.1809097501347,129.245313267841,84.7751893355229,137.999092825893,23.8585002016716,11.5516618540807,33.0613724217001,-38.593907765224,88.494513356556,-96.2853853132145,-56.3998774145301,21.6062601689879,-53.6864486658728,-47.4161580798716,-34.560351026103,43.7497429065489,-13.3057379161711,-49.55766997987,-37.1749863238846,-41.5274272153433,23.7295014756672,-30.0968147906937,-48.3362322268677,-43.5581098446188,-36.0475292027066,-56.5571044445255,-67.8660674373266,-96.7907305242718,-131.074362004223,-178.231448784843,-189.882148788364,85.6754560882223,-22.4388588798884,0.561498223353307,83.4782967295035,-38.8661891679193,-225.325245707797,76.460698931744,85.2303620037576,-34.5749290405027,101.604718490678,233.415442503533,28.0037077014336,157.969404037194,217.178504397656,137.655265040459
-18.3700724332146,-115.00228307262,-43.0135381446386,-130.429810391433,-209.200152348486,-44.91896499977,-123.786693877492,-236.573185515125,-59.7162067360201,-227.521697675402,-336.35885809415,26.4412298089606,-54.0140814076959,-262.468180840067,249.303389880978,316.212250657976,200.284500442318,227.775341066763,195.986066672292,151.885377799625,139.70415083658,144.752996215656,36.5151567704301,26.058986072111,15.2151640235967,-29.2923587586297,51.0289831717701,-115.435139334959,-50.372991094054,-10.6531470705336,-67.8936927927047,-37.6864177886854,-33.3521043030353,10.8583934928764,-47.9176349385177,-62.1358649523446,-40.7611486407563,-46.5751452333742,-6.05301555376346,-53.9880082291516,-55.7597211991743,-50.4587782467962,-52.144096752186,-61.0296746984401,-74.1285400468165,-220.406026864263,-135.30895922075,-367.996002109578,-289.506470771452,93.2521643030781,-227.822666436779,5.62889437459508,-82.4908920849639,-234.261945901256,-221.339395475835,78.1504906946683,-98.2479834341065,-57.0918334483258,-94.7460200683252,92.8477840146394,-16.6069111099832,71.3032522116521,84.6910060531721,107.187418158375
1.64166658606928,-108.76450536004,-21.4396420168883,-108.058422025771,-216.830486455152,-8.74976207602885,-69.5490871844866,-216.47862609907,11.8726394152403,-161.514151180168,-336.640639539047,100.866034344648,58.1161627078581,-168.874973409504,285.880723086714,417.850095718476,211.496061214255,299.388974982214,288.894442999536,169.880192365666,183.838651244906,147.385761380143,63.4299080756405,32.7317279221525,21.3501884241356,-7.97141088963488,42.9146201918475,-103.387647251634,-29.5290764766432,-24.1941850906562,-50.8357211072492,-17.3696573232084,-13.2033177693349,3.70460425012199,-49.2680094188522,-48.7959280597706,-20.0447639676881,-27.217310170722,-12.8560823980297,-46.6179757244408,-37.5003284655396,-32.2766495464781,-40.6659817068432,-35.5873104608639,-45.5113284244226,-305.444520418949,-162.050698598987,-511.762133133597,-423.236778923569,67.9696227681541,-410.393948963992,-49.9378008604926,-276.87296195455,-396.097555849216,-237.318769863816,141.216701506253,-260.115778980171,-15.0163968450445,-342.887610296968,-34.4724983376191,4.45277943998888,148.0351206981,-46.4354594214876,179.222112350909
1.9435171980311,-97.9603471006338,-14.122820630777,-90.1322868681657,-196.353800074721,5.64973956480665,-30.3347119450926,-179.370105232835,50.4498232762663,-101.896683570663,-294.071540841716,143.531806645855,124.372170629357,-119.355424910978,288.916331180661,403.127397122441,198.42117067815,303.197207226309,271.756435975596,148.461380060555,158.811397600881,112.797670504882,66.4171078201199,-1.22040398066512,14.8398282834357,-7.21009911321544,23.6316657564647,-90.1756048203591,-22.608775346476,-37.7866941287188,-29.4803829731511,-8.49861886502863,-0.477882326414763,2.92453561148582,-42.9675734374616,-33.4241056066718,-2.02290249126701,-9.63505050526678,-11.2999775209262,-32.5084057104538,-19.142846187692,-9.69829809797942,-26.8723510369025,-11.9222795313687,-14.5645929930516,-337.225700073575,-248.871032204012,-552.302999997572,-533.726947168138,-101.453630293055,-497.997899602264,-284.223785319185,-418.154137749123,-496.327625184216,-416.515752961984,96.2711560516005,-378.18231203618,-56.4766928105393,-542.036589161962,-186.73901217292,-18.5906666116983,250.540888063009,-203.175441728195,229.62102384089
-26.3534520675183,-104.66386141101,-31.7524938963441,-87.0695168987013,-172.864712703585,-15.826471154283,-30.0895005469073,-147.774112559201,28.5739098908568,-78.3981022608676,-235.027069708635,120.805261190438,109.893787366313,-126.950579053045,211.54192581075,254.474212313394,137.870832798195,206.587158504781,139.677925074192,72.3594558582995,57.4666859013602,32.7530068754043,18.5033262500668,-76.2357076115117,-36.4634790569155,-44.9633259265569,-44.6610588604687,-104.45901599569,-48.5378892937088,-79.3815142091211,-42.7597895453914,-32.0313581356434,-29.9954152383718,-27.5870354778463,-65.0399450946361,-50.2495606941189,-22.3443373446122,-32.1619005491816,-32.3244238078766,-47.3661310815071,-33.0042929532572,-26.7407004579333,-42.6844699006979,-24.1079060054384,-25.4897693555973,-322.530593808629,-307.006940057906,-479.351967143705,-507.236971712576,-255.886301971582,-459.037766193774,-505.054311816047,-454.215358820361,-485.221409103212,-555.373446698938,-35.982727777007,-430.912884976651,-131.410050280869,-581.736249235047,-356.362758921886,-89.153650098159,222.606592398555,-343.272310481227,166.894361577613
-15.9502431050284,-73.5761166278732,-24.0537938261563,-43.9855963414731,-111.202690866008,-16.9980860008126,-5.23713922077918,-76.5129757902904,22.3571864593684,-28.7995314062109,-130.807471497664,81.4314796997632,97.1890357375543,-97.4025928838155,82.7730778990218,94.607009754032,42.2980270335792,64.3568973746176,13.4170596366501,-24.5110444717887,-46.3548446642488,-52.5079727607088,-52.1394602736418,-127.580651232592,-96.1101220985527,-82.2554022354745,-118.52300214679,-122.129349652251,-65.2388847666054,-121.015662116892,-67.7941487203774,-56.837058525901,-72.0175550554178,-68.698031287443,-88.1909435502606,-73.9107465717671,-54.6336471773951,-67.2131456287973,-59.4976879388014,-71.5826481927885,-56.0684230930325,-60.3271060620742,-57.3221974208841,-42.2288286318161,-53.0836725586138,-263.856935288339,-214.95728706549,-328.878284138126,-311.830315597191,-147.393651068362,-323.342374678842,-416.973778494242,-401.90972957701,-338.638655313196,-407.376938928081,-51.3854117233029,-392.849723312523,-80.1672261580137,-459.366502606714,-441.371701573311,-88.1091080207881,91.9249203279401,-385.291814720989,54.7140332466177
85.8547752018753,51.6316033773023,60.7352259853969,87.6184246091085,38.4993122643742,52.9619802848118,108.894919632399,85.1711799280992,110.898431332171,115.662672125374,58.2147064655835,94.3752416669734,188.486945694288,46.5362751741471,-25.8529841200379,63.980189305637,-78.7015922381205,-47.1135911536181,-8.73992165974053,-111.232565532833,-93.1845047071953,-117.530606881384,-104.261768438368,-109.8532414432,-122.161156416715,-84.81643899086,-143.133271093738,-111.19397002999,-35.6752272593659,-123.967270592535,-60.9603297794223,-42.2771751886904,-71.6269781211292,-73.9237192922752,-74.7398507123985,-63.2745226745777,-48.5929765759393,-59.2441097104163,-55.2340499893455,-64.5372800251843,-47.6062177482082,-51.8240997968527,-33.408159812051,-27.4988485195161,-43.8291909389872,-176.264083844877,-26.838670533018,-166.570037022253,-72.1620945660803,127.541111765338,-169.431271099283,-85.2315728973908,-305.11278028764,-130.131989935011,-93.5893128755494,99.2176450477517,-261.560928798647,77.0115727668275,-278.56419102734,-358.758437473491,42.5768257467779,5.14360462313818,-330.265629606858,39.3947873365698
224.458348048162,230.489398699122,187.715400568512,268.154111937166,246.537951657546,157.118930531269,277.777784350739,299.412543669342,259.246563753157,318.242143873808,290.932882929091,153.674856184451,359.263422395199,253.904128481793,-88.1951389125775,160.529489905526,-224.20627639848,-109.734672693864,29.8928260942244,-194.716574827446,-107.566018261295,-186.619394835932,-139.881542993129,-68.7144620550923,-139.292974049606,-75.3537109420976,-143.603467257331,-90.4707694918969,2.55259956272323,-109.090116424411,-37.9395190799965,-9.09334216410105,-29.8391475319807,-56.0393206228437,-48.6936776987538,-40.0217800049174,-8.50639337869149,-13.4028742929982,-33.2171979411624,-40.4205982338907,-21.9479421479441,-8.10117597872464,-3.61340630329554,-4.78565724702692,-3.17564786326959,-87.7201391176253,93.6809666193319,-40.9497283490235,79.3281717803012,258.928303292592,-58.8623916037509,162.834983507688,-198.144010284113,34.3583222680195,105.330645596132,219.593041479293,-95.3978643674532,171.0941126103,-146.062579662568,-183.214272471404,216.023305661266,73.3760594819586,-270.628235950936,198.007547209835
284.542782379044,363.409821517214,253.646115863849,397.612492403636,421.457519180637,211.053159893041,400.394611452532,466.916691175134,361.60144062935,469.385482247011,468.65505073718,193.647868046298,485.014887299221,407.238464228575,-142.893440825152,263.691786619715,-346.532903807667,-141.025887368253,43.399331830957,-259.248256524988,-121.825748714994,-250.532646353249,-164.565183639821,-55.8872900547495,-163.185016393904,-69.6752779740549,-150.146726549365,-76.9276488341792,13.4000124043314,-98.5182832290827,-24.3076977761142,13.1782708004375,24.9502951606104,-46.7902754364277,-35.277919682994,-33.359482307958,34.3981339217714,35.4895161777872,-19.9030675545864,-30.2296978345218,-6.1715011406763,33.3005223747221,-0.718281835711204,-1.26566023344401,37.8233104622489,-20.8085286333476,72.6270481605445,31.4382834684783,120.145014870716,158.695400792032,-6.82190837003605,180.057271694518,-123.183249847377,99.0856886575521,116.484431902054,170.470942743294,-9.41362348252273,135.721103400004,-108.8386322546,-105.977205322109,282.71895168144,257.704322168893,-280.737651512836,414.816517447674
211.307892707769,395.593781134343,192.946321472157,409.150031286014,499.698112495004,167.194945865185,402.966394383376,515.245112168417,344.16506057522,486.998498272783,526.353932878124,158.466550714386,468.548924327142,427.54592078727,-215.520014596905,276.493144064754,-375.709522091279,-144.417548261924,24.6624353445075,-257.137827296154,-115.923957641075,-244.449409331463,-154.261083432063,-51.4479077997152,-148.280306257227,-43.7756905289921,-129.200632566455,-45.12265395578,23.5112154021657,-66.1856814883606,-0.0645728113801211,38.5604486884846,80.4315966686932,-29.7968367599943,-11.3857845422644,-20.1911345521198,70.1025308354676,79.0041144096949,-0.544734520977827,-18.1078342678449,11.3362918678188,71.0042921726606,1.31479431798681,6.52460317259111,74.268691038207,-4.89399960249169,-60.3575298231968,36.9773808672027,66.8269300426049,-46.4832459819372,-22.1994309838252,63.826003916628,-125.926664278206,50.1855128796897,27.1704719747462,47.6736076766625,-66.4449795330545,48.6174139682757,-154.044547997015,-207.549465130009,155.774030983723,377.34936624097,-348.41802018507,454.863375930443
45.4593324957925,326.09886102505,23.7377716962824,297.213847795338,454.904604687213,28.3346720220611,268.565515431171,417.344540096969,193.950556408991,349.266942377838,442.717551118232,38.3689645479737,302.481971791103,302.883389695813,-258.891634919079,211.921072502491,-301.576551669347,-104.245657030455,21.9913494706063,-176.143841690854,-61.2542781543677,-147.707921749079,-95.642397589042,-8.65748271332679,-68.9748014813521,16.4173553952793,-56.9873503967031,21.9099682178767,64.6760021318606,3.78408308193617,52.7410993708302,81.8878843220316,128.231178487399,17.0754303381483,41.5398386888497,22.4654125724909,101.65905334969,117.456479078736,42.6403765269132,23.9154692376701,43.7953311453981,110.307283120137,26.2183528170097,39.5300309228755,104.532247324462,-52.9067516242033,-230.704611464219,-12.9451270207934,-49.3532737253416,-241.565003021238,-87.6850908903733,-49.5509501675222,-184.259972175327,-65.3375769845417,-82.5509903910758,-17.2416375495174,-181.314034377325,-38.1061334318894,-216.571072993763,-353.757024038728,-107.186293672131,284.935657242014,-402.545061967604,226.882303944324
-162.258949762364,139.013479851846,-206.744398822888,66.7848038992014,253.00531387163,-179.938017613208,10.9334064798456,165.993682084914,-60.2745418834229,73.5975180548753,204.672276199314,-136.891132611661,36.7753095483671,66.0093465127585,-232.271968342612,135.164349623679,-175.349702475266,-23.8483700598919,50.18818628798,-56.2455510813841,30.3094958496061,-23.0722939667009,-14.1987570910357,75.6028992323055,30.7340160881526,92.2939717229554,27.253949651243,98.08288890839,122.356990100999,76.6025934823197,110.72952177388,128.180055808574,157.978769128805,72.3844109722952,98.3013468142861,72.8463808951843,126.009233085858,138.910363842396,89.1729987716943,77.0465798576268,75.3176082376427,132.598420601564,53.4094032405492,76.117359114856,113.994289770714,-134.215951509912,-366.582096298614,-79.9731100460055,-171.868662210136,-368.74800391655,-136.098877618119,-113.262657743092,-210.843046780475,-152.744306250075,-171.526278546507,-59.9481314925018,-228.874339830362,-161.86297229553,-237.324166514784,-417.337235486355,-362.021443094783,-11.5473398264456,-413.293159301911,-134.142889945423
-393.760953296015,-165.795691816472,-445.780877884529,-251.54250834577,-91.3614302135072,-397.9253503439,-306.951528541726,-185.963908242813,-340.85104517024,-264.334582649316,-136.009936936289,-308.19057577641,-251.104059125298,-199.79122241741,-168.56724566875,71.8272747178078,-47.7773347313851,62.1367755979508,78.3723094895652,53.1803872962568,123.553715555351,61.4353763231629,55.4104444326972,164.09249584921,99.1096394575649,162.145144219625,78.1837842505522,149.898987512026,168.486545426364,117.156927671709,146.118607726379,162.078927213944,174.183756192213,101.422531513768,127.750661591802,104.567723633181,139.318636336487,140.652183301664,108.67953839401,101.815224718101,89.8514325529214,130.835034797299,58.2297499513315,87.4989531905352,101.136570822789,-218.886761388042,-473.049795615488,-166.462592852145,-302.261992514515,-446.409072209511,-136.084489883679,-202.206123598288,-173.586172732165,-189.107573584983,-258.893703870201,-191.674897551306,-210.699456190579,-343.992305785045,-241.991578279248,-453.833221130037,-527.79316422807,-399.102979856334,-433.850385145489,-457.11905453205
-600.154341770412,-486.713100262803,-609.934935302156,-543.282332742963,-445.315379229213,-529.492542982375,-552.691749401699,-493.635281240493,-527.461037201763,-520.376260182446,-421.829568604172,-398.811651590842,-453.462645863778,-362.551728764657,-97.286758114944,32.6640490578206,59.4575409873571,136.69511451649,106.230340970656,132.10700156915,206.133525542293,100.980079808486,116.397077553479,239.655127981284,138.407793840234,227.633950982993,99.3334904641391,181.681226459259,212.666003084467,139.541516663563,171.055372812374,199.738785300811,204.633299309571,106.13098118165,140.193201893074,132.126525718944,159.153353460312,155.153534625412,107.05541434672,104.798575909415,100.989605410469,139.124955569171,53.4334046041627,85.5841680523852,96.2204359783031,-282.659123559262,-587.120731912835,-278.349628480559,-467.268190997274,-557.387785022479,-127.826771120407,-403.548392736381,-128.310441145666,-233.567586567156,-394.070796660545,-423.564313318918,-211.144992193432,-538.757962481269,-295.224024893761,-531.219155869429,-619.346335921979,-760.616467795635,-492.083497958507,-667.984664368709
