7.39463666776796,4.92975777851198,5.87221147146279,4.92975777851198,3.62482189596469,9.64202624326607,6.9596580402522,8.62707611239596,8.33709036071878,8.98955830199243,6.59717585065573,11.8169193808449,11.9619122566835,7.17714735401008,17.036662911034,19.7915275519672,18.3415987935813,25.7362354613493,21.0239669965952,30.6659932398613,32.7683899395208,35.4507581425347,38.5681049730643,36.4657082734048,40.8154945485624,37.263169090517,44.0053378170113,36.9731833388398,29.0710716056368,34.4358080116645,18.3415987935813,14.2817982701009,7.97460817112231,22.7638815066582,11.7444229429256,-11.8894158187642,1.01495013087011,8.19209748488019,9.71452268118536,-38.6406014109836,-16.3841949697604,9.56952980534678,-34.0733258220681,-25.7362354613493,18.3415987935813,-2.17489313757881,1.59492163422446,-1.66741807214376,-0.434978627515762,0.434978627515762,-3.62482189596469,-0.507475065435056,-3.18984326844893,-2.10239669965952,-1.95740382382093,1.95740382382093,-1.95740382382093,0.434978627515762,-0.217489313757881,-0.289985751677175,-1.30493588254729,-1.23243944462799,0.942453692950819,1.08744656878941
33.9274392898274,21.8691630013856,26.1235949607156,22.5216309426592,17.4171865179422,44.2287693668252,31.1385112461323,40.0653220909272,38.6168498766732,41.4953060596685,31.665931101212,54.4035948134973,54.3666183224717,33.9104075884465,79.3161516633613,82.4559095435981,83.8406245847239,116.173142240327,96.2784147641432,147.031863543705,152.730398084893,162.630812937137,181.699842369974,171.651521553628,192.146165322811,176.232915755661,206.266948731623,175.581904358519,140.188961153057,164.339577132702,91.7427363179269,73.4940255801106,47.9163387199874,109.246537886906,61.3817410992622,-46.1930090831042,11.9205661332624,49.0208169901578,50.6624640961296,-169.139470364424,-68.6080801850823,48.8145332012535,-145.800433815008,-115.955652926569,89.4953467424288,-9.81234325707555,10.3952278486936,-6.8244141451354,0.11092947307669,4.38384967791952,-16.61972570083,-1.24801460187711,-15.8606979188752,-10.6282923197006,-8.70786498690521,10.7377652486454,-10.375283059049,3.15141023329153,-3.13437853191058,-1.9559472796891,-6.40938030726425,-4.61545760479469,1.28207800463901,5.01491628541672
59.6841238575837,36.4764666092553,42.7882757991759,39.1374334784927,32.7850441830065,78.197675936545,51.850945573785,72.6376524339452,68.2773860257642,74.8502125888261,60.5211435433884,96.2860389947378,94.3105125015546,62.9558875945482,143.748185089064,116.035273956386,149.088537341944,198.304936912915,168.931989625744,283.816339125445,278.737479818188,291.470901837572,339.191622389588,320.513498221294,359.335616049667,332.134213504553,384.054417477869,333.152802115517,273.250132841748,314.644345060782,189.991209829273,159.820766859436,125.09553064223,211.546919566044,137.329375351535,-51.3522094123388,48.3845798668557,127.998626197391,114.060067374461,-268.760894821575,-99.0815588720136,107.454233511064,-220.664734165934,-196.692983577309,183.822176713675,-14.4109895139532,31.26422075352,-8.12851427871944,9.47890493759423,18.4458954462501,-28.7836214843281,3.56830105699919,-31.9597059553392,-21.7200614726405,-12.9578227171781,26.1419786095667,-22.7545908170045,12.0180268934731,-14.1298476237287,-5.97076319965452,-12.6892731648312,-3.11978398550959,-6.92198526247902,9.86013059172128
42.9551669632805,22.1206289756947,21.7424821619994,25.1965948172491,26.052248828925,59.2983604315542,30.3932962929316,58.3541795868559,48.509715890232,61.1998619405801,54.5225733127812,72.5220655005776,67.792394515392,53.283369719016,118.588658213257,26.396115649236,123.031064585745,140.250228322886,123.161350740693,275.823801150961,237.094555667038,246.951115692418,305.817624788002,290.02753564603,329.764570549158,308.19064383731,351.349179230232,312.735878677993,270.985045520623,302.628921392289,211.469656061211,192.909270930415,186.975687680487,211.836407866623,175.791270415742,27.672119318329,101.897062993747,195.781333393616,151.103408797404,-139.585910978822,-32.0628143976946,140.763070759005,-91.3311794009615,-134.576692969541,222.78575654164,0.23263885580732,57.136140936311,3.82598724057489,30.5372411502205,42.1032086151862,-21.9682500010086,18.7201126780681,-35.7915775941313,-23.6761846501967,-4.00379153587815,37.446468415492,-29.1359150388005,26.3962719420234,-35.5703578675771,-13.940840269425,-14.6794684775208,7.72133328696782,-25.7632098461614,9.38989712324249
-16.1185651061706,-21.4327504285484,-35.8336450494525,-24.0124502189953,-12.7707139837449,-6.38471250390302,-28.3696851863387,-2.96956977877306,-17.557729934406,2.47115395449168,6.22343895922955,-6.66976320671687,-12.2547624362584,1.82551533088515,22.5438241494222,-103.336688755054,33.135183292058,-1.82376831389489,-15.8134992093099,127.871062484992,65.1872764223264,86.1203167863498,112.599337014138,107.074544301071,139.601263602216,128.968467031062,150.729036748101,133.969360113651,133.883206244796,145.82218949545,136.520772209016,141.223794096214,173.320783139595,123.497635015807,147.626412088529,114.581668245894,126.448090925759,200.821771474183,142.115808387082,100.778623055708,61.097273640893,133.254291240763,119.184491533341,9.5727173310365,212.663883440175,19.3740376820975,63.7847731881373,11.8522558722928,38.4807343546338,50.8999845812517,-14.3741070844684,25.301572671586,-39.9529329997758,-25.5439610134218,-0.633410602932391,27.4781817909016,-37.5427961600001,25.1663038697463,-67.8389408369968,-34.6237448638944,-23.6409743416715,4.06066500838033,-52.0007449894734,-8.20905862997376
-82.0008239088989,-75.9927297109266,-98.726520844976,-86.2810872829363,-71.2362581112308,-69.0026293821744,-87.967103259843,-68.7168477707489,-80.6972344932648,-60.3924342696691,-56.6753602574683,-73.8833777121487,-80.0052321401005,-58.4836364024656,-43.5480458459914,-136.906110044464,-23.865827593811,-69.7557848001521,-109.915004692452,-1.17823401695719,-47.7539267274626,-3.31330113601734,-26.1185125660501,-32.0971835642318,5.95912805031729,-8.3408417449992,13.7821866855426,-6.7896941030329,7.56023090519367,25.3756037450923,45.45492562954,57.5175560215307,92.4593819310359,57.7634274278144,92.0374246764346,107.763751347004,94.7848619514686,151.68490867806,115.297847002757,189.965739175041,71.0948627202163,106.653667273481,180.747495450427,75.0332190617447,199.150416925486,1.00206962304384,27.3865635491261,-15.6113125837199,2.25016855499406,14.4087014992434,-44.0126723961524,-7.68106022554998,-74.5876259840635,-55.6888231282145,-36.1440303382597,-16.8225460330293,-70.1649461403831,-19.1375705871912,-111.698086312255,-76.0206384183794,-60.2218835041008,-39.5854818519146,-91.7542311528368,-53.7536176019053
-128.494123369503,-125.984248574612,-139.145240415253,-134.680238786378,-124.279560905667,-104.572656816804,-125.510003395102,-111.913930135258,-112.780733117537,-102.133679481183,-108.038757584597,-101.051501616663,-110.602094561508,-104.203336666698,-53.4822739087199,-98.0504186003854,-34.3681484907618,-58.9751678272329,-110.317539464368,-49.5412716699338,-65.3547990526708,-15.8854116694777,-61.2905010346291,-79.2601731602222,-32.2541772196239,-57.7391712963009,-24.6624120127699,-58.2579294649213,-57.3972660616725,-18.2487379785609,-17.1235391685738,-13.5859360025255,1.4580466244042,22.2345137381945,46.0386140227781,43.8063491506139,34.0203915501977,83.8712695239876,84.7183022905281,146.837976488889,32.7826606772128,73.6490137634772,128.731489734266,67.6510956411535,156.255182050901,-64.6026383811027,-48.9437634828016,-78.2796708263697,-70.904605567067,-63.0174168483615,-106.55096773889,-78.5169708445455,-130.996779853825,-115.450720777357,-104.051173459775,-88.3651779369644,-122.980560623865,-97.6419455641821,-157.286207556997,-128.506223132858,-118.894487087331,-105.692523631892,-141.920033096061,-115.991141752253
-157.80229618613,-168.089674128069,-156.55028766396,-164.515455416403,-163.769683039799,-124.927107575344,-146.131658711469,-143.133593393898,-127.057815391421,-128.643315648849,-146.797438346716,-109.492582584864,-124.567399112915,-139.793974368672,-59.329618143552,-78.7735785166419,-46.3228428153955,-62.2987255936552,-87.4348185928614,-75.6479238420194,-83.9732290698853,-50.0853729273674,-94.0060400148268,-119.772374640489,-75.5797819399252,-107.088483180652,-76.9400777817119,-106.51549595764,-119.053491989834,-73.6533717733248,-79.0147903542133,-87.2418932734799,-79.5086666961838,-48.5012452987649,-9.33242741297657,-16.391270083521,-36.2517322415013,-2.78676960915149,20.7429821031432,100.583239002541,0.926303704012769,15.6446894451541,80.9364303825269,50.9924783207489,51.2840543640819,-160.766970992897,-152.336436914483,-163.293604130268,-163.261608792973,-161.118321815514,-181.199369640348,-169.749088004266,-188.605354544512,-187.906381683588,-181.244036211542,-176.102428990535,-182.176516363112,-184.672500624778,-199.147454889739,-185.882660410749,-185.237952066131,-176.285358420609,-191.418531253718,-182.068262439325
-198.973635142683,-218.097547526518,-184.500490636415,-204.273048285083,-216.104879404829,-158.169291817566,-179.766261351598,-194.411208408184,-157.478958145713,-171.627032348709,-198.90922625793,-135.87738223793,-157.775342210062,-190.649086388417,-105.70622381947,-111.707117504,-92.9260541634433,-117.039503600472,-118.848465662097,-135.943821631026,-155.307365586383,-125.81194153773,-172.996661840337,-199.043138790619,-160.782886294652,-193.886362099093,-173.44165350392,-189.993650831567,-210.038461868951,-168.87565466601,-164.773532666239,-184.957832167189,-175.202772158429,-148.917369284758,-99.9247172194928,-89.1294031610333,-126.988323237114,-123.521493769593,-83.7544923490333,39.9341954248526,-50.6674582896379,-85.4345361726746,28.0343409578968,8.65758883002863,-86.8115917197436,-280.757283578793,-275.174059523697,-275.061569123223,-276.262255856906,-273.650472245497,-274.896103404796,-278.899052994909,-262.242069131159,-275.17476075347,-271.184863519535,-280.798487194572,-257.95298677085,-279.162640227637,-252.760502525192,-258.228471667551,-266.416185368609,-266.192329508256,-248.467768086466,-263.388036336166
-252.465010190242,-274.183715601184,-231.50076516965,-257.810659130547,-281.428797020603,-202.695381729449,-229.874446366723,-260.686750446868,-207.122988864021,-234.235305742565,-264.11092812433,-184.891466271275,-215.602294999573,-252.567243586436,-176.825805018729,-173.34185025401,-161.197005536678,-191.622791181119,-195.5789546507,-217.93227990246,-243.23986697394,-198.812518558304,-257.413730355952,-284.64916493324,-244.900680657599,-275.591027110123,-253.63614195136,-263.381064468001,-288.438408530255,-242.028579942643,-234.623102126692,-267.927829868324,-269.118799402416,-206.086679696719,-176.481301843248,-156.228765842034,-207.622021996436,-239.509741470181,-153.35495310172,-25.4564092550486,-101.809706766687,-183.656761056328,-8.71853069576374,-32.4672817180798,-195.574421893185,-390.825578364474,-375.365243715996,-383.703654924364,-378.170891053862,-369.946102217888,-371.173189620223,-373.547836654081,-345.977600960507,-360.114629831368,-357.65159995838,-372.707611181486,-339.564161074534,-364.043296541399,-311.872401815431,-329.19041099982,-347.87495616589,-355.311099797399,-307.866481550256,-345.197820887444
-267.382774007027,-294.182116471949,-250.251791249119,-276.448618496514,-301.895158840165,-215.582809236173,-249.489059850359,-287.565105882468,-231.816939379625,-264.483861170392,-289.79847657353,-213.967805022708,-250.417066756633,-274.382897368491,-216.552337983605,-211.162236954515,-204.674758814519,-233.426103745559,-243.062272909926,-264.593433824377,-284.863144107282,-232.679204218977,-293.249406390557,-320.906738937557,-279.048605257281,-302.111211526997,-270.441998916936,-276.614143987219,-298.774697621171,-246.307974497144,-234.334316996435,-276.81319191916,-296.976873643138,-191.191769195742,-174.011548865124,-152.792733139656,-216.489840785135,-279.846188510392,-130.860626209007,-13.0529277896491,-82.7980608736393,-205.861262440692,35.5785897497893,-3.00838155708383,-227.329977359564,-420.622737278232,-385.280969264584,-411.656717448465,-398.150643156147,-386.330393340539,-403.081279469044,-386.993878406502,-377.158751298914,-380.4483893868,-377.953098894367,-388.113156107401,-366.48956256227,-379.916698770543,-326.197441850067,-347.272914439747,-370.13228762902,-372.656251915104,-322.924600052014,-365.283925655302
-208.464452147113,-238.797901298291,-201.143678427375,-222.268185397567,-236.116886188582,-173.244922108648,-201.604411267135,-238.663060471634,-194.004305735145,-220.746036902452,-235.080490566964,-187.482496490395,-216.378647050003,-220.319823206369,-195.380414110138,-183.390431476024,-194.103028879732,-214.08487960932,-215.795829387629,-247.738654797609,-256.152684523808,-219.116498632351,-266.143901001836,-283.863870353559,-253.600396416452,-265.632880579659,-236.13606527271,-232.671730345561,-241.488106900457,-206.226692295894,-175.451917940106,-209.996095136964,-235.594772352329,-148.950558415103,-118.745736575774,-85.3625422933464,-152.009487556026,-226.047690081498,-77.2771660137371,52.4387097886377,-10.3063330908922,-151.17267205988,103.248537856232,67.9383477389894,-181.795222318996,-323.085304371876,-279.770398494366,-310.258861752551,-298.182159420682,-286.25558750149,-315.54743013604,-288.514951271078,-298.796782299594,-288.683021906583,-285.563653839717,-294.721517699606,-287.35846613358,-286.571478211227,-252.211930124443,-273.454426908113,-287.171376899351,-279.748809787243,-252.130925526144,-281.227906245709
-90.077203023501,-110.300815568129,-91.9811379044912,-103.579471696575,-104.353116889118,-92.3130645211142,-97.704048472108,-126.175715656498,-98.7947106673576,-114.24091097792,-113.578132945534,-110.42545292799,-116.837130912268,-105.363236638502,-127.21653555767,-93.9144445920452,-137.777619949332,-141.638776264395,-127.650336971291,-184.515742309327,-175.584748922526,-163.00719777324,-193.797789194158,-189.967053227207,-191.259535071249,-189.680621673194,-184.732277919922,-166.340646597566,-154.562539392974,-162.30176505024,-108.54207592477,-113.386851183847,-126.433583345061,-116.214527783596,-78.2134570583885,-19.049222284546,-70.0727606492417,-125.419199721542,-67.7951529745993,67.8796871719571,38.4130347392666,-78.0347996182446,85.2183036157135,96.6608574368198,-105.206446919601,-117.045453805254,-99.3327226927915,-108.394952919219,-108.322776495629,-100.987094334618,-119.802523005055,-108.748728992931,-115.096002030424,-102.623030728919,-102.483469136866,-119.250414543929,-111.804888069686,-109.279932205091,-94.7394586258501,-110.570637656146,-112.718271755193,-106.802658761155,-100.004490961841,-110.9912803392
54.0486697825177,52.6429918679834,45.7094690491055,47.615341520318,48.2114155309624,9.39093026497639,27.4868768112503,13.608881894663,22.8816419931233,18.0997761207733,30.7895765999627,-6.29402257331149,11.8320519686422,28.0924420894487,-38.9787812904952,17.8370246431462,-61.0606346993289,-45.3807957443577,-17.5885801010571,-103.277758811674,-77.1893471638923,-83.1684898071991,-106.518493836347,-78.9382787386954,-121.140729929248,-103.764246141034,-134.091033054665,-103.18970560697,-69.6193422156255,-124.797437686391,-62.1018476217287,-32.7477164213544,-27.6142588190385,-90.2018412958945,-70.6936679658535,10.1095294420637,-14.2841422856639,-42.7108201350143,-91.0361364754031,18.2276401217384,34.8234458582366,-35.7429640783979,-20.1262250278213,59.8019853219941,-64.1418544581758,108.123144109562,71.3531213075825,104.323693168091,87.2960449365498,80.5440188973149,106.247921882836,81.3000492497877,107.466057565309,107.132359298685,93.6055552537495,69.4234628067713,98.0755342302294,81.9973326713795,99.4129243437656,92.7664379128343,90.0856049992963,81.7951956103585,89.8715006435037,83.9545518862157
183.892406172733,194.108059506358,172.258452011966,184.772846622797,178.009554388698,115.598507558565,139.692980516328,134.731417786524,133.961640436499,136.318392909039,150.109848384012,95.6890175091753,125.419021104539,135.015220108679,42.189273026364,109.533477181561,9.6700956955413,37.7140080420462,73.3714412631365,-31.9187296080332,0.731384046619772,-18.2121398182747,-37.5845359579729,3.33645023601094,-69.049872503272,-37.9540251716833,-94.4666277850657,-57.9117424648691,-15.1085955309092,-98.3490208782726,-43.080135872652,-0.661002282740475,19.2610840938901,-74.4901015848805,-84.3949984535132,-2.1359863491248,-1.52165946298531,-21.7597375841031,-120.297656878495,-51.7396766118294,-11.6639012637552,-51.3052499072245,-160.692329735467,-28.9667222003002,-102.918016350618,238.734960526582,147.390322514363,229.982313028921,194.278870363213,167.422677449542,262.885532249659,197.591939340882,277.500907615475,257.100642665578,220.485169926975,187.598440533139,261.738203738885,212.543431247058,262.777561059603,255.839765317766,242.470257797389,215.978302645722,252.311164971485,227.171991495851
257.81406056733,266.926854364922,247.860447892947,260.150028069371,247.846126209659,191.27934185146,209.731892518272,198.460902293533,201.549466594581,204.714602407349,210.856532038241,162.342065862264,187.589742019915,188.559241090761,93.1684289959861,157.125248180095,54.0117332245961,80.8178524444344,117.81974637727,6.39991266915372,34.2874347462748,5.99529882164898,-5.12833844923776,32.0783562366695,-49.2259697397216,-12.9771064979151,-77.7148922113985,-41.9479428595075,-10.0689980328702,-95.0877047531939,-53.4502151897566,-23.0071656493787,6.54615512632558,-84.7430282603658,-116.419467739237,-49.7791576325971,-35.3965356010684,-63.453304851185,-166.916614681721,-134.736607826856,-93.0171996400381,-119.528949843784,-315.696785186447,-152.804582136436,-200.476825913094,234.0083621083,113.210757021533,237.73241485151,184.580611434368,145.719497333342,303.736391254845,203.116084889835,341.875237545371,302.5556995311,249.370718761227,199.033164050659,328.596054660954,246.974917745389,343.328961811308,320.706044855935,298.241164621531,254.520439184761,333.58252737055,277.380188111755
273.681274904927,276.511134872117,269.896730824676,272.881445638293,258.945279125675,215.464980000322,232.755554830048,211.067715583438,220.625614365596,220.816245061066,222.029547232751,185.797648569779,200.545901021722,201.771784246529,112.630698650731,167.725439128679,71.0762271018293,90.9866859490559,124.738522425587,17.7082922149422,40.2883759975894,8.51608013778455,5.35787880819513,28.5899626101232,-45.5996455326164,-11.90210179912,-74.9860353596801,-44.2506942216591,-25.8568783994061,-101.809878996983,-74.4526272236257,-55.3286529871436,-23.7594751031142,-104.314502463936,-147.54452587552,-96.250639290408,-80.8589044009153,-112.284667489536,-215.41588669612,-210.012146658081,-166.348788043896,-180.348828515062,-432.883653589401,-248.35622968905,-272.383938341584,182.7319167675,58.2358228294393,203.696668420326,140.440197008235,104.947073974838,286.243943688439,166.297107679506,336.530230856372,286.611710132701,234.753712589773,169.216137985113,327.389994252437,231.327736580858,354.745574512107,315.994233572582,292.318940702611,238.42983497156,344.128931097477,273.599657579266
271.081449471374,272.784467229138,271.05123560427,265.636236507518,253.723525772408,208.508864375268,232.333781838968,212.583971443295,214.189368776772,216.326917949441,223.060820196781,186.479513342953,197.186362244322,206.971771149626,116.434955641189,167.327988188897,74.4362786213672,93.7530492813584,123.485352373084,25.4884946325128,50.5906697495555,15.7551882290947,16.6826769747093,31.0261248624484,-33.1408144797062,0.225208268944,-63.3223309285507,-38.2121550236961,-15.3890330520029,-89.5608085884491,-71.084614948158,-45.9140284836073,-19.1488965332917,-98.3354048060751,-141.342066503441,-92.6097732875629,-79.8129123180806,-105.185963565179,-217.473892294529,-214.549742708657,-166.265911805516,-170.906464966138,-425.896962790091,-239.310520157117,-252.723677402977,203.948205293307,85.598340890279,225.216124663027,165.596404852797,137.624837311555,304.374306196182,189.381682731911,342.294347031076,295.569397008222,253.795127282113,191.046154409522,331.403509084338,246.411863439812,355.542827063248,318.981591732861,299.702579208258,251.24544277392,341.947387604681,284.174797853177
259.974992515228,268.648694230535,253.750703944497,251.534784934364,248.927367859122,185.646746027669,216.784570524319,209.819557036081,190.668355183261,201.238248626167,221.928050075373,165.057625446857,182.769933700602,204.474965573814,104.200274055712,159.106839468275,62.4920504472932,87.4282233132884,116.962759347027,23.5539418808686,57.7692116546245,12.5534682443877,19.1220730996515,37.1728751678278,-24.7104831461544,14.0804812304278,-52.2164427680519,-26.6362467089882,8.97043516012673,-69.6465442157513,-44.5321190589385,-10.8871645991059,9.90881479955764,-77.2560188450724,-107.006885290583,-50.2028576052519,-36.7122950581848,-59.1682382718401,-180.657391103757,-153.228617910448,-103.966676252333,-113.081245955688,-312.989638868456,-150.65146148189,-177.732922878027,290.516483092417,176.649364549809,293.720597332328,246.198866998677,217.300279588376,358.265564983321,261.529357244275,370.204037491111,337.789968300702,302.75182465159,252.531648018352,353.729687169955,292.77577947786,359.118553442791,338.838755039558,325.323526976045,294.620721251807,341.462738692735,309.067833136563
218.215215063855,235.391637048139,199.424448559123,212.082022445666,223.448325559091,140.223559420972,175.203226499849,182.049498217246,144.352583590717,162.09824951983,195.199243039704,111.951310077982,143.775017301193,175.970907932545,67.5976328548383,129.011626421328,30.767857200833,59.374922614531,92.1310568876927,-2.7065926831052,39.4845644993605,-16.9679199018283,-1.98751288282011,25.5387107217528,-39.5350684907902,2.43243225186148,-62.3246166236012,-29.2093890062365,8.34064723784498,-70.2719211881541,-27.8770090065222,4.42414745704018,19.4187205220607,-71.5675577200329,-88.0798993046096,-23.0177405384184,-6.46108670708408,-37.4021709185518,-153.291363491001,-101.793283285167,-51.7146638923623,-72.5899674104993,-203.344958113758,-73.3979972485932,-123.937309746184,344.983211459745,235.705387772838,329.592928462021,290.815511617472,258.517331568394,373.978579287461,294.278236430655,366.282494567494,350.701757702607,320.104777467408,276.966197600797,348.938811656318,304.705023882008,337.200326945199,326.481187522437,319.13357189876,303.529948623108,312.647146605165,302.846197879049
163.22917010291,182.749042489476,139.971127165116,163.129065303205,182.881370218063,93.2590241116647,129.531213520405,144.967703987619,100.593246413432,119.092869562719,152.862734190163,63.2666859301159,103.93245462091,137.53824680159,33.8192286507674,93.5723946240241,8.36736281291917,35.6718682605045,65.4232363387021,-23.7205403382163,18.3116487070778,-39.9657071542794,-19.9339331854154,12.2724179613648,-50.4014478312901,-10.5643439902857,-68.8871275353227,-31.9900393006614,-0.327992453322044,-70.2135594241353,-19.9498732412588,11.2407850019037,16.9097363065697,-63.0749587632616,-77.7168495761881,-11.2979159758026,7.31011342092397,-36.8566124801028,-128.767528751899,-70.9207373805546,-18.795843173339,-51.4303031860153,-123.807992574435,-23.1636970228255,-92.9773847027026,328.520251976605,236.48476288274,306.721057626697,276.648106742997,249.182335182251,332.409568124466,272.455101940751,319.4706279267,315.634016486023,290.365314712403,253.982227899063,307.371632508216,270.744901394748,294.228312701816,282.337625517938,280.095304461623,270.516062324037,261.648395153552,265.524680367378
139.430752206834,154.672318616104,126.295488177897,143.934578935084,161.941556617347,85.8799229126485,121.959117148563,134.062464576999,98.4025511345401,111.436312477692,135.532046497021,67.4876605505241,99.2831509295361,125.406424322358,46.0142774156006,88.5503857033462,29.2013581458598,52.681159903044,68.8547524160731,-0.45103961370877,33.7340760173772,-19.7681623438106,0.167373021923629,27.9516384375919,-22.1512428540769,13.6809042643504,-35.9911991303279,-4.6465333698648,23.148342843797,-28.29697256609,13.7791696650202,48.1993547016452,39.9468838338411,-13.8701023935749,-28.5104292533879,33.7558286219572,45.9486704254977,-7.03256623539424,-61.6629015266367,-0.994177261763499,44.5219430550333,-6.62643466171854,-12.9674451991169,48.6773072453651,-42.4790111117274,278.922886476848,222.618673705159,263.215131711369,249.70127944088,233.012401732408,279.466254458198,245.853414790719,268.953414017074,268.886259013856,250.774500123735,227.221420616469,262.659486936844,240.130240507599,257.760506988529,246.347245658332,246.871478606514,241.716563322436,225.597688834261,234.017438090747
155.270621526353,166.515096098643,154.720705414261,161.216546922423,176.198541716944,122.35655086836,155.73422655212,155.727604933203,136.865835349796,143.408511855063,158.129785818465,118.140823881071,131.342478858642,152.394745123252,104.843295232631,123.976339677305,89.1249173876656,105.544894900177,110.684272503874,61.6900871235209,87.7560160914369,38.8465156084313,58.6127195641001,76.5068599789532,44.4009119017647,72.1737657167004,33.7428088109734,59.0412208429746,83.3328717827536,57.4706705581018,90.1348026272553,118.756486932225,99.8950048018253,78.7733972130022,72.3746966357212,128.723187055345,121.532471091796,62.9419150333022,60.9094649697117,129.09163952209,151.496373539,76.5000115880431,150.419584033904,156.799570883187,37.8265744353561,251.651880230343,233.870287804188,244.632555643313,248.31695566199,242.462994241925,252.854432212516,245.980992500339,243.044336347135,244.383453785228,237.836567886322,226.852701546329,240.18807580788,241.166637746534,238.430560943657,231.657297348876,238.597379655341,240.723976505194,218.300518266978,228.769876791364
175.742838478394,190.207028767067,177.868683001315,181.938883157352,201.549989845568,159.114850424759,188.269437454056,183.353220861635,172.828868149138,178.41909513364,189.525920534339,162.45488623793,168.6803297911,192.464158228945,159.646730608597,169.805006466456,149.598248017709,154.528001282487,162.930284142969,121.186078571311,145.443749070681,101.339864668226,124.620008474126,134.13289306911,117.330301618709,134.505932655531,108.351413690702,135.926839426977,153.402880309908,148.547860120746,181.53296341104,193.24650331374,175.680576494325,178.010109110434,183.129830755996,229.335026358308,202.664802933814,139.777136135938,199.658716510015,267.494327676255,259.022017349133,172.7007065966,313.687071094994,269.366392760752,128.468333507541,267.099632092308,275.079253113317,259.071736647346,274.324456077485,277.235083347218,248.104701400346,268.84642867256,234.149256477038,243.397620301967,251.094676334613,251.090896884838,232.354059604231,253.907018780105,225.455329741633,223.59819035592,243.819424237197,251.476365873356,216.654726296188,237.501296883519
161.315398548532,184.352214486028,160.044436698264,168.920641132729,194.632279119614,150.597129259878,177.444865934676,179.287006610666,167.243238545587,174.109372437185,186.139011106351,157.960139261694,169.648961724373,199.109119040352,161.04644074303,179.515229812026,166.127934763275,163.076556926973,181.235172250767,138.694449732909,165.650371329152,128.814195353443,155.710115805491,161.795924080584,151.800049744621,165.708864476391,147.459807497768,183.857199869039,193.55648292669,195.404027839332,231.613413919534,232.651364816404,221.7930439912,230.342513924447,244.565608607392,274.90453282479,244.45242400844,184.431024425881,285.907053512674,344.115820518133,314.88474302074,234.571925910578,411.592516598973,342.698114662201,194.144712080012,277.405521382243,303.823873895518,262.190069375792,286.318840028447,294.421189801201,228.360808796162,277.511239541485,206.838694374717,229.341302507823,250.486711258124,259.883378114461,204.979532084909,241.621389179582,193.705758702746,198.162830335096,228.516559763254,239.6579107306,184.840565339332,224.854388610465
117.502929628061,145.839056348318,118.032408799947,129.510352788808,152.299223929071,109.580869631055,134.61323821209,142.740854484677,132.049065015408,134.889288148388,151.643590117779,120.459554282593,133.719382852499,164.902112952455,124.26436659113,149.130657065282,138.865836002311,138.199062570483,157.57553555998,119.044772820954,145.485977012773,116.281686759671,141.742394451053,147.015916124657,138.310538198078,154.662728161621,138.568348939652,181.184893907636,186.955123541415,186.050328092665,219.390220892905,222.323338112828,212.374316025837,217.829699719467,237.868481987539,258.921621276002,234.01963481271,183.215388226047,286.572854851272,340.159750264116,309.698471402178,235.717311631516,426.49160051611,354.522197616082,205.005592706724,234.629389346106,277.769455420559,220.838274928416,249.210069046832,259.939263981329,175.51279776688,241.730396954967,150.211905872633,179.149703076748,211.632908879994,223.083694897567,149.15441882862,198.589000100237,139.810361768243,149.801069572094,180.597457482143,195.9883965214,126.182496583302,179.771604449267
77.8621007988553,103.777959492387,87.8668138459084,96.5963035220245,109.077816922614,80.4586526761343,98.675196291323,103.954643691664,99.9660201033446,96.7475207121745,117.198395461643,89.6365669613054,97.9602626298461,122.171726797165,92.9724505141838,112.12770116149,105.03747444375,109.010962702635,118.053274124098,92.8136224458944,111.73628445951,87.5427872998554,109.518922673469,110.408960885874,105.742175689144,117.596572903459,104.210776410116,143.346656089111,148.80629411701,143.485142820214,170.747451424506,174.903540643697,161.447451873017,163.784266125682,183.481983663364,211.599053731375,187.735518116355,141.843597122901,222.474650024421,275.66804474412,260.171603852757,185.729386628122,369.134965959577,302.767511965457,156.695827570701,149.544867403884,201.012724494884,148.249505883785,173.426388830748,186.600976503897,107.252170952836,170.049238828611,90.8357943486585,111.301270484075,148.69080257843,157.489224714219,90.5263639458969,143.469098439417,89.363600281134,96.5363200500988,122.306909987907,138.876946782942,76.153755335733,124.82225502557
43.8111161207296,62.0474719307735,60.9133477254344,65.9275236363092,68.0442527521003,60.1684548392663,67.6574175277304,63.2704753902595,66.8868641037312,60.7102163712945,74.3775573031449,62.3340217690096,65.1787091509811,76.1385374412059,60.1588532092837,72.3748568500122,69.7415281171565,71.7957092245933,68.6720900882229,58.6085711494736,67.3225990261302,48.7950054169308,68.0300081865757,60.2063733390737,61.987902975611,62.3971650472043,57.1879969847125,85.1268090329034,88.2693006131991,77.9719750908805,100.860954093515,97.8268284923027,81.6895038105205,85.8157833012713,96.4348129545699,131.745231357983,109.49342639969,63.6998044227801,120.179163169838,160.28952864557,164.450751261551,98.4269506789036,243.02803793654,187.41692107521,63.099036819778,44.3851755836262,93.3794823361986,56.3403083430807,76.2206494952623,91.121261405456,35.3734037148374,78.4302180367699,34.3534449859149,39.4859638113333,71.2813671005843,79.8981813456581,34.2532607772803,73.8914598642535,47.8908671301956,42.0805140417727,58.9521585816157,71.5192339003323,39.2637441717548,64.26188750001
2.13243355472024,12.5527668926816,17.3569917274646,21.2044430495343,14.3640555974606,22.8590129385583,23.2982605614883,10.012583853235,21.1198569838749,12.7303418691607,12.189910872891,22.2726853910859,18.7848568861137,16.8841751433215,6.82432348603779,19.5715042762333,19.5383210061405,16.6368454403234,9.11974351949501,4.80707395710467,7.12016675537215,-1.17026193943648,13.1883457259587,2.0272376580559,3.89067257827294,-1.25545675886852,-1.3544066833085,16.3839489091093,15.6052954492044,4.09112912395113,20.1798050243883,9.91651445454324,-6.86277349501141,3.74867769335821,1.48992724078526,26.1182517243527,14.5957772151805,-24.7543290323356,13.6927067230329,29.6325509219556,43.6189139577928,1.84909376679184,91.2867861950735,48.2686595277357,-36.2389297993126,-51.8474321810603,-15.3283160668,-34.5482713845977,-19.6124495754658,-5.93043011670659,-30.0747575600705,-11.3924024817814,-24.5966851838647,-27.4562727569474,-9.8046652962694,-0.626788028310043,-21.929237240604,-7.23036189170422,3.22633730028672,-15.4901118922686,-8.22332366540269,-1.88101473386485,0.57205705327709,-3.563177956493
-36.0088569880301,-28.2925933366378,-25.30382325636,-20.8367952435144,-33.9608020292988,-22.2274193769775,-20.7443090189901,-35.7029815372839,-22.2867208797929,-29.6777742068799,-37.3397074511154,-17.7396746867999,-26.2876390759858,-34.4691406842429,-45.0461573119593,-30.2449569018711,-29.6267525181073,-37.2289321589023,-38.9864236605885,-48.2576653623334,-47.0334926242445,-47.7853638887832,-37.9995094167318,-41.3495694728572,-47.362416507904,-46.0009806373112,-55.5647705276426,-41.4479761227343,-39.9220431648608,-46.5575886931039,-39.4879710945151,-48.3786289996262,-60.4302407239212,-50.1970636661315,-58.7957407864804,-48.4444532529839,-50.6471447282904,-74.7144750466385,-51.6970091738641,-46.2638072534564,-36.614402790745,-58.0790982959076,-2.47030129472899,-35.0242297804783,-91.3023007187907,-87.2106449516386,-73.3873280801812,-75.7126670161255,-69.7165605426204,-61.7307027543611,-60.270338532287,-60.315893929473,-59.424153005196,-61.6812753713245,-58.7700304593239,-52.1623150359014,-53.0956226265541,-59.1277586415774,-33.8874615509935,-53.3078027566549,-48.9956054741694,-47.8472253160446,-31.4191254930792,-48.8928459590762
-55.0756379738615,-44.3361364852256,-45.8204628118492,-39.937970986647,-52.2016788052215,-51.234658524337,-43.1375636935497,-52.2107323255432,-47.5045238854098,-45.9192707696058,-51.608948569752,-42.2845327292318,-50.8062896739314,-52.8559720913735,-72.0792660167976,-57.5266261157136,-57.1061154512661,-67.8592110682011,-59.3052634577926,-74.3046113893463,-69.8967452888344,-75.0823251319131,-65.2173556736338,-56.7115385344494,-72.2071597643952,-58.4622969214704,-84.5624016071643,-69.3146457678609,-59.2518819221715,-64.3078359016534,-60.0340268941509,-62.6014264996672,-61.3318747755808,-65.2248462602503,-73.3308743697114,-60.7481041220239,-62.0165297034285,-72.395374238523,-66.8306041954394,-52.0180237291769,-46.2117209661447,-64.2910184686604,-11.1402186271728,-33.8948075017343,-87.5560382499343,-53.1701332780928,-58.845047422951,-54.5296695806233,-57.1031052603252,-58.3098371328643,-45.2009633273672,-53.0939054573241,-51.5442291997073,-52.6036830044085,-55.4397089566866,-52.328528277231,-46.6609194642211,-57.0490248835568,-44.3123511261374,-55.0016649782148,-47.948726927559,-46.9728426849403,-44.3401986283973,-50.5046707852261
-56.8511006050641,-42.8744861759851,-47.3593441232201,-39.9773596216089,-46.0424945609203,-56.0978338146836,-43.7305517659688,-44.1447764105382,-53.8309550643551,-43.2773088833892,-46.8961863150836,-50.3445207316683,-55.3132496094149,-45.7281548410833,-75.9338411681452,-58.9951256711403,-62.4389379870862,-67.9297550863033,-56.1933628152919,-70.9710470035816,-60.5969603462541,-77.1185359379213,-62.3561264042237,-47.0507179053579,-69.8058379353396,-48.4588671849917,-79.7663972566646,-63.3654002843411,-48.0265249310998,-56.7950093901403,-53.3914831124167,-52.1212512001998,-37.7305160419684,-54.0044198994517,-65.6260364413096,-46.5965560304414,-43.1850486658444,-46.7532708512433,-58.2154025071087,-39.7104950949175,-22.9046261429122,-38.682716342651,18.2227045089538,3.37081817575704,-47.7637104738106,-9.55188034248245,-13.0184113281511,-18.8615892951642,-20.401874648029,-27.9361737889393,-19.7217253154476,-22.0000163367888,-30.8158576705726,-28.9550620325121,-28.3637737668864,-25.5913514887873,-30.4737368095183,-32.5924066140587,-37.2814681580555,-42.2049242517567,-31.496161800286,-26.6335056058692,-45.5703363940516,-31.8107787348044
-63.082479579876,-48.7677855094751,-53.7370422912664,-44.6927181014957,-46.3580108785023,-54.9809902883433,-47.1093569371645,-41.3033238889258,-59.0982835389772,-50.1089335253969,-52.2031268279983,-57.2743811993455,-57.3786405377032,-48.2393372178229,-77.702831998234,-59.4016991469915,-64.1674572917034,-61.8058360654727,-55.5842384897891,-64.3491992907928,-53.5977794591777,-74.8679598800711,-53.3779578431478,-37.9793190433311,-62.9876763482804,-43.4055185039475,-65.3356859612956,-50.2003255099356,-35.1356386276438,-43.3857928841077,-45.0325523357155,-43.676240586181,-32.9912457692444,-45.5426947293164,-60.0187586807373,-47.1819465503089,-38.1549401132748,-34.3639002640945,-50.8584228475005,-43.9325749515734,-14.4824398208136,-19.1627574163296,41.3979365417736,21.7216927670351,-15.8913136825289,-13.5785384726341,1.83031611529697,-20.2138817240496,-16.5965850183547,-20.0892597266768,-30.7137696888917,-17.6905850599046,-42.510154547475,-32.5588822739343,-28.7089984744092,-22.2154048902739,-43.8560047805468,-36.6087190824395,-49.0676962181775,-50.7460214254331,-38.2840520110875,-31.541727576432,-56.449654834913,-35.8660672289035
-103.755044107008,-89.2161139722636,-93.9608312937003,-82.3710327626469,-83.2485393461006,-84.9894174316806,-85.7846529250007,-78.7131766725282,-95.2848410961554,-94.2898552450724,-92.2384467875293,-94.1627582543366,-90.8254772262752,-92.0534885091917,-114.906809847347,-105.493668836173,-96.922653276368,-105.741512887856,-101.014052873055,-101.755222168916,-103.500879077315,-118.432185752751,-98.6900797997632,-84.2401645569255,-106.723095133572,-89.4120709272471,-105.104161000792,-87.2401636955586,-69.1681661740729,-79.4906932708757,-69.1626951298115,-67.8418675046278,-76.8923451835825,-89.9867948824887,-81.3672218137067,-65.2566793055778,-73.2357008005354,-62.2813842108085,-70.3149084620365,-47.8625806026741,-33.514570596331,-42.5840878598037,54.8374232182438,12.2600946741157,-40.7714995984782,-70.0553777562701,-43.3539086811176,-71.3444146603177,-68.3218573577177,-59.4779083238595,-90.1735023694952,-64.5801608839505,-97.1506608431573,-83.5353606321572,-80.0497084037485,-69.3301626941992,-98.3810827992173,-86.5078189908431,-102.849772182266,-95.2470916232636,-86.7076651154451,-81.0838639127023,-99.0011228931447,-85.7938879361336
-179.931665262125,-164.197974826913,-165.348124782399,-154.652638627263,-152.987137029477,-156.87654802198,-159.180607066997,-154.5628269336,-169.232576480125,-172.210167505022,-166.831818430419,-168.930834736299,-168.528390474407,-171.214444919882,-200.421194181569,-201.223266742155,-175.090556830093,-212.280320596118,-203.191722021364,-206.431989385981,-221.710168151346,-228.433488405416,-225.529875038965,-207.567950302309,-230.803467375271,-205.877093128664,-235.355820207798,-203.284324225776,-172.318846669233,-206.012519053947,-145.672438591331,-138.643548922024,-162.587103838634,-208.022837121025,-148.387710661859,-88.2672167028062,-134.157559061059,-133.188539888641,-137.950649250219,-30.1318074820734,-62.0454270833606,-113.735503932969,68.5102439147433,0.661172508569122,-126.872961547387,-147.68288893735,-127.606741219459,-146.697838013099,-146.971504219727,-130.439056202653,-167.220200641952,-142.320345567425,-168.404846482558,-160.354125483525,-156.960408562978,-147.457792078674,-168.221074409965,-158.318986365519,-179.526183808481,-162.948119186434,-160.436067817024,-155.240690525537,-171.286133009207,-165.217557563024
-253.939566731242,-238.515555449828,-230.881916873084,-228.753637195321,-221.61733677087,-234.205303350841,-227.46397154215,-228.920947431655,-244.21397569098,-247.989484378738,-241.885173936012,-244.331882163138,-252.921738935786,-248.280178650535,-289.111727722237,-280.826257505178,-261.285764282108,-312.372689717747,-304.160413343516,-331.231032749041,-340.917347694136,-345.884875896533,-364.849265444474,-343.461556220468,-374.361415430983,-339.424849228902,-388.707878333256,-346.232358771012,-298.298267577225,-369.261638938003,-250.194694902737,-231.007561997814,-254.626936503819,-336.42942777461,-247.23349579641,-127.322057909334,-194.607814136184,-221.340928214804,-235.136833167962,-24.3787763129333,-93.2744443707021,-194.998176071945,60.3554428406828,-10.6967934727707,-223.372436550994,-217.860602016821,-208.850235546343,-214.593520335363,-215.37420979952,-204.926029662846,-229.856042353508,-215.967244257276,-230.864812206517,-226.017594630936,-222.718106057627,-222.156020686359,-224.939224712391,-224.690891528938,-245.078466988876,-229.86265456538,-228.656545602656,-222.734643497594,-240.847775440678,-238.107045477974
-292.302709705422,-279.471201708612,-263.893788411327,-272.544257145051,-266.47726695442,-275.775152943166,-257.930450696257,-270.33521904954,-280.917397173175,-290.416420913808,-284.126540618791,-279.810187118352,-295.41421265043,-292.053179413494,-323.814617049055,-287.965843049461,-300.500953763915,-337.724748493853,-335.172815025923,-393.149330203049,-378.164830978366,-385.862944870452,-416.25051765304,-400.661362083567,-437.782105063101,-405.120208448112,-446.2288024901,-421.610755897883,-373.607456704736,-457.385602356472,-333.588156885204,-303.665028752832,-322.06100441785,-389.187985130982,-337.978768404772,-206.672599308233,-251.067715182947,-292.640563532848,-311.431708974776,-100.819960298184,-147.606790945828,-247.522779738123,-16.0324469864882,-59.2195760141778,-286.238802199619,-273.869250917259,-265.97292093843,-268.607117904099,-268.248928833936,-269.459984169581,-276.665238275785,-270.956480975462,-278.608657816621,-269.941913506495,-269.470284595591,-279.337356445486,-265.952023123073,-279.568771260868,-286.084678206273,-277.744493423092,-276.873462140702,-273.422029434906,-280.405403355855,-285.354506896543
-295.756337416647,-286.324616570356,-266.64329242923,-281.70869283848,-285.715994546004,-275.161374444099,-255.982204250591,-275.852466207828,-275.689292566978,-294.296816700621,-291.333730591077,-270.625179187847,-286.267922770158,-298.872142729148,-299.967798974202,-246.209417954109,-280.707724290349,-299.383616430606,-295.081387010189,-360.425660063157,-326.626063273111,-339.21663797587,-362.181580302503,-359.699872747223,-392.642988039771,-374.72920337541,-374.120298008846,-385.00280976472,-372.819382261515,-418.293915176166,-364.075345161147,-330.813094693944,-352.525919799023,-358.584085931523,-385.423476315057,-307.440993313359,-302.759535136006,-326.915780897431,-340.250149287467,-256.598870587919,-226.794915659249,-268.554226401171,-153.505373482729,-156.320982464948,-314.612580657436,-317.988284166683,-302.113797991968,-313.986912871042,-311.855494912419,-317.069532129828,-314.520908916586,-309.173102106329,-310.581974234452,-301.870924470241,-304.552144314747,-315.98387122722,-295.981391951292,-319.676499976798,-303.554477556043,-302.312507699925,-304.998266272081,-308.708054471427,-293.602337452578,-308.517099012307
-276.708905688238,-270.30807303167,-245.597448459141,-263.449053160263,-275.009569526957,-248.079636213215,-238.764407974875,-253.51026571958,-246.590567412081,-269.584410814954,-273.264233751216,-235.149895198319,-248.181252930899,-277.802334655807,-254.96442234589,-212.807907094551,-235.98361153558,-253.496890791143,-237.584943957824,-275.457694725952,-250.92954591907,-268.075176501897,-269.409483920726,-276.253885893276,-295.987339160469,-294.700706570753,-252.218901573534,-278.9696911085,-317.851273707877,-300.152552054461,-331.0453711354,-298.601296987255,-348.22119103759,-294.98015071254,-369.976070445915,-356.393053753206,-327.114199843292,-324.605419897146,-326.390665758652,-376.629407023565,-285.301981261213,-274.292119272998,-260.451684369198,-246.112609002304,-317.094453763783,-336.138835925175,-311.381966498227,-332.434516906593,-326.047959156532,-329.559125069378,-326.417559279674,-320.730377598239,-313.172735425736,-313.810570762487,-315.215825431994,-317.567079116956,-302.300951594682,-324.740479044715,-295.004879330836,-300.783371695277,-305.04956289976,-313.509389814362,-286.879395776271,-304.959942361072
-238.444082683184,-234.142761621324,-204.285543721462,-221.528436731472,-233.595377204083,-207.917086297054,-206.959895417058,-213.469567553412,-206.932853781036,-229.199220591188,-232.455419764391,-192.583920284077,-203.753570465222,-232.435202035874,-212.670643691442,-199.126466803128,-195.593349616004,-221.951429211677,-201.480371103962,-194.80091755007,-197.271591662945,-210.448145290672,-195.305994637923,-202.104044681111,-208.227517283883,-214.019334759284,-162.790500993165,-172.487438934016,-228.386061699785,-183.915717922755,-239.320138361962,-203.087935647861,-317.26704140986,-227.925635860046,-297.711487273501,-303.355726803911,-303.248576106483,-295.733603066866,-271.314415409754,-365.65018460479,-277.872976651633,-264.397411936987,-258.022515909996,-267.452729093229,-283.928160407875,-303.750234709878,-272.720207164566,-297.226087245809,-284.507639858797,-287.955423474771,-289.882819253632,-285.574756324142,-274.080089296645,-282.28865439189,-278.585091227588,-270.023771959907,-271.628880795759,-280.565133761528,-259.456737276002,-266.163150849008,-266.750743355554,-272.202142793877,-251.621914924649,-268.525266144646
-188.177851585562,-182.864681146035,-161.046700369876,-170.383481935705,-178.352564629334,-167.23009596893,-163.742280901861,-168.175303311311,-166.577237272957,-184.335322308752,-177.541788600779,-157.372712148244,-163.160574083545,-173.577849399308,-173.48728672637,-181.066084644827,-159.643484310936,-184.879837941456,-179.582574745267,-135.977092839473,-153.896595334425,-153.103629290933,-138.075005865344,-139.831225609318,-137.593169060723,-136.313543584075,-107.199633987375,-90.3231222331788,-118.013354295999,-104.837326360034,-120.135230383496,-75.7100219011375,-259.348262596809,-158.584408017998,-202.126492269341,-186.419598220815,-236.446694323582,-241.421742553436,-176.819462743624,-260.353732258217,-212.363120175565,-221.249186150199,-173.427937244208,-222.978001475206,-206.377265091701,-220.079785329777,-184.327069652631,-216.272012566941,-199.351012081119,-200.555106919148,-213.673932454134,-206.711534959012,-207.034302709583,-209.019286162343,-201.944676828715,-186.234657172574,-212.513450996698,-204.542870929512,-205.929355652916,-205.405088407097,-200.4440951204,-199.503918289567,-193.13223948022,-207.065497864853
-133.643363911135,-122.529496442712,-126.606974795644,-122.632981758185,-117.478727892535,-130.546786278728,-117.924329341297,-116.470603983014,-127.967211760684,-132.257987808452,-117.428491249714,-124.955236343795,-120.306996523073,-115.715079821766,-129.38311350605,-144.218280124962,-112.73759670269,-124.700109084432,-138.448499193245,-78.3267531628804,-91.1372616583443,-79.6718580889756,-66.6336074256327,-64.92887603419,-60.4312799369288,-49.4449662240141,-43.4599128520794,-15.0437821787232,-7.80380039431419,-35.5227531938136,-12.4119716893319,31.9253036930523,-163.88115497166,-83.6387866355342,-106.318183582235,-79.2934610733981,-143.101266756119,-148.209881452637,-65.2161495667454,-151.545309759677,-129.912362295099,-134.048311451421,-85.4910266098563,-152.980187495301,-93.8301185275189,-108.402329830816,-69.570190090906,-114.135567386108,-98.1418185017537,-91.1081107733309,-121.341845719119,-105.867873580305,-130.463874911411,-117.987421707729,-111.04645665786,-89.6504793357591,-136.255460674048,-116.933396652543,-140.191655778095,-132.814574334942,-120.049130707918,-114.507923966796,-128.158330827801,-127.272488280186
-75.3387224182825,-58.3258631734989,-83.9732268037463,-71.4234113183871,-49.0640964125534,-88.6603192185443,-66.8677248529572,-51.6848624570218,-82.280083438888,-67.3365613240303,-52.3283152704029,-78.894149299488,-65.6166428181751,-58.2407043106587,-71.6183510813659,-90.4724443973569,-50.8378732338376,-50.0649297507583,-66.7981448587676,-6.73689828506364,-8.0429861609584,-2.80104502685605,20.1409637263069,22.7593569921985,24.2026495506989,35.4651869139746,30.4455320237947,61.439621762662,80.6510554874031,50.748397685745,64.021654910775,98.2865660615915,-43.5533129371155,-8.71458380052505,-18.6816032321592,-10.2392176018714,-45.2598236219511,-24.6047625161695,27.1999304369555,-76.5570175846781,-63.5717208187523,-25.2610219839294,-32.4650864585232,-90.0958308324075,23.3221551579358,2.16159020132242,40.1489559728482,-8.29433133406651,2.99238260624853,16.8590149512687,-28.8001129729681,-5.31271249469837,-50.5054632887214,-29.9134896732617,-22.3350377168976,2.54143119526522,-54.3095502582028,-27.4484694738942,-69.5072895295271,-58.0327850453003,-34.2518800560996,-24.6143485004182,-64.5018846193427,-37.4669826026589
-23.0785905559542,-5.96819095131522,-29.4720244396168,-18.3209912497724,6.86615558837759,-41.9552008905986,-14.0775567806413,9.17125934790672,-31.2020782787798,-6.97421232879121,6.03395119009039,-24.0733829247657,-9.7685625348009,-2.80769916746491,-9.28195902968188,-32.3985837811993,6.31877877342943,14.7790541367315,6.21340309026686,59.0520254135506,63.3459401087047,52.4057553488253,85.4171738687131,90.3571905130026,88.0343513334182,96.6593884083176,72.8680704019632,122.177025416726,136.561552661435,134.454988905653,113.639993235697,133.013238464476,56.0275158590971,52.4003693132787,43.9683677081583,33.7849386286341,29.655678847888,80.7918795468642,80.8847099802185,-26.6236220196138,-25.3084418778194,59.0479302102038,-10.0480447494477,-52.5349365718482,106.621573172637,73.9883513379943,106.550363837503,65.9756987978817,73.730732202169,86.5668925896789,38.6679278790057,63.1152566704429,13.1404324391577,30.3743001367374,42.1776847163768,64.2065329711227,3.98994690591067,36.642621720034,-19.3379799067594,0.778834003937768,29.3260012716792,44.001448314065,-14.5533501283235,27.6026087613687
6.49326035615845,19.5591776781282,9.00683031735879,14.8929408568198,28.7106212519081,-4.78869778103835,21.6578371864759,41.3793328588139,7.86094468568063,26.6940355203911,37.0215163094046,17.8361890446112,28.3153066267788,34.7162627349682,36.4811268199966,13.7898798849082,43.863170756243,56.5922030794769,52.8846000942912,97.5901164091582,98.82808470174,85.0017879290921,114.211179438011,123.811690208347,129.427613174113,134.832545554827,68.7183041890057,162.699529309378,167.594310461161,199.539115725197,162.969265047453,144.8757769522,108.07530308394,97.5783800670886,83.7801316988031,65.8493288812717,74.6282466418377,138.902674978335,114.374245820438,13.0558445565562,-3.47808088258642,101.955239899449,1.25007594085828,-34.4551816735047,148.81162995597,74.9151926188899,104.328161879988,70.9697767576095,80.2101206721632,90.1993501264405,51.1056908327192,72.2277457807149,29.7238306115698,38.0408183871863,54.7064655482733,73.294857307242,16.7265463036671,47.3136212162345,-9.16696357174139,22.4280264481676,43.9318529644629,59.0370259397825,5.49139766820752,39.1020062104318
9.0838509819721,19.9164996343652,13.4596680196688,16.9953662259711,24.7940138496296,15.8017133783523,31.6616944036703,45.3193674622654,24.1903317814718,34.6264599293835,37.1968061966604,38.4273532153214,43.9860453339734,44.7103220009234,63.4367121771486,38.2394133971227,70.9585645312388,79.6140400591629,71.5211124510191,120.58888412261,108.980946241606,115.494257371412,132.87375546262,140.781612128101,180.03808422013,166.80112833192,64.3125497937629,195.91682435149,190.087036416854,264.574348612206,230.207583772892,136.241641652647,125.402529025145,139.935967355676,132.178822158616,83.8676838910541,101.999219741958,171.338869436062,159.374727388666,54.7873795337795,22.9353073575625,130.002155891794,33.9828593165272,-6.57003782028803,178.872552122386,13.8839156121912,54.5481944603239,17.383215586114,32.6043908036561,46.8969748752035,8.49691312771755,33.4805208957121,-5.23606887167636,-1.36374026292015,16.7014566242757,41.7564846686759,-8.0254014933979,14.9618581517745,-28.7068005150147,3.47357697212093,17.2619475205072,25.9680010390964,-6.20412727093573,12.0636156682339
-6.50914696030858,5.11431457570318,-2.63662668091028,-0.946990835309306,10.6309437020515,21.7595772419645,25.4673871027617,37.1082020161781,23.0130432053619,29.3427103875544,21.3923888235455,44.6602208327121,40.3348195901193,35.1400250328042,83.4777876780353,42.410274084331,97.2054753145443,91.6679490828447,72.1089753152711,147.145551267252,114.216632344955,152.948966471981,159.939357834402,154.120730959455,244.645079237025,204.326817961708,134.28998130151,218.974383677021,218.128483176423,339.384179923223,298.404176753842,119.098498044772,122.491608820557,198.294989409989,207.515091818933,81.0100536722188,117.121554016389,201.238009014785,227.411970282491,113.838978477333,58.163838500918,167.142660444556,116.003711707499,52.546511845627,220.619558495943,-56.0585405609181,12.5070986118196,-43.4183052720338,-17.3739778636847,5.7716219934787,-52.8226020378123,-9.94222700020297,-60.6748700945838,-51.4859480729913,-32.8302394202739,5.2535518482456,-50.193347123724,-26.0581227881849,-59.3023292606293,-41.2220635758136,-23.7329350450083,-19.2744020404436,-39.8319421001804,-22.8031244202346
-29.9603492893536,-20.1059848486788,-21.6357944458487,-24.3675248891666,-12.5566268702453,12.7855139335249,11.115281321823,23.4632656313179,12.3253668452156,17.5598150468717,3.69356286182982,40.1298796066582,21.6810744550729,19.9910639066878,94.8466713875685,36.6880381750932,113.132897732067,94.9691881438422,66.4341551351838,167.464862157293,116.338894129273,183.908381881888,180.588003645768,165.60156455565,286.183504115484,244.520282137444,291.086413101694,219.798587305909,255.850365475617,391.706585330927,331.458920143394,113.743428159283,101.090658991885,281.651342800238,294.22620115534,64.9819779791441,118.23390506864,224.853653363019,302.186626783616,192.260645830574,84.889912516015,205.36574609721,224.404142650204,125.855275286666,271.503863699674,-87.3490859231552,10.4783205844041,-72.7400010372217,-33.0928452328346,-4.22289974032179,-94.2033652789565,-29.2239180501499,-102.517279542138,-85.1984511763611,-58.746841325759,-14.195804164973,-92.3762174032174,-53.6478064375601,-93.9634755769968,-87.6672782474088,-58.8074519527601,-50.1854400572728,-81.4088090959723,-53.0723227506846
-45.5134565089243,-40.9658632516272,-32.4375974085255,-36.7308180956487,-31.9762948108299,0.033648770003377,-0.680456418149579,13.2097305620884,4.7096656157873,9.99999858025864,-2.53403273013313,31.9301798448103,8.00274890313401,15.5144739265696,97.0167250728374,37.2323250112908,113.751108504326,96.1680327773544,69.7227031863547,166.231395679501,116.898214352178,195.432125311458,181.213317799223,183.754961334869,281.953668122641,272.591316471135,437.361504905198,210.72156036285,288.436611001755,372.573263259005,313.220801946306,133.746835609538,83.6145469132233,369.747007638023,364.557202831932,68.8709550188139,123.372252192754,244.283827275491,355.598607242603,264.101564408084,101.484659575512,235.31609389186,303.735165549705,181.841043255448,322.794400247344,-73.775766070603,36.2849288199468,-64.5339596486844,-18.4644885264659,12.9836186446551,-99.0816980140558,-22.9396438884336,-114.565663635658,-94.4253658448641,-55.2405554761465,-13.6485309361609,-111.706504415761,-57.2792731702613,-117.102008997873,-105.48727440928,-72.949873415733,-54.7443870195976,-104.658301618365,-67.9606363479966
-34.9269545910763,-32.922137533113,-24.5972526576172,-23.5416277781232,-21.7547205897515,6.6794345937168,6.3891733631284,22.2684440389916,16.9091692951197,18.8655688194084,12.2791660897481,35.8517996988767,21.2599409169308,31.8061880823872,104.544297722187,52.3156274040044,115.651086695927,105.848694613781,88.684642225749,155.895241173649,127.09721436298,192.923931230989,173.264480338488,208.838818206373,251.647055484673,280.234534274867,471.26829876769,217.090767028177,294.527824041508,281.475091844119,269.32555983096,166.269690426233,107.183194229022,420.600856604498,396.528644377089,113.653550419371,157.911616804163,272.388076487831,373.895076814991,301.387514574771,131.879646712894,264.526521492063,337.337497470687,215.640267375419,367.1382141311,-37.2128290777787,65.276806330561,-33.8383532265794,8.58644530067578,40.093931074155,-74.5284485563284,1.99334103534606,-96.187631938729,-75.7547631267002,-34.3767699973763,4.38504626558407,-92.2289685070544,-35.3248704059753,-107.170789117505,-80.7149699702726,-59.6737370219219,-31.9727514951438,-89.2954045858607,-53.8693784112548
-17.3318846923106,-16.7971854459815,-15.531208652437,-7.39002620480797,-1.77168753767862,20.8610154909962,13.645541789184,30.9178853318758,30.9941434777886,24.684089648662,20.3986265607344,39.5990139142262,37.2865971168536,39.8985543740668,105.004330361595,56.8404163450679,116.67633041385,105.377224713044,94.1402400608172,142.513449562056,127.485524572928,177.138473877772,159.083537399067,201.872114554952,213.13945740628,259.146613471746,398.006279933237,232.587766716165,254.855136709171,189.598898846604,227.012352568032,151.215917220231,151.267198941313,396.563954713165,372.398863710695,147.41366476518,187.765740148673,282.222898716591,353.194190219397,287.070894707037,155.344675846342,271.744724611825,325.719594048216,214.919444588963,369.354668985416,-19.6299793357772,66.8007910435139,-20.5441364391941,16.5672922760686,41.711648135083,-60.2780306611769,12.9428934723119,-78.301003323298,-56.5629884094401,-28.4141209737768,11.0321563406373,-67.9347303211191,-21.3278549468592,-86.3709211541245,-52.2820304864019,-47.5757221986963,-17.9626017713713,-66.6121186401422,-38.6206647841503
-36.9518765190563,-43.8133522123525,-37.0177991375407,-29.0239040087831,-25.168329379726,3.77498687562577,-15.289972800442,-0.574593641082075,7.52085228234196,-4.03487865565694,-17.7230548078585,14.4189458022755,12.1037268378333,0.316922948840826,69.7433683611733,19.5361389293056,89.8970947063968,66.7208148431913,52.1687508881617,107.317888859849,86.538764694894,138.812664217015,123.299560416682,130.098255744095,167.892047955746,197.854446143047,299.503405713958,225.325959157779,155.124147887244,166.257067274578,177.951306609847,26.1729059907703,151.731936084577,302.70816216757,303.259148022969,94.5591033516975,145.738366880183,227.978025244721,294.159209014638,213.620071220502,109.203577908384,213.145170365008,242.774523249261,143.255223114275,290.492842964575,-61.1220805374664,8.06549233064649,-63.2782364150633,-32.5867907164338,-15.9854882130001,-97.4740226140083,-35.4080619596355,-102.455674260737,-83.5488010781025,-69.5129375402119,-34.139198906677,-92.6389958145168,-59.285418798634,-100.84748210617,-74.604621448975,-76.8283643646746,-57.5294868559838,-85.7066598993024,-72.3819169582898
-87.3156581760555,-104.36510037372,-77.2490540755255,-79.2421972370283,-87.5386412326769,-39.3835892324137,-65.3362820800099,-59.1425403458756,-43.3866538493986,-53.7485396681677,-80.0565934048431,-25.5184090527982,-40.2467986064835,-64.5800535866828,20.0808584509493,-39.0865598022945,41.4352596960718,13.275123450586,-12.901741963044,59.4376546280552,29.0118629269381,93.8394290241703,77.100086748043,33.9346116413923,133.699510493642,114.761478747797,243.379797463519,186.123495942844,4.00324550861442,196.03924532794,82.7988099141547,-189.95688082837,107.834188957929,197.84525951769,239.393934218019,-32.059785400391,45.9177673157118,129.835346461954,223.394765046254,105.655181601353,0.128867070758355,104.020653906415,96.726095636216,13.4956913210494,158.882159001074,-142.20168064494,-92.8952507129038,-140.086711548231,-122.482151810193,-106.688682817289,-164.169973053325,-125.126206368458,-154.70609783094,-148.096950543342,-138.981398850174,-113.929851100976,-152.071818639575,-132.99575757888,-143.714662072177,-133.838299404963,-136.019977502662,-131.739356505663,-134.202046535831,-141.808727265969
-114.522682084153,-136.955758502387,-96.4698870263352,-108.526541033608,-128.885241870077,-63.5827114328569,-90.6556268759512,-93.9883716211784,-71.3986561968339,-81.1152205294177,-107.927943380769,-40.0320269998547,-67.2426608058415,-96.3073236318899,2.61320561432407,-65.730271704821,11.3434258533346,-7.69674287474309,-43.8863121115829,43.8093409421935,5.16349101574349,78.9898969877852,58.0639108252428,-20.3227382386316,131.754354948358,50.1965235810803,236.998724590305,140.769922639148,-161.155305764242,215.834530247576,-126.629457049282,-408.115952143302,85.3060953849347,136.357042057587,209.629180508041,-148.354952054916,-22.4658653189999,58.8770083749114,183.839217810314,15.6248919020481,-88.6162821307442,18.3556983161869,-35.079556141816,-97.0840706571811,51.7862270424313,-190.333406493544,-162.289558617545,-184.926738004973,-181.382033606236,-162.939556934089,-196.621552275711,-181.776942609103,-179.181501730422,-186.882388102402,-180.864553369048,-162.399793952891,-182.012075170105,-178.339244727277,-167.187270431079,-165.923179266642,-173.707856887237,-178.014509935745,-159.505542744483,-180.01922342812
-98.1690980145333,-119.435650327825,-83.7213750339172,-98.4131337484498,-120.08811500935,-52.9397871382698,-82.1023922931254,-88.416994293766,-60.1218649315452,-71.8340356963738,-91.0716999625654,-25.5207414062757,-55.5771876071282,-82.0991656643979,17.4807088680485,-45.8378694765538,14.6951065840528,5.02272497173563,-26.368514990601,72.4384378452445,16.2223829776173,99.9806547276776,75.6365081170646,-22.6813212211588,150.517243626944,19.8069260333478,244.87059124624,112.264036334751,-289.0494536619,199.036390357758,-453.596389213631,-543.571961000276,114.04489840238,124.832293426626,181.289954463847,-201.455850895182,-13.8566290042211,42.9725678219797,186.015975547645,-27.9697720597613,-109.328804238443,-7.41946580931765,-92.4239989848817,-136.52211312018,4.98570823728846,-172.085544515213,-162.464290783707,-170.543633162733,-174.113945335715,-162.04185376268,-175.117754760258,-173.738811995058,-157.272425707567,-168.638521461631,-171.217360791617,-152.386988994006,-162.027358305444,-168.988756012632,-154.448300841864,-150.425111451549,-165.21027988475,-172.600645917298,-144.899385035529,-163.435487184447
-79.2665689850672,-95.8397468012023,-68.7585862229664,-84.3646450629448,-98.7744206880659,-43.9096370982343,-74.2599809603936,-74.4254350181959,-47.0829408244584,-59.514409416721,-75.4138617666875,-21.0725812214197,-44.3721574864158,-64.8173392057042,22.9496255862735,-24.6518329987011,19.374178845148,12.9007792904846,-5.96432886193762,94.4958534831077,22.2472311762279,111.575262088357,88.5686759229464,-12.3841972820916,147.743609924141,6.36719187121275,218.257027803162,80.4671226605772,-343.995897811379,137.136895165939,-727.381476187212,-534.722785598984,141.676488274053,127.969952545955,96.9257445227739,-201.090832006762,23.5233400630709,38.374200448738,180.217373563387,-57.455765092996,-96.1229853204132,-16.0117782743847,-109.147932819113,-138.093808824191,-18.7151366813505,-139.947228501169,-144.443760000151,-140.009092919581,-149.394971131647,-151.57998061837,-145.491003511598,-149.557272409618,-129.326531443642,-137.145842418019,-148.064736481754,-130.568437346214,-134.964054096411,-147.484543339836,-136.982915841243,-129.965179540898,-141.524350354586,-153.662115898495,-125.095234025572,-140.000427297409
-95.0950796873346,-109.334359255301,-83.1693683836964,-100.460456552633,-111.198551407243,-68.2732268576924,-95.1059196072263,-84.9036986291953,-66.6073435334016,-79.383197683655,-92.8786248338216,-51.0566539884946,-67.7855680576343,-79.9572584491911,-5.39762759668169,-44.3837488075287,-10.1610194495969,-5.99833486846701,-24.2353165560534,68.032842431424,2.9264018000232,75.8607761680712,64.677192700233,-11.697888016848,97.7205337202329,-2.56184571414871,128.154579372079,20.7764417485225,-308.080163835017,38.4633807294195,-741.151564924481,-347.511545852307,111.514162786376,98.4140112230979,-41.2647402802558,-162.606681039354,27.66499763674,3.86122412362433,121.250613064046,-110.653413206661,-92.3456148820538,-48.0261191581315,-145.053212515606,-158.763566453981,-59.6789322452066,-151.293877551864,-164.832744398433,-143.176405507775,-163.302816980121,-176.537164600817,-149.910865270414,-161.600845333137,-134.767705045764,-142.892356603454,-155.578223208524,-147.661620811524,-140.500789427771,-157.659328281277,-144.410030094895,-138.979988779082,-147.043876069652,-162.826687187471,-133.704207715684,-152.262586998698
-125.774214119479,-142.780820019674,-116.820430946056,-132.063747511304,-145.177445476662,-102.161767831502,-127.727014890574,-113.465104352426,-104.827581256449,-117.592477718841,-123.806597159789,-93.1107301866498,-109.474116543136,-115.407849205126,-52.9886899160057,-87.8793751255136,-63.2092454465589,-41.2421235248381,-60.0323102014874,23.0557906391612,-18.525869526338,18.280501682706,35.2961253124242,1.57307492998392,37.614228369345,9.41157573092046,13.7108493035538,-23.8156523145149,-168.55115286627,-4.06221474070071,-477.910406583868,-49.6517898629069,57.1129741401478,37.5050993366467,-122.4800209076,-64.1997916462876,12.8060199523567,-32.0436042774494,61.2096304615995,-144.659083743554,-79.7213224462638,-71.5690070312799,-172.372820828227,-182.309946087445,-94.4666777494744,-184.583023687108,-200.310554097228,-168.749646081002,-196.515889428989,-211.004271772572,-172.374301970242,-193.021163802958,-158.998584240154,-169.50179190854,-179.801206286896,-182.779532189045,-163.557430956306,-182.724629359092,-163.880275981604,-160.713278593252,-176.274627907672,-186.920922063261,-157.197540497798,-179.987739237733
-133.800797428923,-154.070114918194,-135.919196699383,-146.680155198939,-157.073762527933,-109.668718948452,-140.313823129516,-130.852519117035,-128.14701818986,-135.939870315922,-138.235973642076,-118.447441271147,-131.337442944891,-138.045841624199,-91.1847752930967,-111.259335720595,-98.6745525011305,-69.3300962287071,-66.1103575090245,7.6711766363157,-11.9606652437951,-14.4340021060835,44.0702329501568,48.052688343717,26.2127840703143,56.7195718866473,-46.6078653795475,6.1523365638493,23.9826455586488,87.390052171504,-100.738014276844,192.074401303406,59.8751118249694,-2.17112035905481,-48.2950933920093,96.4615763727185,36.4366553356358,-13.7632536712531,83.7978924507319,-84.5734917215629,-14.5607052075936,-39.0490800452641,-119.187103546964,-143.576535364716,-74.8127805077908,-184.815985106273,-193.99438871114,-171.946800976662,-194.614064866197,-201.872070378409,-174.393691546334,-193.437988419169,-165.260621718149,-174.273120421043,-179.637940371212,-180.656784342847,-166.800024198244,-183.038065719219,-168.437983527357,-164.512329972823,-186.542991947387,-186.589704051737,-162.746647017646,-184.213057034875
-103.309748319659,-121.918789965477,-116.900620686995,-123.263043724006,-123.311055140767,-84.519801614189,-115.964758294827,-108.703455620663,-110.684888686031,-109.780195915992,-115.204034926086,-107.912412020405,-107.400783597344,-115.920560283752,-85.4363358159954,-86.6613277935949,-87.3131226731715,-55.6208154887351,-23.7230165060293,30.5853587147871,33.1978736548211,-9.22932874487562,86.6725222879586,114.258870788883,62.060196642177,118.197701988305,-35.8349670406631,70.5183499750521,137.601275316783,196.713775714157,209.500560601719,297.393923696234,140.878043781001,2.65634072131204,103.421321455018,255.659798460087,115.65359924479,69.1356029893092,163.861785942272,55.1786920827372,102.469063907708,48.891676351924,11.3492086787953,-22.7356615224239,9.78232170326291,-129.973174882089,-126.794110490905,-127.262422805784,-135.012638320963,-133.867537160434,-134.463723620401,-138.293467402578,-135.842635648294,-137.460204439268,-135.625415218578,-123.086897844801,-133.241027271775,-140.060578093496,-143.326130798311,-132.048330790686,-149.494936033381,-142.205475470353,-132.044800419195,-146.436041138297
-27.9346775785402,-38.8957578573765,-44.16288254899,-46.442966308189,-37.4630654639644,-20.9789075882443,-41.0934753569582,-28.5891908126921,-34.5312644098418,-27.6084224539508,-31.4881775956649,-36.6491616622563,-21.9814941950837,-28.0922179723871,-7.31548335189625,-3.69559789242244,-18.3348690900307,25.4292880158282,60.7407493243647,90.4798000090562,114.800310234454,40.0590981966177,132.741148612999,171.856280556328,98.5900605066186,143.955481794456,-6.8246821878707,50.2943402874768,102.015348042594,124.038245349102,359.26111390009,346.252228338958,255.53291415278,19.6628213266099,162.774480634659,353.993341603921,222.074435352166,175.281138032684,203.280879732481,178.102674090309,232.536974229129,157.405987860778,147.048238962199,134.75818639631,125.413604584255,-30.269508085157,-16.893065607647,-34.7768413402152,-27.7192620679572,-22.7322121476783,-46.9768546707834,-33.2487264064389,-62.7394435381848,-51.5840443116785,-46.8115372715842,-25.4243796846704,-58.4606713571241,-47.5749471407846,-73.7154070417735,-52.1056323893454,-59.764203766535,-50.3820506868595,-55.0443247803992,-58.1473296387605
86.8548973474205,82.5460352558618,77.8937509128307,74.2549208740883,87.1954133171646,87.9719522577758,80.529715202378,93.8881425083382,90.4931508896877,97.360389074255,102.09520337051,91.8974649333088,110.04473014815,105.136608604954,128.67497463379,120.838616096363,101.82860914693,150.21391628684,166.228941834636,186.325701360252,211.039383794073,146.786314227735,160.649839144736,192.565024423432,117.75633442706,82.513589702497,2.62942548693008,-92.5721758623829,19.3775790591571,-118.747349674546,368.72359129283,402.7884476933,362.267354042052,16.0832709800272,98.3511195661618,396.853592236328,320.884871004945,250.127127994678,166.488374556825,221.14745938847,340.563251658501,241.709831668329,227.795939199053,259.748166731564,208.745817082703,72.0734314393179,91.7615710365958,72.8303911699025,87.3919105394172,92.9811098126373,62.6648239456272,83.5833064425552,43.2235431660745,62.1529253424238,62.751013141898,83.3280740058733,47.8539853702276,73.0418371461501,38.8526369459928,60.8778455261371,60.1506550407369,67.3490957897239,57.5210688597478,63.671072885232
206.011039457593,196.92388701204,204.427838941951,191.353453566489,204.153774574878,211.555169315623,203.684985457929,204.992139531874,217.574490682123,216.553809654936,222.503047060123,222.374858076094,232.020325324308,223.72948563404,261.808463909706,234.852772278392,231.092232108046,254.583151074629,251.738868256026,274.011782956456,271.325261307398,271.27354638409,147.726271800347,157.460233084202,119.79742128176,-82.5472608952201,-4.24499316395451,-230.71177671005,24.4898963142425,-293.536133786853,315.122053512582,400.481397259892,434.55804653238,-5.92377088605332,29.7303144255822,400.372602836914,374.197500488867,263.691797889922,89.5342321541824,198.653140046105,392.874656974173,265.247841010131,228.451849945695,298.72514723887,206.037494959964,117.858389086817,141.027685652247,136.66832057122,149.548378331722,155.52878560117,139.255386384101,151.958896200588,135.825972164264,146.202227131789,141.607025866285,157.605877272639,145.917182797375,161.722918426517,150.887237435623,160.411284850945,156.08919962007,156.786689296578,163.653620101059,166.324741739924
278.653055000599,258.577292395556,277.682004969254,255.453196732832,263.607977450353,289.989595748971,270.208182708079,257.134943847124,292.401373365852,278.490189640602,273.010844768304,292.970522852182,292.790913479765,277.349772442939,328.058689181922,285.828059402278,302.513223617248,288.350524462251,275.506011502461,282.949034511249,257.836465380634,324.37229747877,77.4722373707075,90.8765374709872,86.4721602726354,-272.644691295213,-13.8698606743754,-209.402760992315,90.2301911681785,-248.988909103235,229.56934055577,272.217225086989,433.976764942228,-25.1315641453541,32.8026320308828,343.05970770474,350.173318856545,213.642170451903,7.40707259771902,142.601917404945,357.682216892548,222.867642902839,149.151441770142,241.942938293073,126.142162919455,99.8152977676725,112.336219236089,133.057430112463,135.615806952236,142.477152940835,156.794044878912,148.77948938932,177.837588818652,170.1233007245,159.164870448292,167.96859792184,195.151693737664,180.531500958779,213.141463232771,208.853160427028,190.527696367985,181.082058361811,225.639763576491,207.923772656949
288.383551797217,264.575923440642,283.638116710542,260.356399386815,260.073448039741,295.998891212572,266.518601442205,253.188726464703,296.393396475978,276.910012785757,260.117876679996,291.289545324123,290.218679303071,267.307954649199,312.010445184314,272.203501969868,287.929806922416,259.063397084756,243.147613672427,201.018994401508,205.782085821669,272.73510996911,-1.24789782051262,66.1890415389009,31.177016308021,-326.086739512016,-5.93492842916827,-46.688285319548,114.120440887645,-100.456176670155,122.039807858778,128.388955765174,347.02838848527,-29.5166717225351,60.317859012024,231.667212375747,272.212654419082,115.952489446254,-67.0422125869406,65.7525345761,258.655557373241,144.291460921716,24.9972060188713,129.6835689705,31.5025054675822,86.0366292161611,62.3280272001797,113.97427742729,98.6020891362889,103.473895735369,156.881440820494,120.395705774482,192.396154420366,171.068384211876,147.393462417974,146.960318533966,206.020994939236,165.376842516956,230.371358249756,219.012227853135,188.037330671534,167.971041127335,246.680685059871,204.060161335809
275.047705719107,249.817430489508,262.291336038894,244.182787566039,235.906106187857,262.461072013298,236.554908844694,234.825750747057,263.825239895177,252.222226771851,235.484930154201,257.613517459731,259.083461933925,237.44501807382,259.710335036551,240.414374748987,225.984013000432,217.202652079202,208.429446775734,90.1802268029899,187.23737073289,162.197475515393,0.858984445153103,117.46164453557,11.9242779305093,-192.409239894338,34.5826544006959,95.0095882602709,102.774447829531,-29.1967791382497,70.8005790886387,152.953569755102,229.222801700736,-27.7813460643576,48.9817354899418,148.494026459285,206.894907133147,7.30970007215827,-131.980485947451,-16.8821853252894,176.392620056703,69.6343503901604,-88.611493092348,20.9647326941199,-33.551098404762,136.447755039351,60.9185466342904,145.639579165383,110.297974683457,101.964521580736,195.953944515461,127.490078543883,231.033005556173,199.322082943356,163.432424357492,154.335456423953,228.62602903174,177.087908293969,250.202551974997,235.415925109539,200.654642759571,174.861171705355,259.737264171791,207.022156800291
276.845659152176,245.918362069071,251.032277243605,240.376187446017,231.040985954966,232.980839989307,222.750354558237,228.351543719019,238.760448766802,237.433125558959,230.783513090526,228.901793309572,231.514062254544,223.030724020824,219.855675324868,220.009862424087,164.159509482591,190.409754233856,200.42000243809,11.0500218383068,202.222109896118,29.1731347496629,84.9567777870435,166.310788971629,36.0537755026023,-30.6872446958898,75.457184962423,120.871827797755,113.577781716878,-39.0347492054332,134.079126917761,314.394349856198,151.891478798904,-42.045795074681,17.9260587789023,155.660811236923,183.557302301838,-65.5266388863726,-181.6308664259,-64.5584999077669,160.164075708698,25.9043961626925,-144.50700234606,-39.2339131564171,-67.5795598182,233.512125638489,113.749327761496,225.350014545107,176.838650891993,145.256967246681,272.678240959032,179.227778023866,301.199705357402,256.956462570293,219.782495199743,201.559235003595,282.584404322157,225.334068678546,293.29512701584,274.927047379246,242.453782410509,218.70770457868,286.014683504881,241.50383860003
279.186864550162,251.798945211637,241.904743605437,240.855997613448,238.45382790759,209.844680609368,215.938031343337,221.102797790255,222.215285097868,225.342662049599,231.598923659882,199.332917000474,210.618016569152,218.27281319335,186.28533881928,192.211533493622,108.739340942428,156.213287638669,185.432375706629,-27.0465721451771,175.532393119408,-119.39871224442,144.357955471534,109.244622628075,32.1498293459517,11.2561733326179,51.8643562337901,63.0157962517728,125.298796679528,-40.2030763207422,226.303418612758,409.6774373255,117.312994644052,-89.655032716622,22.5930456471023,206.713054940153,175.620883784022,-83.5223060450025,-198.591672005029,-33.8852560525597,180.292518936909,16.805072444663,-117.41156772035,-34.1017432177628,-73.5136201591657,317.251659100456,175.898560918887,296.344308721741,243.229378247008,195.85023852277,338.6181369719,239.021324408762,361.347314155618,311.750052632337,278.059441161544,249.230213804569,334.001943455281,272.200926163556,334.160472573911,313.080603359402,284.077665361596,266.135047581561,316.506547445893,282.570671288207
255.846926592552,246.116124695698,214.234376087999,224.53575845723,229.199705977677,176.907139805523,190.454332789295,195.487040502238,193.636543235741,200.027425093589,213.442111864165,157.880048241026,182.653822640093,199.383938568716,135.587620784241,145.597685834085,55.5909778506894,99.3311858386742,130.373246797296,-46.2265412752308,76.4233879450353,-233.721056186613,96.6920256385351,-37.1237520372121,-52.8537396844716,-41.9237637422561,-37.6767699439625,-53.8532564543961,92.1513027022575,-31.1428382374356,214.49378530568,379.995726650217,64.263652811848,-150.32223683094,45.4289226088273,208.484991222147,145.806691789357,-86.7202031106094,-182.410140027278,44.4312446198564,171.156505775012,13.9355281829104,-48.1924206624551,1.22053807605174,-59.7970041025411,350.815391243097,207.112116652089,322.344806258532,267.575531240753,220.590559521024,361.85755917147,269.900430952782,380.392989935429,338.232051310155,301.488065356733,265.116215874109,350.06813946001,286.372341892498,350.605165588098,324.693040615536,299.819466583463,282.249688928893,332.533991850129,297.45684932984
219.120245347927,221.483054180248,180.576918204863,198.427959400788,200.724654989994,142.935032648284,154.131562907546,161.086263639187,159.471443935042,168.525652895727,177.271826408873,123.082352859951,150.201152306477,164.143935317693,85.7524325514687,113.606917266233,24.1074508656304,50.7981181426496,66.4208713224819,-59.9053752928076,-28.6885111158874,-241.258534410785,-20.470277690715,-143.369490274865,-186.211769221803,-94.9334429791456,-99.0865826146249,-234.571822286355,53.0750218318387,-30.2646116657983,103.22291261407,334.851872274137,-35.2627794424282,-162.315421992397,25.2554527863769,136.827763516465,83.0052669671335,-122.808038570506,-157.320007031459,75.8153274234646,101.105353867387,-16.5254783110359,-26.6271164132942,-2.41541506829781,-53.280700154414,339.609116670163,199.23127725795,311.657794376054,256.820409818473,215.905074229663,346.917147196924,260.788391333577,365.320720769995,329.869254677435,288.892430791413,253.375835907853,334.192772451846,268.600344665284,344.053671007171,308.985439220679,290.629310482898,265.967574225192,324.158812959653,281.38526237088
191.876976421398,190.040109981521,164.585813611378,177.958263615019,168.412997033989,125.283460271021,128.935019428725,137.613677054151,136.437936795705,141.692569308845,140.932078666086,107.964770545903,128.171898304888,129.935444687397,62.7770312347177,112.81710783904,20.9279415111499,34.0176903714924,42.0824083107662,-66.6108121462121,-71.9077139402869,-171.415066402824,-109.901483013241,-126.986000684606,-289.109723061964,-81.8265518685861,-68.6158615072038,-395.156725056664,93.5154788629455,2.7882900141188,28.0761917420672,334.316340264445,-123.387632497285,-99.4541662123499,-23.2663385523579,61.8654383569687,17.802451340239,-162.448242819018,-132.540873188907,47.0031663217216,4.61483541622385,-66.2937254167823,-58.0701078675623,-62.7155702983491,-54.7944854650593,305.839450798516,175.000277568948,283.685706313722,236.234513281527,199.538773098854,306.72394531924,225.897855365625,329.164764477213,292.733258579248,257.415215252,230.652105850773,298.86313352541,235.698318673289,315.544279038295,276.088122239623,263.922189907584,236.509318103255,287.921161441492,248.2743449044
168.441672070004,159.652089901856,154.278086647506,153.013574056178,137.073633164687,116.743375883891,112.510595342567,123.387094409029,116.122223136442,112.808868187173,111.682435978036,94.1558329455183,110.996768995415,101.202276498875,48.4268826869681,101.880411428539,15.0981099279215,23.3350494613476,42.7409928409728,-71.1733861396081,-73.9614173640593,-133.536123551718,-139.223225416709,-46.1188424213966,-310.1700660527,-3.87762544827613,-4.15825238537162,-415.552683824608,209.377580840464,57.5699595550126,53.1044785764232,335.236852064849,-139.487428706766,-16.6949091168084,-41.4888746408764,48.5790722444846,-9.95483173663311,-138.607603324948,-101.730123995564,47.7953909126727,-58.5560604839421,-98.8065643837694,-50.7094365482773,-124.673821817721,-30.70377833382,259.894558972316,158.720290271185,244.603611453974,214.425699595961,184.027536827789,248.519767069771,188.278545127109,270.176182682612,238.808727172065,216.607679368995,201.85587420977,246.462174589189,199.055430669466,264.277882160766,229.683542298599,220.406608080605,203.793514462894,230.116925781712,209.546366423056
133.90917239242,124.252568664759,121.551459426623,112.252332463593,104.064981879127,97.9000491715023,87.0796717255235,100.646332003143,84.1608285169319,76.3395339538841,81.6563792506194,65.5620817588118,77.6758417910417,66.9982044668298,12.12633860186,47.7885174421948,-15.3274414391843,-12.2489087187091,16.9534741671844,-82.8267537321388,-94.6686480249244,-153.608609075973,-152.175505263981,-3.30883019282094,-260.293695454398,58.9005157615444,25.5583638665229,-316.074066405286,282.370060156043,74.0529790363268,79.0406516629411,272.664754701172,-122.914248381586,38.4996812726278,-44.5879952758677,51.1982001015946,-12.5793552186878,-45.8818988379582,-74.7769493492917,97.7978696147174,-77.4014940671189,-103.291820126716,22.7285681506426,-144.189822023139,27.8030159631581,200.7916120176,146.853623660739,192.067945004919,182.31769602962,164.761475041428,181.356570795081,157.431076023314,192.413468756461,179.859071584548,168.939705756877,165.757096884229,180.411903129939,160.018129944745,197.986761647611,170.122915619565,163.121823791134,163.816167888452,166.606830105182,164.988026628898
84.8267637351691,73.3797815916809,65.6138329320839,63.3608497080423,61.0317436032997,60.0592742577062,43.4838435465199,57.7555951947176,39.783030191287,34.3969242200173,38.5417846274084,25.5768078058836,22.0316607934617,19.8381789685662,-46.3631839944388,-29.5447687312901,-60.9111586039926,-73.554725115014,-48.726597326884,-104.287311544234,-149.416244638406,-176.133935877606,-187.08316612232,-25.3928087141144,-199.139037273883,34.8830062364729,47.5596777659573,-228.873708619303,213.096820007707,61.9059441338076,0.608574828347964,101.119601292622,-183.615778210432,85.8492215215124,-101.980699460176,-46.9557493257717,-69.7340014629936,58.6222052659468,-74.2069301562624,87.9439401775886,-119.855333320726,-120.807914011291,63.3067483155407,-150.242141423348,77.58092137906,123.590372133856,113.529270702981,118.4313759691,125.204391653375,123.604252236243,106.314425503217,115.331791523073,107.756674034501,113.687331965471,109.939406289417,114.384915483823,103.298023885352,108.75060522408,119.089723711315,98.2145215257491,94.4525353005853,106.784016203212,100.633031426261,103.693553372882
23.2823916417725,7.69317960039248,5.93933088885838,11.4459098654137,0.761446343112818,8.75271135343872,-13.1441177239713,-0.0888835666670759,-13.5187436373232,-16.720120429292,-19.9588480890616,-21.357861311416,-39.0916035108499,-38.6560979204834,-106.31779130605,-98.4050742363511,-109.14161594115,-140.89959152428,-125.271505468581,-132.840872821751,-212.079170807106,-179.670580560662,-239.758391556312,-74.6769041097119,-175.030395625217,-57.571077158914,101.835122860383,-226.933672686199,35.6620791895538,47.3036952822967,-146.529941393485,-167.370499527947,-363.155287854564,133.223930623224,-227.087456566206,-281.765145301773,-265.648181144392,98.7957657871819,-113.561922687639,-51.8805708387501,-268.10218075023,-208.145520180675,-27.277190877622,-207.311366880378,55.48193497995,28.4866073515892,43.0197081987151,23.7138610151488,40.594138382816,46.8140521165814,16.972891114314,42.4927660202815,22.1542262793535,31.7477400887467,32.0992312069575,38.5732229980297,19.1373868340129,37.4844150617411,29.2259242493893,18.8427625320522,15.7304217994221,30.888230035495,27.9699256063974,25.4649177813685
-30.9269113414486,-47.0713919467532,-37.8089463308359,-33.7737774155978,-52.6847669611439,-38.0963596210782,-62.2795849447849,-48.0112465270087,-59.5265938069818,-65.6208519035387,-69.4766774984156,-65.5079801511974,-79.0631896439089,-87.8302137789648,-140.093850775461,-139.521649554296,-144.798478534867,-181.009436187681,-173.072100619405,-145.578226540002,-244.267575319604,-156.992712579323,-268.472480262411,-106.779315423947,-167.193553396804,-137.550126468732,149.646340369471,-251.118224201733,-119.810485876377,-15.1833843262741,-247.733747841645,-423.41994005317,-554.462582172306,142.437215879475,-345.770761006787,-539.774337178269,-572.317856195488,1.73936131582227,-170.195291038176,-243.760243983612,-506.643271935324,-352.457127042702,-221.659192185072,-316.607256539376,-64.4563414298949,-50.0412743010506,-35.2599143524086,-52.8894196810143,-36.0219419684095,-34.4202177617542,-56.5452605059544,-31.1790706847072,-40.4712529467934,-37.6957884768905,-39.5131392418535,-32.5868277437161,-40.8512736071246,-25.7670847257772,-38.4817329733333,-39.6350379568693,-47.0314446392564,-32.9528059077261,-27.079324404319,-35.6583704974114
-49.869835174951,-62.1436463517169,-55.5408199261376,-52.4092363354906,-64.2788621686729,-67.6871176964175,-84.0858516159553,-65.4959673966615,-76.9548662720139,-82.8206536753492,-81.5886895094307,-90.1462314132673,-87.8402122658119,-100.706220549088,-133.89622212691,-141.563659385919,-147.950003697879,-170.19675372455,-168.279062985762,-109.111318390963,-215.25481990695,-79.0879293413356,-224.385135756017,-97.7096901115288,-118.005862222678,-130.487197315297,138.864295160347,-176.464950049345,-166.67219326343,-136.279100499929,-255.18135309143,-547.74521170822,-619.350523275626,119.34474093781,-382.794995144994,-689.067509780665,-829.462201843051,-240.276928348632,-184.746551108196,-387.642694199375,-724.997413081959,-462.85350038258,-413.069867359023,-397.022615448707,-226.284467899968,-55.3116220849305,-61.3200749521941,-56.8612384461021,-50.0541358341002,-56.9554931163977,-57.2925657570246,-47.3850302002142,-41.834131932569,-44.3268059870464,-53.1067846187322,-45.210758040795,-37.1474388229191,-34.7560898545524,-44.3702378782369,-43.5391201374996,-53.8491708770262,-42.3019729214153,-33.5347346646437,-41.2922682603832
-39.1502507361806,-44.1790636307473,-53.970343332531,-45.6330560471502,-43.2205153297853,-82.2593227500946,-81.914999389584,-62.0450720643468,-71.6743871221042,-65.7460761752124,-63.5282853259839,-92.2010376560794,-79.1718286569226,-85.293963012209,-105.206215477753,-114.668086422564,-118.275733121121,-120.720336428696,-123.779294877093,-26.5909542362543,-131.961089254988,50.6469545374955,-112.203739213831,-54.8098109738326,-10.7237850474021,-31.1212418440371,85.3303348776522,42.0778143216505,-141.576352175358,-208.157146468914,-228.533663573708,-550.256901369473,-573.074022270602,127.135771376355,-357.667289420132,-739.203502090363,-912.229957085846,-531.818588833824,-142.139538670047,-502.93148821103,-852.61775018011,-499.817711609922,-576.850496689273,-419.128100984429,-338.499138481895,10.1894538757288,-24.7078678613012,0.842502781130076,-3.74805752958932,-16.8538790950157,8.07043906264458,-7.40197255726045,7.71327517452893,4.64624589220027,-8.11572145602287,-2.94024740283381,15.709117735248,4.79908112294758,-3.57151144759657,-6.45721533034843,-9.9681825241594,-5.967660455107,-5.5855430376418,-3.57811663188461
-29.5405124325086,-28.7248773318772,-48.5081882644963,-36.6774219254707,-31.6604195938687,-81.9652360931648,-74.0421798157299,-61.5230370328405,-66.536880995754,-47.1072040333035,-48.4425632033713,-81.7645447597725,-68.8791899600679,-77.7827389554904,-75.9919985461022,-87.6998239347702,-75.6600980621583,-62.0939777742896,-78.4731322642812,60.9385444352095,-36.8995432342601,183.622706649424,3.12189244251364,-7.05853326036123,117.164579630146,91.2815864005593,-2.53879595340051,301.378240176838,-134.224100620848,-154.46203805889,-256.912392482967,-527.671840002049,-547.592597811313,162.009175848408,-355.447735803524,-788.20360992625,-843.619076457887,-773.095024892417,-125.48006741851,-663.229982071993,-914.416990789425,-538.614375366441,-782.178753456801,-471.407149616385,-391.198763151915,53.5130807418231,-2.99647960387327,34.6825389247484,20.0446578207543,3.94667044291045,51.8868311344581,11.930791353084,39.3862547048468,36.1294138747323,22.4125086783018,18.5084734065907,48.7205245042017,27.275842372316,27.3699090874653,17.8794034938923,21.149287149961,13.5248306936231,12.7487466678962,19.2574894152678
-33.8248416071118,-38.5906088504033,-49.9874116683365,-41.9690397409717,-48.2498893583636,-67.0201952983365,-71.8060037676728,-72.8857081860263,-69.1992726246681,-51.2043752737923,-55.3666694165471,-68.1915077578923,-63.6312220236896,-89.3618182311126,-49.8231729787204,-73.2499976418685,-36.7880225717351,-12.1332978896199,-54.5130626788461,121.892449564071,40.7615651088762,271.880603937791,78.7692358061627,29.3570624443059,225.806540010408,185.133825591403,-184.759514682366,479.482068439619,-155.025051482475,-47.5096527119228,-349.92880711159,-497.922879092338,-568.782461862249,145.550042135515,-387.560154473095,-832.941355229125,-684.548270204318,-918.718060052646,-188.587122994792,-835.46127441557,-912.459789840276,-614.568552088874,-982.063360808459,-576.633297128559,-431.040750078288,5.62191471749875,-53.4333691055519,-7.12210137711506,-30.3432264064036,-44.986457051154,16.4487792460552,-35.7024381188652,8.62536578903222,2.6272705733882,-11.3034788109524,-26.727215884379,19.8228173312885,-6.1946095293983,16.2485696705352,-1.00665887775197,-7.09881137866356,-21.1492392623981,-2.900459513055,-7.71743913294161
-40.0436174103117,-57.218955186392,-54.8442311606916,-54.3941908443667,-65.6026424053435,-48.9523145846863,-69.4828358963228,-79.4486188138063,-68.2446492265711,-62.6750643867872,-66.2849257024476,-54.3159847704329,-57.4035021959579,-90.2291950228024,-20.0223359475605,-49.4643965701482,4.7062371877949,35.4658709168051,-25.5904801069194,170.9014367939,122.971367402564,322.937907845955,159.874602219493,80.4606754467252,331.55728626415,279.993046757925,-407.781561384859,581.909393290722,-120.798871697925,45.5571106027909,-389.231428323189,-379.954762040493,-522.178952135695,87.3676624638597,-343.019962656077,-732.018685320041,-448.616530499764,-908.611715344562,-226.696068176849,-870.564578615712,-765.235922875849,-629.014848589869,-968.982910715539,-582.798925343124,-420.561301620733,-66.6830385419124,-103.15898793594,-65.7700083387389,-81.5176934199521,-91.8711390443275,-45.6044320527649,-86.0374879642877,-46.1869221356178,-50.857458244616,-58.6081976230008,-77.8228895794213,-32.6817963555902,-48.4750297397834,-20.0352490636013,-37.2135638963235,-57.0363188338052,-64.53285895736,-37.9840952138243,-47.507969727653
-34.2488657400066,-49.9079266627609,-47.6617597321322,-51.075415637141,-46.5309061585063,-31.9657457662653,-50.8378383562897,-55.3523581709013,-49.7316742699033,-46.4881992980015,-44.6146696926678,-32.8376301910848,-31.0528737397168,-51.5002278149947,26.9546552524908,13.3392722743861,74.0320630385277,112.399664411292,53.5588986997925,256.555339501045,255.41089643141,409.595076804157,332.798161448311,185.7532461331,498.142243613219,421.651836105358,-410.395062270154,683.957632370462,13.6978988719051,194.429442156824,-228.03845334264,-164.87880411365,-351.612408149554,101.206408008227,-137.941318031647,-395.063226709946,-160.08942326456,-703.657934257296,-115.907364843435,-681.085773388927,-445.184963427707,-502.883314505143,-660.455980615775,-383.55456973879,-282.326081675888,-58.2356653091838,-54.8012984811568,-57.5845156308593,-45.1152362452945,-49.3330934767351,-52.4461903812338,-55.8329746716605,-63.3248597749694,-51.266232862746,-45.2702800946547,-52.1109192484589,-49.5743572754721,-33.3633699761753,-45.9208634957665,-45.6782387570064,-59.1523020430286,-49.1448047482728,-58.4503649373769,-42.4129207475811
-5.97203539304845,-2.96166106533304,-15.0645186542253,-13.3054382462514,13.9331444536279,2.48006162375483,-2.61056390331725,9.98847354875424,-5.48556783510435,13.9763068159019,26.4373939651406,14.6072831984815,32.7545528851547,28.3086950046669,109.762804956395,124.578969889902,184.439729335299,248.113341000836,195.411058247269,402.336878622338,450.751561711417,573.553138817294,624.210909754994,347.962716822119,750.170313242964,603.833158606359,-39.7148291804628,804.911141847834,207.153340496198,467.118750463411,129.967047999068,39.1600319470428,-106.013299272525,231.222702663903,174.709796599253,90.6967734181452,152.786295674203,-364.151665736918,111.647189382588,-346.316771487223,-43.7524567444563,-259.227424104575,-224.556256550241,-72.1830796488557,-33.7186856530317,22.8362895606326,63.5353322983731,13.832639198578,50.6927125665705,57.7773976381729,-2.58679929670314,37.1672551637798,-34.3519521342919,3.32547949024976,24.0430971847,39.5107410512567,-23.3629232090118,38.2027214478374,-38.3063492819647,-14.2774503107362,-3.96926027304074,23.5559907407809,-43.2729410135812,13.0247487839689
51.6556687134578,70.7690829117505,44.2748211337444,60.1758807123209,96.5692613233969,68.9802282576276,76.0761600169936,103.818774703753,68.3217857366526,108.516068699674,131.49744085959,98.8636807395771,132.094599572287,137.604467057657,230.723408636331,269.736463835631,318.103378552313,425.992996598825,376.457177558844,578.973218832793,670.368684580939,753.095958647395,958.949100506663,541.212854459207,1012.50621961046,788.510400634155,511.315818616736,900.732474576018,433.759680029499,768.476029085934,500.946013769926,223.641440995433,176.592217252927,391.829064420245,484.629303014196,583.627846732346,483.364506852672,23.2404640248288,344.421686806308,-6.97845425575763,332.036389543439,54.1466374659313,142.714733870867,202.827565077637,248.109662091302,95.2138262909818,155.611428273497,86.2526106616349,126.36696133243,147.445153911162,53.3477188362208,117.527194932861,14.3114092022027,63.1675147798799,96.2823119724462,127.875181552275,22.4979033686375,117.008247301635,2.76314736616479,37.0628826889723,65.9576962984986,101.561239622155,2.38196577041039,83.5471643240434
121.303911004673,148.537144863054,113.777443156929,144.408387912906,179.860415512118,147.513702126532,166.284092122179,195.697155454085,157.899933305447,207.95515708318,235.104378897244,194.53132153437,236.623688159746,251.032947250095,353.136785387625,408.193220592147,434.452451539082,581.310323623186,550.032714921584,734.235104952503,847.574312271071,848.35769399454,1210.96238345099,735.819389418108,1157.64044975485,955.545414291564,926.980459325655,911.387352712099,714.041366963763,914.777086467272,748.628310782472,528.03044883157,441.516737362029,482.067030187888,698.066093050912,1007.31342875205,750.994130110907,408.837046549971,511.751511098759,256.793134558934,608.692142864318,370.645166062004,375.440799836869,366.819742111842,503.779607360996,117.735323357381,182.445212797667,122.724222713025,155.663732206149,182.59372865582,87.4590457098196,153.4691535435,59.9111521157944,99.6773230248144,140.358732770878,174.577724766984,69.4992799308908,167.421505790575,54.2186556307614,87.2797554150905,119.893797145422,152.36549809464,58.4397476209267,141.104252846146
178.726510097006,216.205365484279,176.882434017191,211.625523266282,249.068214746565,210.927487892173,242.172548277028,263.363880764883,234.911080623706,284.038873974279,310.375455078319,263.419713701751,311.341194990633,334.835754501148,429.780809048369,496.20565232845,497.044666086499,660.9241433251,661.609092892488,819.96639289264,934.829313538093,807.644309073831,1303.85191925754,895.868824094383,1122.67167801324,1119.14665428824,1032.75539658868,819.111427818132,1035.90416640458,835.661680743994,992.207202814559,966.22574233037,563.965595742828,461.186142245137,768.786335703694,1276.41769126855,812.20427447333,755.680930168529,588.425524844508,438.061632021505,761.960055117418,615.122807773792,501.576755657609,421.473562906905,696.289090628407,113.432843467187,176.300146118752,137.222872550307,163.498329062938,185.690689319155,110.35606398463,171.819611992942,96.2223036459644,125.034360330701,164.019005262177,191.891578962944,110.899208369597,195.349017131691,101.8907468945,133.049790065533,162.403608285554,185.831289183259,115.852226583997,185.836868782768
231.688785626077,274.113294684068,235.053803410146,264.118196194355,302.329807766109,259.311226241027,294.690460822116,310.845762190709,286.685521725003,331.821249536476,359.314732584772,300.66626426386,351.185686271038,379.956303472695,452.40362743637,525.532241509826,498.79030102769,664.859319817882,686.431517204766,810.978672005194,928.915463954332,661.167465088421,1248.35645177322,977.483031280113,959.349029063426,1266.06162930237,826.375551448663,691.578705575008,1306.33226565984,636.45355704072,1382.90817936485,1294.17749252982,479.503402359765,309.272332682823,734.517609971469,1242.59235160802,620.454240232781,1049.34640998766,579.648841576648,556.623547171125,835.590445029399,786.038928017116,572.941696310123,425.927380631449,825.429624660489,136.766864268093,191.744170046715,172.28096938077,190.934870332449,207.284808770398,154.815678298039,212.254124958836,144.092357451249,170.320225537065,201.606852177415,220.672923835551,161.483019989673,234.41171372671,158.867844636522,186.569542633363,212.597685523976,230.802814235782,180.125108796641,234.723623057493
286.473977875693,319.405334174183,280.475850237516,307.819468765319,340.394148864714,292.44527935037,325.394978571306,344.31663538283,312.613980304722,356.542158273263,390.054627428393,313.719555453898,363.589055062776,399.398376948992,436.043061351194,512.176528084554,454.680306708769,616.598670823364,645.644658108555,724.298253813625,850.326537396434,501.035283885686,1093.33867782967,953.326534529527,748.154392918121,1315.22663475385,420.160313667973,610.099985557432,1382.06279994913,431.176762090489,1740.1794197468,1234.6910508081,293.314911969516,31.8468019263574,639.452205782668,859.742992203041,264.480598391487,1314.42604967594,497.415765928728,610.787360106897,858.342722657352,950.217125139252,611.072439266926,446.220750906496,936.01773945798,215.879535709606,257.265052627946,248.086514183935,260.949657280919,274.988587054517,234.787376065389,281.839070918559,219.214184752927,244.863696790359,273.938688289052,286.031997350177,233.683158665842,298.764195742893,225.556254622171,251.321871676075,276.545640047879,295.238156775652,244.109025618081,294.040938294661
318.995326351967,345.626620227431,293.40112794187,330.99432090153,360.890396218838,297.005611996707,336.354348917791,359.583145834564,311.136586004198,359.521460059866,402.171953264129,298.735594135384,351.843654192328,403.680011475177,392.030860974744,474.247940494766,386.751672389809,539.610200306953,582.690240802831,608.73703107917,732.254492627119,391.473876961604,893.428467375119,847.715363543701,494.816347554923,1205.7829947988,-45.7469276519126,569.521018149107,1168.99730657348,144.912383165442,1723.74188944737,739.813888652064,209.174826089369,-274.323385238306,469.517128658052,384.590552667771,-103.005894738168,1572.9243307018,340.822437597754,598.579456098742,795.037070033298,1157.38086848328,610.877471887849,515.191969216752,1062.98095073285,313.363076998151,349.050601910209,332.51619831391,348.665299583452,361.733443632474,318.734691085699,354.038839050754,293.975511173682,319.905803614228,356.958747694855,364.576258437401,303.851158417166,363.329289840753,278.721351017669,309.966314038613,340.056346094874,356.913651328189,289.272640946845,351.512129661451
317.548322082322,353.694979216262,281.567104878184,331.123594663434,363.141477342168,278.687086222464,333.736260317557,355.416616343039,291.341611525632,345.463245856416,396.543162747922,267.868193079827,330.06409459098,395.210298258535,338.90688805665,428.34238552375,317.929149890637,455.648978774952,515.006653357746,494.279770038819,593.316976236527,304.717622771102,676.075377063073,673.848859638349,151.007019728648,909.928459499481,-450.293946672477,488.79921377317,668.752120236683,-358.255203489654,1259.5500499375,-32.0099910924342,386.309454469877,-485.146630592738,228.159155845295,204.538670789725,-317.910872343004,1762.6054030799,112.236967265844,552.648970898431,625.588650214135,1362.63686377936,561.765195633215,627.10685549134,1152.20101252694,362.840601475437,405.455268165109,372.818365421131,397.749291668996,410.89607458553,361.903358465324,394.778122413833,329.103947991529,358.433776725561,402.635421045409,404.702879203107,334.970909016386,392.325109183442,303.063427792408,340.458587634757,374.599065701929,387.922852576771,308.000324004337,382.529925206521
289.157079181579,330.808468708926,261.252500693383,308.196926348819,334.77355029306,250.356586893701,312.872865339241,323.898180958282,261.309746135447,312.231052415658,359.487845826557,238.91330193074,299.916809301906,358.379768163358,283.056508435202,362.790884938489,249.349143120517,354.539122773624,402.777213571557,347.140864118586,387.079803151524,163.705779335811,388.914618453519,346.379180877457,-265.138025445192,339.799334492751,-711.441968242821,257.105300687297,-59.7187804930062,-932.357299222265,548.979183310046,-833.369860014405,757.092354607034,-580.591446012742,-90.4304941416945,348.838629715892,-227.377067250632,1726.73532903892,-182.652409018732,482.090634297143,382.072960505126,1426.2822158555,431.649387571297,732.580873934797,1081.5281279329,329.789558505824,370.00554328283,336.230831794305,364.905199042514,377.479874400581,338.796762383795,368.620956138177,311.116982115747,336.325993434098,372.330597594877,366.879542011649,309.528605407822,357.784443004623,287.285211502955,323.883842653632,348.642778556369,363.332759119003,294.710406527426,355.510375229817
234.994955997057,260.713974654016,224.98933594742,252.719024079679,263.919938064006,210.30917442178,261.831979836254,256.594821702705,218.69256450956,253.20745307585,275.993367245188,206.229497799522,243.408182732382,278.066405096636,211.198102482702,255.984949244493,169.688170223798,213.987532389903,218.50702969102,130.669734973747,82.9291804190174,-54.3685598213116,-13.4757730770417,-147.884212042901,-620.517949770275,-482.736671732403,-847.329452535129,-185.758122291534,-806.377044636714,-1240.81412622826,-148.992382087766,-1309.56116727671,1004.04869730149,-628.542539216052,-501.401882070911,440.332580291372,233.663854241513,1404.77239620325,-508.312410031871,379.17441679966,130.977369758171,1267.9585657597,224.63251854908,792.028646442557,818.964013495149,232.905002222893,245.04722875553,233.358840614065,256.858101299804,263.833807339023,256.03193694454,265.290280396396,249.537622367372,254.155531186202,268.491415736481,255.960099528637,238.037257424223,257.231394662299,227.61035983256,256.646230535768,262.924396393761,275.012321010755,245.361457765732,266.08973381358
159.344126829401,160.882891217488,164.868894971699,170.273428842186,165.361411734762,160.018109489876,184.890048903387,164.887654826235,162.373936800352,174.215897676123,165.150387434242,158.822244025838,161.86908109146,171.153423498423,127.383964930218,129.447212738857,93.1054284681415,57.7756051763314,21.6354560163554,-97.9172863638745,-214.952013884108,-264.297463546121,-420.358671005167,-570.136315854179,-792.929731884014,-1185.21117195017,-903.420349965878,-688.31836841603,-1209.5978104629,-1162.96844790544,-654.918595967817,-1197.893187892,923.860875478814,-683.326106486957,-790.487700252845,255.976391244331,828.425446666144,961.844419913758,-744.220599786983,313.132250860979,-14.930758771167,959.612343519099,46.8647679290674,813.967746079461,471.540478408443,119.273322582962,91.8106466596684,111.18236091024,120.912597220796,117.178181443967,150.432798058284,123.080545960626,162.477120373685,143.979723865945,137.183127619911,114.695602332744,148.352376323799,124.116894293593,146.324295293189,160.651956682576,154.263697499327,148.933282707352,170.44712343067,149.363864683207
65.4551328768093,52.190075389902,80.101299144014,71.5781156001709,50.5538242302047,96.1662354888878,86.7096216432705,57.2768120919583,83.9722952988841,75.1100451967917,43.1805242861658,89.3682685853789,64.1683868808109,54.4511816354485,39.9386866090701,9.17890368017679,34.4586572645832,-79.3719270743192,-124.898042179926,-249.67940062306,-384.631044624613,-355.502117520108,-659.196661447721,-711.510684845229,-781.135114530778,-1373.17655161431,-797.968093138725,-926.528915461461,-1155.61637211283,-800.155265594777,-940.613183356195,-668.041890045997,669.856248262666,-725.721678884778,-643.48983995527,-18.595730485694,1064.92794638538,576.224359867453,-771.824151486177,345.533995318597,41.0851674103103,583.627022299703,-0.798254446957297,780.726837551082,136.485211658344,17.3775754646807,-43.6879338087112,1.14993332009277,-14.1509615315009,-28.054489995675,46.7377454825224,-18.0958432265302,59.3025001411343,32.6250873605055,9.70856038504091,-27.6885288102616,52.9665222917553,-12.6879722475484,59.2340909285234,52.4875973058416,38.242438719646,12.7286141386154,76.0301322163241,26.1461754419201
-46.8890775662733,-67.709672018671,-27.1873943278056,-43.9017996745583,-83.5644215278348,6.32752777923045,-32.9566183852808,-65.4334609505877,-23.4169259348002,-49.4999594821952,-96.5496208694453,-8.05325829315344,-53.4682586934288,-75.7906637673739,-61.7676339327474,-114.726869124444,-23.4934432778736,-199.587970186407,-239.302711830658,-317.869738641354,-451.516420446162,-316.87241831636,-705.093201088039,-685.479838766094,-637.300105787938,-1130.9967393721,-447.908305438081,-744.085464558444,-902.588562697377,-308.305945162542,-1008.20326538224,-121.823931571204,467.996142564163,-680.077597277474,-157.019732958058,-147.388374475365,746.472346379124,263.854871073734,-617.068654125993,406.548926519664,243.553538912536,181.223705861965,59.6226531964878,648.919254881456,-142.181949645615,-69.9291959888306,-155.903406287759,-96.9962970700821,-143.425930616865,-161.394286783811,-58.9243275488667,-144.746118202651,-52.334776296363,-79.511880358217,-114.951457102789,-164.444922498282,-52.1384830521053,-145.679078343602,-40.1579857763264,-64.5389450179726,-91.9797940393841,-123.884579659984,-38.2854379998768,-106.340309751614
-163.112113430684,-190.25784230808,-139.267417333042,-164.100011482119,-216.09781539531,-97.2853090772324,-153.264592922289,-184.503664069917,-140.296602897716,-177.947233439582,-235.52324567927,-119.830396844163,-177.466736298941,-205.66616034865,-171.518108709629,-239.13986013714,-96.2843008512021,-303.953856314679,-346.878337136532,-347.900300670463,-500.886736490747,-244.65359036686,-655.169340901974,-674.974478412675,-413.407084550887,-820.065188904368,-11.974724733456,-328.399421023821,-619.600167548741,84.3744487143029,-775.27786826601,271.929358325635,350.868254217579,-543.919647830737,289.563914843569,-106.975402137924,238.993537340909,3.34925392505549,-391.218282289811,419.397239134085,420.213953541876,-111.132333696441,149.568678756164,455.23200727667,-305.235918713371,-143.308175910691,-241.100596220667,-182.871298460232,-247.415962129911,-265.789070444791,-164.93243835426,-246.851466531443,-154.954304054525,-189.299282331197,-227.145569771566,-279.357291928548,-159.402189418555,-259.374068195891,-145.105698382393,-174.29142100419,-216.265751288524,-245.776736043713,-155.347354167038,-230.355118789021
-255.771849090334,-284.989180018906,-227.968879469735,-259.062105428527,-308.841741015539,-177.910724073152,-238.738169548197,-272.082177349556,-231.44034216624,-272.062309460896,-331.00759246853,-210.394129074115,-271.022730451042,-299.755127434717,-253.061792477592,-327.97927016198,-164.459693214858,-365.605937132038,-417.602737876214,-354.219931710062,-537.283141810921,-217.91135099476,-569.192565480816,-652.958605964862,-183.68638176576,-574.717182611843,262.175462442179,23.4808910162907,-251.168523314939,260.749731456588,-269.167260701045,550.349744112557,258.200149713618,-408.909489877366,577.878921930653,27.4087893162886,-5.4535216964021,-177.276304740839,-136.448199942359,425.1388756085,511.57959296663,-141.699759149745,243.95496369427,296.560224985471,-333.7668702798,-204.461875251989,-292.885276255942,-248.482872233672,-309.38075948827,-330.933811491982,-252.281483928921,-318.143300841394,-234.670485036469,-278.138939469747,-306.232594144358,-353.472759823888,-247.520804431411,-333.57113565479,-228.292032170354,-256.433258642355,-302.646309982357,-332.954701130449,-246.153388577485,-315.509412652362
-298.73103867039,-326.456614448912,-269.312186913329,-303.572339516889,-343.984259648206,-210.440637267268,-268.344497529154,-310.300368746926,-269.147680831707,-311.615757847411,-362.970587189649,-246.169712257661,-307.804331281648,-336.941287565891,-278.944792853763,-356.3050604478,-190.398002162598,-364.680340264694,-423.743471818537,-315.146853877997,-526.941178331477,-200.540272375807,-452.574972640953,-541.129545877052,1.91798498814397,-319.419169215743,368.089336916125,197.934533040111,132.195100657636,383.157799309171,232.82444444988,685.426969475525,177.928002114925,-262.113896021032,772.879852454532,192.134693227719,78.7605507128171,-264.349296454793,146.554222654936,451.362064932318,587.206293336869,9.76313074625873,346.653756842363,206.027852783759,-309.295045012481,-253.415570035232,-316.908764834681,-289.535587892087,-336.73395501174,-360.425203113477,-302.814057064399,-358.855759594415,-282.718875770546,-327.151886938821,-345.897498758474,-386.404878085379,-295.434593878002,-364.831383024686,-268.021066216139,-302.610910385636,-343.546678356527,-375.789950878627,-291.288220846517,-351.703081034183
-288.93932083286,-317.781005780342,-261.627066615327,-296.606486589119,-331.822195775377,-202.10484241736,-252.500463519283,-301.4138635545,-252.846623881791,-304.34469784385,-348.825742966407,-228.259649594791,-296.767648205398,-325.694342832826,-256.868033559134,-340.359121558527,-166.415078097678,-324.65371432637,-390.39269384188,-232.185227068726,-487.771379073636,-128.279247336118,-345.803333456383,-381.21996203636,131.792529006091,-71.0095096826117,441.300401860106,257.059015693647,325.206656152179,552.152579692773,444.963213271737,608.077728660826,143.63013292716,-12.5679256198207,809.065738278163,294.453324958821,260.1883735816,-267.411550577849,362.777634283631,426.809808132778,598.939521942677,117.023008621711,414.066192938002,136.733876248959,-325.974725686085,-284.367190546761,-321.010494666305,-307.930377213392,-339.29196509882,-356.941768503139,-315.301248235213,-365.470461067764,-295.234467438779,-331.819258406713,-351.989092636668,-387.467538425429,-300.040481040454,-363.366257748991,-267.353287219818,-312.68705760085,-347.375860216963,-376.830982217194,-293.086415062345,-348.70309978816
-255.51688985449,-286.873545945622,-231.988465147843,-263.306955400883,-297.382636044871,-181.191220202741,-223.469028375983,-270.486834114637,-214.961508784306,-275.660727264995,-319.270419068419,-195.06860930007,-272.999947773158,-294.122010347676,-220.108284749488,-320.922582796903,-136.116061706384,-296.957371850501,-366.19780598194,-166.631705171382,-473.441162488394,-39.7663163016852,-329.977846827561,-249.378002376482,159.316938439764,40.2836582564403,463.171215810881,234.699824561742,281.604986571119,586.447388602116,348.519835660881,381.128301844156,180.397093137686,242.265222180721,647.856696462268,252.001156687783,358.479977337189,-187.068665144453,395.342418960121,350.138957526064,427.160590961474,120.025313400015,407.706679745287,68.6255176148209,-368.622313601119,-291.097812746041,-303.434798187082,-306.830214000423,-318.840441405634,-328.091496044999,-301.791427314058,-337.670871736677,-282.927420142467,-308.049248484351,-331.581245125878,-362.314829072064,-281.530808609292,-339.831026026089,-248.146226779253,-294.424646031985,-321.908244761849,-347.325736410603,-272.292387429407,-321.109704629706
-222.327155043905,-251.116723648965,-200.592300659447,-225.806129222441,-259.566341206936,-163.738461514045,-196.694681016957,-238.619554429732,-184.24248991968,-244.303956239632,-284.91946848855,-174.329174991419,-255.699721655737,-263.599683844446,-197.671457334191,-314.95243562005,-140.401915440557,-303.375462662038,-368.168460726961,-182.981547299372,-500.06629408528,-25.0982921545069,-423.1781748228,-165.693245725902,36.1706607207723,-19.5181717377178,344.486937084578,95.7013119626349,109.177704517738,387.059645778513,124.81484344522,174.933902560909,267.315655536608,314.484163896681,434.115431192639,112.605835486365,390.927000654374,-45.1123390735105,298.919121607582,333.565149170766,162.379026411016,129.525444036523,375.184217224479,50.9898507922825,-322.022199147856,-268.319324808017,-261.720756688667,-281.638160626275,-276.287067816641,-282.084445460881,-268.221184269129,-284.68969459162,-254.995801225695,-273.071246371302,-287.425167208365,-315.337706436184,-254.110731249739,-297.113134993515,-220.611870706139,-257.037243198609,-272.027741267368,-296.96652987096,-240.664025569934,-277.703290747477
-174.640871449663,-194.56938979595,-149.952804431435,-173.19677716534,-208.058805212078,-131.574386457101,-150.919973882259,-195.169110764761,-145.284103931704,-198.083568375804,-229.53618394027,-145.775103096274,-219.598395055796,-219.802466459134,-181.169182056241,-287.722274993592,-157.589431540006,-308.422442819834,-354.884685002797,-264.73808033489,-513.175655110584,-89.3603811287384,-524.887920856691,-97.8670088004714,-162.716318011625,-118.988559305826,162.993290950495,-108.885986019506,-80.4687229753719,151.457250529712,-67.7346909302932,89.1827670740239,352.059323521135,251.218119037709,289.728348738474,1.07833638956991,429.897903653332,90.685449712824,227.881333586066,391.350505941448,5.02085229632609,179.826010476433,371.902713943315,108.643357035793,-133.643088908331,-207.843958640121,-194.757638337757,-218.540082778906,-206.891605173871,-209.832151473799,-203.925282744755,-211.042095529036,-197.017941166956,-213.155607449727,-213.755753191599,-243.737816684235,-200.10348341537,-226.148315909399,-165.520280572878,-192.096017563116,-195.43831735732,-221.371995620493,-180.069009118158,-211.066744575236
-90.1213696711206,-101.463096837107,-61.3762809435174,-86.1793169653108,-120.502721132935,-61.3840996286088,-69.9315935160084,-120.567845740169,-70.4364636330879,-117.064062846284,-140.903127678125,-79.2957813657501,-138.08724174429,-135.77088892913,-138.399418378385,-203.296801523321,-143.094040023915,-273.144655657845,-275.447144168726,-338.699943338517,-449.884255378915,-153.209889688863,-526.18721971282,-1.33546302428964,-272.126541113418,-136.779650040836,77.9406584870196,-211.212193526738,-182.885172007659,68.7527895227177,-163.236618567973,91.0132920073079,387.378124032125,241.15144965042,198.454325687686,-40.7519097550523,455.583883048589,148.964762282102,218.785168361195,401.131124321815,-24.4400972005209,183.127003599459,368.688551636288,180.432129940913,83.4914492680286,-109.880870724432,-100.984373328627,-115.962832512411,-109.983356158388,-106.825415480512,-101.946137202309,-116.037419442179,-97.0247413920194,-109.102932118987,-110.32876373334,-141.620925063429,-101.74294470647,-123.21592497327,-66.6577725232965,-87.5300613388411,-91.9721907814544,-117.093722009364,-78.1088885167834,-112.441289013677
8.77427769355163,-1.35973317033955,33.0210394595667,10.2662526121999,-17.1993568318399,22.8471233079578,14.3091833327435,-33.1483193562863,16.8634104467139,-25.9964665418457,-43.6933321979831,0.627445153058377,-44.8080419941189,-34.2154005845798,-78.466418275511,-95.8891426831838,-108.105353914661,-217.857598126381,-155.416829371518,-373.447098098737,-330.207293278941,-161.617813230309,-462.647360102203,114.420862806763,-225.770272043899,-103.722217976059,107.430280927718,-130.074655177546,-157.72034453582,91.1836721978935,-169.540277054228,108.076891190082,341.949846269878,300.493658923099,131.411924924622,-54.6814920792415,400.094015041024,103.357221342997,204.983091519492,303.917673516681,-25.0628967199849,96.6313531645079,311.31495934025,192.963076354601,171.722746667492,-9.11983523089473,-6.66203735392865,-11.2247518562429,-15.9755842191962,-8.28648538428475,6.44502412484061,-19.986987729798,9.15485071379462,4.26691589795478,-8.19000487401146,-34.076045721871,8.23478397930479,-19.4365876262204,43.3048879905505,24.705381891788,8.738931398764,-13.5528711219475,27.7335585546507,-10.4668238560834
79.0407852066701,64.5061365338481,87.3901121198249,73.0657685280766,56.4462436873289,74.7510008343782,65.2755200711535,29.4997518445274,71.5647740003054,32.232316204925,25.9104611630374,44.8423556392445,11.5026918737428,33.3312287076529,-47.4244600734063,-29.9190782739889,-94.7952951124517,-183.60758818457,-68.8313233941407,-390.612206055351,-219.902787799219,-128.202007683048,-459.103563628724,184.664709027904,-112.153901903344,-100.995393840604,153.406684128029,10.1574526298768,-85.975945894247,95.6594930183929,-153.787792256549,101.477804245651,224.574380736684,317.491020206239,96.6575065890906,-75.9838368753572,255.139876804814,-16.7524019000297,166.280141132816,158.65616126014,-20.3126920214969,-22.8173312748066,201.281086694092,139.172706029823,109.870235525394,53.6870604077665,48.911093563245,55.8052880888874,42.9852793456101,49.6829639903995,78.3727826990883,49.5291105899575,75.6039879118745,76.5142027252121,59.5007148368221,39.4158705510125,81.0415410098395,48.7309282622146,115.156058428897,94.5183773754409,72.5808507669067,55.1689019554324,95.9714170222389,57.8229376016397
121.337824394444,105.32982651206,112.074237453421,109.462068558578,100.476999498858,95.3003069600838,96.4983381020608,67.7400057552361,97.4199733984015,64.4698335376566,69.9957603063158,56.6398820095066,43.0949320234504,65.8972864717378,-49.9484484767581,-10.2590110993303,-104.760565059106,-161.321073506006,-33.9528944641898,-398.864401453301,-128.840803453729,-101.555829458428,-512.352872259026,160.204065662077,-38.5541603488661,-117.508023815846,157.003044937838,58.5865603630451,-47.2640704969586,66.4714027657859,-170.163168030063,75.7322486053772,92.0857943141751,275.489280057866,88.005354175967,-123.010387253968,84.8196875279958,-154.054203345188,142.78368043912,9.47651833959903,8.41405307206451,-121.371629394026,80.7509203726598,58.2711668275395,10.0255473284525,93.2755198116118,80.7277901424043,103.12026087384,84.974702407512,88.5421441160074,123.266793982685,101.607874710327,120.191263653151,121.351285847685,108.832388691125,87.1095078879845,126.013330603818,96.3498550684505,155.374591834581,133.640589571538,117.079297725025,104.147061520874,140.828575019539,110.332893926855
159.983597170598,150.799462253817,143.346622085001,147.401111554435,141.553088418441,115.585642986574,130.211626406925,105.149810234601,122.353233740371,100.607728086522,109.7707779009,71.2532056953093,80.1327533934832,98.0738908617716,-47.2039722482209,4.78958653137403,-120.790392177844,-110.950196575474,-13.7358740551028,-377.256748369623,-38.9312707556435,-124.175436621255,-468.193445744271,49.00971013405,-35.3109020246517,-97.3210525043184,118.606368435601,24.0148333461406,-29.7543384770438,44.2412221010974,-198.617071047518,69.1245214897463,-17.5557826075331,234.648698179045,89.1645946739963,-184.890128414479,-42.4271598762891,-275.234857630996,162.085409727737,-140.26085708578,35.646904968933,-191.655957813798,-8.89853347695581,-14.4343256548642,-45.5673601487415,150.638463109935,134.302745114537,167.019537491818,144.471669158387,147.054674404367,178.314559517191,162.667934228444,180.795201622932,178.590219915063,169.820336620328,145.438815793219,181.627756083207,159.692200785376,200.991351675601,185.924850158629,177.135992625555,164.617587486046,189.369567651151,177.206400434974
