27.6936392851702,44.8027986341235,7.10465091609079,21.5314420620302,44.0053378170113,-33.2758650049558,-18.7040809831778,6.23469366105926,-75.8312740635813,-66.6967228857502,-14.7167768976166,-139.338153680883,-159.419666984527,-165.146885580151,-123.968908841992,-142.020521883896,-106.497267303443,-172.976500875435,-167.684260907327,-104.902345669218,-132.45099207855,-60.1720434730138,-86.125768248121,-87.0682219410718,-55.8222571978562,-64.7393190619293,-31.100971867377,-45.2377772616393,-50.5300172297477,-31.8984326844892,-42.0479339931904,-45.3102736995586,-44.8027986341235,-19.3565489244514,-32.7683899395208,-35.8857367700504,-41.3229696139974,-38.8580907247415,-24.8662782063178,-33.2033685670365,-37.770644155952,-37.3356655284363,-31.3909576190542,-41.6129553656746,-44.0778342549306,-1.66741807214376,34.0008293841488,54.5173213153089,60.6070221005296,32.333411312005,62.4919294864312,96.7102481843379,64.4493333102522,101.712502400769,111.572017957793,46.6877060200252,56.6922144528877,68.364140957894,-42.0479339931904,5.50972928186633,26.7511855922194,50.095038602232,-3.91480764764186,85.0383216793316
123.793560658443,206.353563782659,23.4894087735809,97.8164151176974,208.006863241686,-172.682493669948,-98.2474709410187,25.3786857918781,-378.521746494715,-327.276397806967,-82.3726544090264,-695.012197037157,-783.91883301144,-815.226651555451,-621.505509388061,-695.923053587408,-511.271811768318,-820.262075518242,-782.826123153854,-499.136669409562,-617.167491525487,-284.50002345859,-405.61995517881,-409.946883576059,-263.860386813569,-306.534124125459,-149.023330770288,-216.537128494122,-240.996218470958,-154.112200037755,-204.083763157454,-218.54854051035,-217.083036594715,-95.6161978421477,-161.429970635209,-177.599142551274,-202.166248912922,-190.397958376158,-126.616998933101,-169.221152895335,-191.400246438042,-188.176339766831,-169.175883967719,-215.359144070102,-223.575109148821,-17.336397643433,138.71427114443,277.532519809949,311.502761767329,137.47208271908,324.143922647389,492.453772164272,325.674640280284,495.310380185289,560.072673184656,198.623225607398,284.517501988172,304.377272405192,-191.831865149093,1.34975798196176,41.6779543737911,135.769823647301,-56.7812957639869,347.102667708954
192.836002329607,358.398291885694,-7.77538711021526,155.720205781347,382.595749454692,-399.007892287718,-237.887284569961,20.1092336097681,-807.225738797376,-681.097205086021,-213.368610043541,-1463.62364041664,-1616.38183903538,-1677.95708537615,-1322.82557219953,-1415.28771813815,-1021.17287423868,-1581.0122285587,-1452.84298338118,-969.98087232214,-1139.30278587998,-547.745668802625,-770.737705765181,-774.638644258252,-507.365605831053,-586.895073823826,-295.115227816253,-424.952691227719,-467.768188776726,-309.143900708097,-410.320643651021,-434.829197860098,-433.450709437204,-202.512347916257,-335.168508633363,-370.579400180418,-412.25235200025,-388.825748894031,-279.902698298165,-371.884516151206,-414.766759453185,-403.419688746499,-404.17514814027,-480.966713462384,-481.955387588715,-58.8775934258856,185.766197754745,624.978434692421,675.547575064726,211.084875210722,718.000846003956,1065.3486052246,687.188745575665,993.674232326306,1181.8271506059,296.649634993803,590.377909368738,496.425745616054,-378.284384751824,-87.8794652029597,-246.93965748893,-125.013573819237,-264.539310184093,427.988927107668
51.2534678112715,240.824692364304,-166.071132472816,41.9611291938174,311.517501779455,-587.406112501654,-389.75642185763,-82.7600145538286,-1024.04619340711,-839.800030323411,-370.779401380931,-1770.14144691954,-1903.63926733898,-1932.49437854608,-1616.25439931143,-1590.52049807771,-1140.71973705722,-1621.98233501762,-1370.5605212009,-1022.7345208841,-1043.03982034799,-571.099559727941,-769.148407848307,-756.213208319504,-526.857631116941,-593.392790653416,-327.707657405134,-455.872879726851,-486.236099013663,-351.141203789043,-461.013859638794,-477.972815164934,-475.195671061808,-260.208766019797,-404.103710631692,-446.36155468942,-474.509986016468,-446.281542513415,-379.18427207285,-489.9439799539,-530.614248367793,-503.879402456039,-597.645279896534,-637.744980595881,-600.635419232274,-70.5861420232886,22.9294064514132,904.129801702324,836.276255962193,113.403846167764,936.560846708709,1332.12881926576,816.326286670803,1107.40905409712,1423.77656209517,100.453851035776,668.596943228304,273.266042702837,-514.031185113251,-292.833598949303,-993.12202075361,-1022.67412579864,-650.971396876279,-190.144066897953
-260.756733454003,-95.7389876224964,-417.923583409249,-235.007318423166,0.842974533779602,-714.12468607284,-555.414413853841,-302.569027066337,-1025.77765680831,-842.713193072174,-567.693287725444,-1563.90201800234,-1673.80592695254,-1577.7585395425,-1391.23995386803,-1238.32799942,-897.895185806596,-1091.00982146272,-830.360597485943,-765.834790529304,-536.672706608507,-424.332961990462,-510.542399945521,-474.381589397033,-392.691931327656,-406.371257476358,-277.261264580385,-352.80915439058,-350.766037334697,-308.191588955152,-384.508978353141,-382.12921240843,-371.58256398662,-277.279055427149,-379.88783825708,-409.152015748558,-406.068236439673,-374.873618938193,-416.883054330575,-502.59747448812,-520.107099921286,-473.052343662447,-684.1050437439,-633.21859360106,-547.960051936315,61.2255074727364,-173.879284163595,1106.99341668645,755.357522406678,-28.4886630711875,944.568174983387,1210.07430435243,722.596892917176,935.946808481733,1263.73778389777,-258.830328192637,531.91781630471,-176.439537793895,-712.640020164133,-493.986491621348,-1690.94799994201,-2051.12693182817,-1031.80443809201,-1202.62420365782
-553.650483136617,-410.185168850645,-662.72930657994,-541.814489043575,-360.559045120809,-853.209409669347,-772.911515291674,-607.491218548879,-1090.86914846514,-970.023839045405,-886.526273770377,-1377.65633485153,-1575.58379205223,-1346.33063274704,-1098.66288306644,-1020.80464671187,-750.272962696287,-753.936855049663,-706.686797006455,-682.081939972632,-348.994078850507,-376.646841703424,-421.14528538396,-389.766823881549,-367.095870388636,-356.916201371338,-284.099934312838,-334.753212728976,-322.560514443384,-324.885477850061,-378.055291941265,-367.648643017868,-348.956279437699,-321.827510973531,-399.812475377081,-414.023278035402,-396.676558766151,-359.259223116481,-470.896211243502,-525.893281629331,-524.993803383832,-464.24201665907,-729.900869678313,-611.574990546133,-508.888696931187,301.691758068309,-188.632131446695,1282.78468938814,676.965386950148,-71.9463754310567,987.992564210734,1000.99583971086,737.742993466523,965.874756045351,1123.2600957187,-526.476771034021,520.457132753236,-359.92081599738,-976.358991691706,-610.351784059789,-1854.22310060352,-2654.41416275646,-1238.79521201874,-1908.69411866709
-818.83421872847,-721.487491592,-883.810579539994,-856.53032624251,-769.367797413775,-992.98954538133,-1020.95104118527,-963.657464375055,-1226.05170161689,-1225.08886932683,-1300.36164201989,-1296.8407073661,-1611.03795391979,-1363.11156792893,-915.878435954138,-1027.75127644101,-851.5111503069,-565.338868431767,-819.231927988875,-713.059225616097,-435.859197473747,-397.35304685951,-467.524747490125,-476.210476324298,-415.694520622244,-428.175470712994,-333.671190263478,-395.46140119036,-403.968810624758,-387.156965367389,-441.257886959404,-443.992834855545,-429.578992731626,-377.981901480316,-461.042145403785,-478.383361310429,-461.37396070475,-429.908220179579,-530.508876193063,-578.000251439053,-570.979004954032,-517.762632938844,-764.437697764536,-639.960998707454,-553.868404049648,405.503810205469,-238.568762730754,1220.35732191325,511.489381130439,-265.085039785127,1016.73929949194,596.975443329285,833.352142790115,1035.38385730396,884.43369418872,-836.909986738387,653.662514784921,-386.381923878534,-1106.32058067236,-796.222255006887,-1836.21606625906,-3031.06446193233,-1376.48292060062,-2306.17629292129
-1121.88668851754,-1126.94044098373,-1090.84451052171,-1192.58358778027,-1244.90535770618,-1047.69471419162,-1214.54956887047,-1295.50097685329,-1221.93044758109,-1403.48126271854,-1603.91146678686,-1026.90476265434,-1328.70127040601,-1248.66836485952,-655.705824958857,-793.39611271193,-953.044943019043,-112.945688344124,-551.428546431891,-507.4008909323,-306.592601942991,-310.453730596104,-365.502312293816,-421.877295741128,-349.793686961661,-389.96494695304,-313.4318756662,-379.492721499011,-416.027450263883,-377.032036305774,-432.810087699616,-458.833736352141,-462.969391280619,-376.16386157106,-457.943572476087,-493.983147524557,-476.07270627632,-472.352579980608,-523.804180120049,-577.04751362499,-574.061814798299,-548.103498236413,-752.949839862928,-661.650692531456,-594.5016657797,243.553843405503,-668.383418753711,660.698132069646,-90.3371613869527,-916.364732872646,727.305099291602,-301.345123668837,678.619781507241,581.521392763246,157.126752079987,-1465.44495018667,564.11305909757,-816.98725203462,-1152.67802652896,-1264.17788529954,-2230.64041325527,-3387.34290401246,-1607.26694017389,-2705.58876030641
-1387.71109064657,-1513.55801549439,-1229.92173868469,-1470.74267716472,-1654.76707778412,-979.123370225054,-1291.7118969485,-1525.48042111507,-1013.98785485866,-1436.06698200143,-1679.20742548779,-485.675098323833,-680.890704245713,-928.643617409131,-193.376639003897,-146.324344944996,-684.68154748883,451.233989117569,-46.9958012780707,-75.9597887164748,55.0015668684097,-113.038423016302,-117.382118173212,-221.260977063636,-166.392923225562,-222.969464162183,-204.495263725919,-266.410205389068,-328.991812703412,-278.077822729306,-334.788462282522,-379.463858249589,-409.66198566098,-305.912186765275,-375.036338197609,-427.539579135774,-417.394507671037,-446.762768922673,-448.594032313707,-505.504224300056,-519.672625075862,-521.757512549302,-700.879964903363,-639.400730263947,-576.945310718073,-21.556387525356,-1437.53979718501,-376.894498233638,-1057.74932388671,-1916.32018527348,79.4426172426104,-1461.54814297634,246.486944061639,-393.483786880724,-915.950258273195,-2418.87456771611,36.8385483832572,-1911.60719106802,-1349.35728222758,-1994.72561170409,-3008.9828345792,-3444.49579309463,-1850.80200338154,-2994.85704218971
-1508.10140227451,-1723.94770935579,-1237.7774723223,-1603.08274492207,-1887.6592692163,-797.654644188656,-1236.26106618055,-1625.62093803406,-665.693924195365,-1337.14148217814,-1631.77449003201,221.528886540284,82.2677343010869,-507.820624215554,406.128378786875,645.655259661581,13.0454280890106,832.76125944175,299.290966798739,353.296587026786,380.585099731124,96.5232214535007,123.002299450811,-29.1562559163048,27.655305567196,-46.2016909669057,-67.4300598403415,-134.942632829322,-223.174356566981,-158.817082782676,-224.51057762608,-279.072560989469,-335.851152055309,-210.875070259169,-273.318036009762,-331.577558766828,-344.49073836083,-395.299673454652,-352.925407134632,-417.247364620891,-451.784065688055,-465.691398474586,-643.342556531867,-581.653867538893,-515.968437219279,-192.596455074967,-2168.9975751614,-1491.62670916346,-1898.09758561542,-2897.38395737895,-644.541466488267,-2526.43198567233,-227.999646499211,-1350.81682592643,-2065.32055034393,-3476.6572352685,-787.442971766421,-3391.69344969595,-1636.4740388669,-2734.60113739353,-3669.88816260667,-3171.58639416257,-1971.96290090469,-3019.461478651
-1413.90803256274,-1661.97225992587,-1048.36472415616,-1490.22142612155,-1832.56645734934,-478.295862282652,-966.47433635607,-1481.01482947679,-169.733206814852,-968.954904220013,-1461.88814712748,963.054090657983,885.345839812996,114.566274328293,958.597876944334,1299.43347905717,680.125195546173,1103.65122372816,567.082737098169,685.354041185343,621.580165931303,246.963875369165,331.669750387482,181.500253891541,186.442848993685,115.799883540291,55.183320384651,-6.51522753032947,-101.294858152056,-51.74982630244,-115.468593977615,-168.537556014974,-234.606414623233,-116.524642011468,-173.320382433709,-225.16170900226,-251.697737906408,-305.420231852919,-247.351922758647,-321.083702239903,-357.75431133081,-361.957871938859,-551.029919280347,-473.275662430794,-391.518548949836,-203.844731750501,-2476.84806654556,-2100.4183926279,-2357.54375627844,-3497.67010060613,-1159.24779504358,-3616.1545333121,-675.358791096829,-1977.4630806511,-3414.94749953589,-4246.34725369408,-1605.48893003649,-4516.85998676788,-1699.32733780541,-3136.75960656947,-3751.49804504964,-2999.45455093589,-1977.89615228939,-2963.6334924962
-1041.04963332416,-1260.99152384798,-611.076625022632,-1027.77790457733,-1353.80540283099,-5.35610249155399,-387.67169000439,-932.382367627265,487.813523033326,-178.784791445021,-935.914776812853,1541.27833843397,1725.0187632303,1024.50477739317,1265.46824654292,1679.27527051462,941.427550207372,1321.97885386881,945.874019034437,884.337647298231,832.722007834113,309.740969865612,515.903701484989,464.457606585778,295.870767545142,279.893071450168,140.15121301615,124.82610199432,61.8188101145745,45.4524973899538,16.3715992400551,-16.2917653819028,-54.1572069795129,-29.6339623577316,-62.3650067305243,-88.2107418446592,-97.1404273810366,-128.71238816217,-122.071519207525,-180.604770354443,-191.845257541731,-170.381314576771,-358.657400948903,-280.729624126067,-163.983852597633,-41.5462364770301,-2229.03156355466,-2038.40106806227,-2581.05605903938,-3343.02848081248,-1356.21028719736,-4639.37796574456,-1101.01879325576,-2372.76389957899,-4808.88354780556,-4223.417056815,-2119.4059628007,-4511.87962884549,-1397.90640292413,-2876.6559512378,-3061.25104401635,-2919.27718168228,-1770.70775866986,-2853.28930765376
-439.525395235305,-610.928904598322,-17.9356578792393,-300.712320774552,-566.652659639079,509.777497424932,371.58402134129,-81.3491072321198,1146.7485878111,862.449273917252,12.1920166432999,1815.41225045882,2391.47457557063,1984.51193041577,1319.14667047598,1704.9671820446,1016.3224844547,1365.58031870314,1332.30629939876,918.418736178026,968.476603454776,332.463849442963,629.047597988998,712.955070860227,349.14779827398,411.940892830862,179.888636108192,235.567222236188,223.93750336141,126.471376820148,151.428543632296,153.453984129764,167.5837881087,40.5278405750708,55.485386685669,72.7604263948633,96.5316748226057,100.297057821692,11.7017701828732,2.30907110417975,29.9551267818806,77.4328234244352,-74.9216706352391,-16.2901173265501,126.581208586669,294.044585276428,-1603.56177321492,-1737.44540503938,-2588.10621016637,-2261.86892105114,-1259.68052969833,-4761.33157985668,-1264.34142830789,-2517.28103349525,-5296.84102573283,-3203.12840144746,-2136.61976582984,-3385.95423879166,-847.678742245527,-1978.4889037854,-1785.17910993801,-2207.48047880087,-1130.87434143096,-2270.15151535785
207.483578698361,64.466281289573,540.990317371936,438.324110329935,207.639423580142,918.598650244187,1034.2995451766,758.016172966808,1599.6492634638,1765.29048104363,1111.34573111263,1885.71665897792,2681.57748769255,2665.32663300835,1345.67778955131,1446.69598461521,1219.26285459681,1304.29616728092,1582.79429607297,893.004952725162,1004.36484370251,384.254654882233,687.737667181631,840.557579182425,386.715404903031,501.548927279445,208.044731847951,329.161418524621,353.096581952269,197.470291999628,271.427237595887,305.639204274295,356.118048313375,106.448962216174,182.388755211709,237.961637456632,283.206190082095,304.084127015424,150.558655719863,200.947881514638,258.957833007936,315.310226683567,237.564559506397,276.594929015254,403.974722506734,737.970545490354,-705.635579529016,-1551.2933050229,-2010.00853740512,-600.651091008406,-985.720232661003,-3408.51905542043,-1005.73062832143,-2164.92546718478,-4117.35144432048,-1564.68139231424,-1748.43792625884,-1920.54397494154,-185.911393075854,-981.190800346497,-320.177838673854,-481.83311591519,-123.569347735289,-944.454977628724
772.816415651464,655.052991170725,975.761859628709,1034.56025387784,837.716062631457,1199.96268640617,1476.79591502693,1405.17440973367,1831.42091116841,2305.77366285789,2046.6177913794,1957.12536305186,2685.54477588951,2983.48612519425,1524.9318286407,1220.72343541631,1486.34083163152,1337.27376508274,1712.16232800489,958.451571077504,980.816727653024,439.827832825062,751.449792565424,883.350871389344,447.799095037692,579.232101100718,259.808257156148,434.888635107051,472.792927415402,281.062654647407,392.757203729785,450.016157029276,505.231680583662,193.123675000644,329.214380066582,406.226074364371,460.150919606148,470.153659204295,305.879438213448,408.219318739499,482.896367140542,528.2253281478,548.617994422212,574.350809719368,653.206581882319,1123.77227187828,542.823635078356,-1354.76883272735,-624.307265624633,877.467060040932,-721.815612754336,-1217.26948021755,-777.727541417387,-1444.19827375911,-2036.0270712311,34.1026866734135,-1425.99810177983,-764.252280382877,418.349179566431,-385.341347946753,1074.86338898386,1630.75218520264,889.922419248495,759.833522917371
1235.84202365007,1179.32789402535,1305.64378854609,1478.71120470353,1379.31178143903,1413.25777383947,1754.30895805594,1857.4229967299,1969.61385159677,2520.52142187847,2648.23706959094,2112.83910364983,2630.620006374,3050.30847958941,1850.63073775494,1318.07698813663,1684.00617766085,1504.63389553674,1773.66430784494,1149.87449264591,948.248076015479,485.57002525571,836.131258560177,894.835221271468,541.360419980447,668.118629608039,345.450996436863,551.182987175154,608.135240902581,393.563258767131,532.264664519707,605.959378148533,650.841512347522,309.939266825403,488.660220955469,580.956003651474,639.710120430971,632.767283433241,478.430638090233,616.621309535696,700.02424694121,731.8160007171,837.882766760698,853.027670964737,885.290005669763,1315.5371329907,1540.75819748246,-914.593359901014,914.875749484806,1349.02103040173,-534.257258529318,430.084908539788,-1089.56130715055,-947.913422039163,-752.348862565434,1043.40569346009,-1560.18757742943,-66.9172917294047,750.016092791491,-89.3441961029619,2194.33772839014,3198.05995568506,1645.77069778462,2198.38675078578
1562.93918073367,1605.44158075064,1536.88468828505,1779.78671519094,1806.77573183657,1565.50812353233,1921.93170038765,2127.40873251465,2076.57121446749,2555.13509623294,2874.86722949193,2278.58224703867,2608.38998439163,3004.55950997682,2203.75156296828,1663.44291876877,1817.81874062005,1717.56869310462,1802.15030350649,1421.34776796904,998.379300422855,623.45605608067,958.131380225977,932.167542128672,679.266428912444,789.081391398903,467.980660654369,658.013230816183,761.937690302896,530.944054833937,682.577636623668,765.258000799668,804.890412972779,446.285727153581,636.589258377748,741.278789094111,801.540620477508,790.80878332506,647.318544751966,790.257094972425,869.266008245283,899.273235594116,1039.54666871021,1043.55623684184,1047.85032465143,1341.16586138644,1077.98956539795,-232.999876859042,1412.36755964017,543.899307842203,-310.277614461088,680.970972025179,-1628.01020549993,-855.543920484417,-580.83229224929,1245.78486918093,-1795.86213252548,421.485995185149,817.51786932165,449.343678901888,2824.04615971602,3798.38502722917,2095.84706332751,3045.03583915403
1693.97725093661,1832.26714580351,1632.82065023221,1921.22356782622,2024.50591855915,1595.76930885428,1950.96251575662,2196.37989776121,2075.42745047728,2494.93693017529,2783.92638363957,2265.64463565963,2517.18570638742,2906.69090258138,2319.9254351569,1911.06544375968,1833.61517838954,1778.99406057959,1796.53448114969,1633.59977230011,1143.76525313979,861.315284674653,1096.09713162266,1016.46869382295,821.871461585468,914.901227243443,591.502511777995,735.23224213946,892.836273360415,648.502427892883,795.544177155405,879.353305672911,922.782327441605,560.444107544591,735.799387891744,835.967734162666,890.267027644028,884.293029395074,766.493439393164,881.86556723378,934.319523125294,962.303845822541,1096.05936666652,1076.30051806303,1053.64188594349,1246.11522709558,-705.806321273034,441.960539564348,573.328010311215,-729.951125521064,-64.5972980239641,114.719522767512,-1776.74984328163,-510.708204524245,-10.1872729728504,1134.38111262665,-1365.20537083076,1284.09965787241,874.804087894109,1665.96212291782,3164.49301696766,3611.56611163805,2300.9971258214,3404.9428387283
1636.92094239968,1808.24631333283,1566.42672325872,1877.12330130476,2000.3862103484,1468.54852833057,1792.3295509037,2047.03493284179,1878.44773420884,2303.27729493945,2474.5240303822,1942.11444041668,2213.43085408996,2668.69749434614,1966.18510640689,1821.71488641405,1652.54048415529,1491.29394339537,1656.37027489881,1571.36224727748,1176.36570235298,1011.01002447433,1116.69527912163,1025.87880949214,862.644417653258,940.223309984823,645.985579733732,756.768575188671,922.056437023095,691.758368863751,816.192600219857,892.286334370536,936.346962659605,610.610802414598,762.343196810199,838.167334558067,874.192646389167,866.139853994547,806.17657320531,889.501559980404,904.673323023125,909.894905235732,1056.69626367526,994.839224037316,923.483046345495,1018.41988442591,-1930.66674817572,836.777768400781,-371.007105306978,-1164.3733317831,52.4535916372301,204.915453475961,-1408.50391193048,561.885145742328,1889.30959541808,1744.38752213855,-177.485406888142,2892.19726151815,1139.55624701997,3318.71492647614,3767.99869894143,3190.47070039009,2394.010828804,3525.27913385887
1481.82878498582,1602.08652712965,1371.05361488356,1657.46365521548,1780.02845342838,1244.01961561867,1485.44748467262,1719.73400948453,1537.12668127243,1948.24753233531,2044.43858907731,1442.54463050017,1724.33860913324,2195.00365561125,1319.02332936253,1435.61433950105,1343.8679568201,959.283592220407,1310.5262625855,1202.48853638589,936.893378311138,960.236304920748,942.997551709598,855.466645767727,772.082779997284,824.04987520154,616.766085867529,726.711097944695,841.988310889395,669.768654793237,766.37830671967,824.178944902836,855.080480014823,611.26286558594,746.866494179114,798.611299578948,808.422056174299,787.134695824366,797.4277124684,875.365583610266,871.027386429923,836.381638642769,1043.33604785889,946.286762698653,810.526534429439,665.865712805743,-1310.25984177196,976.035836093321,-2.0191239716261,-135.934762593295,96.4563394683595,1774.12522696684,-578.878208358743,1790.83176906271,4177.46285068755,3402.42478925414,1128.57403507909,4781.25253951263,1645.77396157779,4478.11472613322,4743.94517905304,3044.92368880332,2475.74825583496,3536.36971015754
1310.86252487543,1347.06142869794,1132.2582700495,1349.70724284343,1465.23936976566,1020.85233767596,1151.60717612464,1332.26234648761,1184.27541033391,1508.18755198576,1597.22759057903,1018.6176774008,1222.39566231357,1578.25256557461,791.593074381155,977.009121131032,1008.66693136028,512.365624475111,910.584741421665,774.046848319736,606.364946145932,815.45907642983,707.900108798882,640.638989906234,654.485555696643,684.224284747257,561.572630625999,704.327099064687,757.498227902334,644.55026699336,733.522662694222,773.815484236336,783.160831822899,610.726399412563,746.847162409235,793.690228541365,788.025439340678,748.986477173845,793.554415982238,898.065313585665,901.514250855957,833.622499243495,1105.77023743337,1007.95388136387,818.501788279289,94.8858943571373,680.284394882902,1110.04979172646,1629.44734791992,1975.62030614055,210.89434449873,4230.3009303781,531.383411733725,2391.07044417954,5555.88444152352,5136.33968560294,2112.02291256611,6005.176756337,2179.08326106715,4506.74305056518,5496.56185170026,3248.17240519686,2506.20025749288,3448.38038903378
1134.13188679871,1105.95078383746,918.157315940393,1053.84115158186,1142.71568589818,843.053516520343,872.812284953233,979.264386710413,882.131712352142,1074.92837227564,1187.54652143357,729.257357961911,802.84055361361,988.985341277507,513.364056402943,626.856076702782,663.310715300679,289.646459619577,644.969489052736,494.698223019293,422.014730690181,680.021792644311,551.751626345757,542.042441404014,582.527005178575,616.13137801264,519.278706018546,715.003651247998,726.57842043348,636.742326953799,736.06669103067,770.860490749627,762.022592986144,621.072503270295,764.184327399436,816.03980649358,809.474110250886,752.319926148018,804.188884885815,938.187341169796,950.213592219341,862.503286692222,1176.00115306343,1087.40092787256,866.105799478026,-720.79374102898,2959.50447076633,1394.67868359711,3305.02490106226,4223.2409788374,348.841241632621,6192.12145648091,1291.7344735945,2289.1536933123,5728.72604806475,5840.8332409784,2628.87007449531,6100.35111985141,2363.63855377679,3730.87567947357,5427.36522990406,3541.47105038211,2398.37226410218,3275.48368767444
916.831836257596,833.365939399979,733.238101353542,783.059647682354,801.481712967113,694.722979493888,639.959566437328,658.767019630383,613.36628131602,664.985051855903,782.573088976375,476.71105651685,436.129355851267,470.786433543246,328.45259841027,361.35053157172,353.575252155522,166.97514090059,452.773452227188,327.16546122378,328.55488245254,528.83398202307,432.290696498429,482.808523208573,506.945311511641,553.810891378855,477.556862057902,687.882940460812,676.345103925295,607.154895489805,698.580148041099,725.351416877471,703.278717662232,616.195216242925,747.621507606439,786.940570692848,770.09044970299,697.662857854466,802.960097292828,932.728990286601,925.621283605471,813.761704829069,1178.28018608911,1059.88469846049,814.48282523347,-1261.13931604876,4623.33369931451,1864.17096295353,4204.77420580354,5421.65822357653,521.078594076462,6533.61595148111,1283.06903844612,1752.35152137627,5006.2992721502,5274.70170632034,2451.35393673132,5254.58562758641,2061.95104177021,2777.90232781017,4529.23857489568,3760.02723469968,2134.71792504635,3050.99267304527
669.657277851805,526.829800316834,578.686888788816,527.148977475186,447.053458196553,574.931534879825,450.244434371892,387.416381665088,388.48243876425,316.583666582217,415.450794692703,239.733798993499,116.188130674846,32.3371060675933,151.492719010728,112.666823092003,183.703509969865,45.8671390015228,218.839524537864,197.949452543724,206.874884066644,372.453458291547,307.23040297551,382.326044439945,423.404839054667,464.106791924712,455.575056889968,598.495385116645,592.10638364673,568.073693090988,632.959029375858,636.945072782416,603.821443782369,611.473980377616,713.421134789687,724.423373386785,681.575228153972,606.556227515038,806.771770378652,904.441077828532,864.05577069715,724.143513380178,1152.64352694052,981.634613409774,716.999104815295,-949.802217322541,4851.77919339917,2396.49751579191,4161.81292784718,4747.47176172674,884.772438647967,4951.91196554749,864.337665857834,987.110241114308,3594.96267609652,3683.97061280263,1624.44472359535,3678.00254119146,1590.33191273679,1892.99381864071,3243.15472129471,3952.72739793307,1788.98791881724,2796.22536544076
503.223337104687,335.286372055714,521.963013959164,372.93167819817,233.060969908956,547.479038982163,385.852461511421,282.269755862118,294.809662924711,158.616172534757,255.510935237606,107.994654175421,-67.5183873615488,-205.193773541167,46.2751588282316,-26.0285784838838,174.211710820964,-14.0538963798229,60.0697751636957,155.46374783445,146.359092803539,306.187547560999,269.747888804092,362.617298359185,433.576620226875,461.438424784471,510.780471852964,555.470269556105,592.710013345096,605.01967456723,668.092184801074,658.517133106633,628.506344303448,667.202823614138,756.992751445607,762.763973348025,710.231583273316,655.699060566814,876.986860132853,961.173863442164,917.425213002381,776.469607244822,1217.65613033699,1037.98931510925,785.498447198186,-129.713219109393,3472.51564831648,2559.65405732139,2974.73489248387,2631.97217511749,1228.4096482658,1988.35461555822,429.50481619911,167.564342082599,1569.26885669324,1441.13092237898,596.029071488759,1587.73452652065,1395.95988149845,1176.34122389971,2086.85411925472,4108.1975426878,1533.26534134278,2549.07762182876
542.686086549579,414.477410373433,625.267805050605,422.514632862473,300.035883479547,660.098544917507,507.618563746034,404.049943487287,388.783616781181,259.390282177675,360.318516380175,136.966410946034,-38.1854718277478,-169.28189927097,59.889439537003,37.566141776058,228.305170157956,43.8076770986961,111.522635834596,212.265267163233,236.899134028933,344.979151342243,349.809335316177,483.439635849055,536.250922670515,573.43054511413,609.339702406477,608.15325061677,691.344084339013,713.605104658341,805.433408642765,813.922695176101,813.226607622954,767.485325948076,879.286089857396,913.153103365543,886.300266662408,873.709004504442,995.378617267651,1107.44568852414,1099.64631467112,996.028760893377,1386.30036650096,1250.60346569846,1048.36956061016,283.616002819587,1478.8852816068,1830.35545930887,684.078606962505,507.815260790027,945.795337185982,-1311.9537574025,-59.5080853255383,-651.473668158498,-861.965402112229,-629.586646205744,-219.384338551742,-345.030393631895,1658.91068302121,824.680406966586,1447.33631255429,4148.17044281996,1555.79000347574,2398.98612142951
783.392686324068,736.409176782307,835.535561796706,634.370166034357,584.992947463552,840.417302474774,723.800545417646,627.983451384313,575.820346811439,486.369525539122,537.302304726805,256.517937787855,120.629225723244,-22.1644444913942,140.634575685437,180.211327949172,252.642505637394,131.351466677404,225.113358665572,252.788908819064,350.443448124562,390.716148504942,413.237922100485,572.623931214915,579.220456454434,633.204286424986,613.655473689603,632.405547260453,713.107003889879,755.766054547511,867.24364429474,900.419786487462,931.349083095623,801.328376769859,939.002607269003,994.144157323782,1000.21846045723,1028.48351613492,1042.04780226439,1192.73094098023,1216.39833390047,1153.17237984114,1509.82662778504,1410.40639984392,1250.40293869649,-287.321474178093,-29.5596995632429,78.3484773098219,-1995.8875098509,-476.514067540099,-202.507997450271,-3879.77687688897,-463.410959308704,-1446.95539096038,-3118.07236626327,-1338.41840588508,-496.972060769053,-1272.71566840363,2272.12615824438,932.354339417473,1513.36751448166,4180.12665236828,1886.99302714617,2459.43847456132
1072.08744607426,1098.01447741917,1014.85918301279,853.633977058497,897.726610901453,947.774180156325,863.666835470322,773.802199676393,684.340980902188,628.115382482064,587.136001311203,324.019802108547,202.905077820134,8.92189541715658,182.586944042439,195.122109112789,213.129440503982,100.170355714312,149.049794997701,178.891186407408,304.526049763537,357.377099569193,350.799649895024,475.018828775667,474.216868082981,513.900701345489,463.936251518262,523.493290233284,547.5404269154,647.848624617342,748.338896630729,774.50382614244,799.877255432963,704.822005837445,836.849851972644,883.580290578756,892.987827565827,931.620013249702,943.879044520527,1105.69699522478,1123.52940956175,1066.1446569296,1457.45463441286,1348.64379419542,1179.29567529452,-1794.16707925056,-786.305692113378,-2121.11188250057,-3983.69798331141,-24.536653010505,-1748.11643101238,-4761.91494892319,-419.436340875696,-1990.91466252075,-4182.84561831886,-33.8090780228086,-181.873539010478,-754.289188737802,3002.77043012442,1452.1515728576,2224.14479730306,4309.05390242257,2324.72709242882,2719.1645295856
1229.05789213563,1270.85764911522,1058.35821396396,954.459869488532,1071.06202718791,904.934893470979,842.225632019659,775.383011334494,635.618034599662,597.120227488344,512.03885141514,252.396511616409,98.7273246048028,-99.0292345139038,103.100295526953,42.0083701791519,96.6127272561698,-82.9154995438152,-126.309450495671,13.1716642027553,95.058130399931,243.598393863603,197.686149696312,244.396454652368,284.699996293597,281.98366231036,261.26137438072,341.655991211831,293.274000659328,453.719618614705,523.038707444751,516.54229373509,503.447269926487,523.767701379976,625.100554464457,653.152462633395,638.935800484508,656.734859800971,745.202701182576,890.887845734873,882.82565659863,804.7200101508,1250.82859269358,1107.5642594279,897.412779745009,-3359.15525544898,-644.496188501795,-3607.03040912069,-4268.89986147726,1544.06127567576,-2905.18300643907,-3350.38858248582,-35.5579911555582,-1803.8701046221,-3274.60334870026,2668.67090085165,279.592072323478,974.242077651365,3541.88286451497,2351.87507561896,3156.03870237338,4398.89262379513,2583.75145095587,2958.35131379041
1167.37893259176,1153.69094736215,943.339836144417,891.273717354752,1025.71258109448,726.583587995008,678.753669070672,657.606779300827,463.160291037096,428.415244008562,389.061455638018,75.6006176429503,-121.532245962453,-234.002046649884,-84.3684507957426,-162.360976318233,-71.5555630150785,-311.979181202914,-412.858239269332,-162.532748716235,-141.31784680569,122.856876988681,36.6270314096413,15.1287672557366,107.757980065958,68.2217234710324,122.795643145537,190.026381492204,94.0313630371342,265.729338376824,298.988342535869,265.140861912253,221.220901186364,332.097501724914,403.404102143552,417.090261304276,379.417467056892,371.106327798258,519.694676796968,640.754271561344,615.424119583433,521.051454748552,971.131643654647,806.128231208379,574.508756948447,-3754.13418663215,620.172449238297,-3567.94803515448,-2706.079365812,3409.81606814722,-3048.79406431697,-346.248085565683,248.358816143626,-614.187992336337,-918.759408804689,5184.03235721343,652.754655664175,2933.48418637783,3595.07341863406,3449.7226839458,3680.82153831696,4322.68128375229,2522.31295812367,2932.70628743142
902.378173575328,800.564291309067,679.341330470979,649.251910671614,770.791341117326,434.894848724998,384.541792722472,411.702829090824,175.867872745017,121.262417226773,168.070020805184,-156.478042944573,-407.748410391689,-428.710453924578,-316.075883176178,-386.257095490868,-237.525159705646,-533.845193895706,-645.94656217439,-322.389081300957,-348.606841097916,46.5884782304231,-126.10316297621,-185.893695738902,-38.3736650597235,-103.474247704601,43.8288037004097,62.1063289671273,-51.004021487237,98.0809105806249,94.4750731894626,42.0801070507439,-12.8852802874353,158.527251071298,194.554322493018,190.195168636752,132.778847290909,107.500735663522,290.25961855609,373.204789944107,337.75316434892,239.818225044596,630.339142714198,473.848651874034,256.727068862393,-2759.82959393093,2341.62902669988,-2464.11284457494,-525.572878611978,4562.5815199975,-2100.80448337329,2270.94581308031,365.075279237426,935.925645511703,1350.4383493701,6110.71425195808,1300.77372398309,3964.82429619938,3118.02325314391,4204.00828620389,3434.34679280238,4090.45164181673,2189.30030566393,2592.63983504516
485.500782757876,294.459517141399,272.682472036836,216.39010684789,334.415450795728,22.0108613959152,-69.72025880168,-20.7547038597233,-276.664303061904,-390.434166452327,-279.075419777082,-483.592921579003,-847.556357329819,-849.688935683221,-609.727906688526,-751.62857650374,-432.265686556419,-851.06444794694,-956.517927237411,-536.320159572983,-623.250908696056,-60.0145767674664,-363.619023358973,-445.62549595142,-222.458009662443,-322.254795185131,-67.5835614823868,-133.949469361572,-254.801285036406,-102.601819819943,-152.277430413443,-228.493859649905,-298.639756149617,-25.300819973042,-53.748915463192,-92.1198446962095,-177.548232109105,-215.261188675645,28.9566817967832,41.6922565557294,-14.6142986725522,-115.775758545369,190.392529268652,61.4918193387347,-119.87141239499,-1317.34613723401,3331.59236610828,-1275.98953111585,911.034573126061,4586.79707373177,-669.76944223319,3266.91643172815,548.805838490581,1865.67731823025,2568.15656768849,5282.99290014356,2276.96874365902,3716.9948886545,2381.39746071519,4164.99474175268,2521.49447643956,3613.25823782888,1701.17369827506,2060.32744917824
-29.333830533049,-327.61451515133,-222.832130048768,-361.393876260625,-267.98988730404,-455.453372928222,-629.930988755064,-616.640206394046,-820.046915202569,-1033.57282920153,-921.391205292587,-873.95723374374,-1391.9812151149,-1430.48665582262,-964.489079789016,-1223.06781861889,-705.671519000629,-1246.29856885025,-1347.21968571799,-821.535975960585,-974.440983752798,-281.37453677481,-676.694846631671,-780.618293732436,-478.125578450077,-623.777054951848,-257.403899014149,-420.769294235767,-551.446283523384,-359.511050755631,-470.84578886674,-575.867311800071,-674.716686151689,-248.889008386475,-362.637505428301,-452.883306052753,-565.822971856904,-619.147009324346,-277.859754348474,-358.771348517606,-448.120069932236,-559.74458131872,-329.612268120021,-433.877065598865,-573.791386784905,-292.315150732344,3349.66590260991,-278.138462459885,1501.45638829961,3858.75010870637,384.57025487653,3132.74538127925,837.383289892643,2135.31836498065,2807.81550470549,3629.26659330442,2930.72424972474,2745.34707792558,1688.40150171884,3505.17377503836,1312.80052382782,2675.51870361876,1124.77876400024,1421.77215576606
-568.732449901875,-991.061792459506,-683.006411433493,-944.13789280594,-954.771945165641,-827.061279850112,-1094.54754802959,-1192.28223514827,-1182.13503708585,-1501.50670325069,-1496.77626426997,-1076.10769850196,-1670.23181835249,-1752.95424525829,-1169.60875616247,-1441.19111634154,-917.738613659186,-1389.13330134588,-1499.75928906957,-996.650561154427,-1150.12116317794,-513.834553349463,-886.289409521479,-1010.64495066176,-685.995975932837,-860.262838096269,-448.40975221512,-666.548366068979,-803.070910830062,-580.216117460598,-747.699162203014,-875.087308048374,-996.543398701662,-457.699024466006,-634.276779471511,-773.844125715238,-895.651840051214,-967.048253843992,-553.236455269907,-708.673573871933,-825.593337092706,-944.862637209701,-793.21523366042,-874.342346057488,-973.666782972681,80.4998912144241,2942.01279911347,479.079861586879,1704.15190776289,2799.64573621369,651.294494919405,2575.19827500926,1069.2609764654,2172.67383080359,2319.14603287963,1975.9065539413,2754.33021712443,1613.68914002068,1045.14084493583,2595.32616163448,97.3490300048722,1228.0725507821,451.632357409128,608.34388321642
-1018.42214820223,-1522.66560250292,-983.903369923047,-1357.18908798722,-1536.24087031442,-948.514882446544,-1272.13129995279,-1522.09373913644,-1165.09078520053,-1531.46789198309,-1731.13547893455,-892.783439884388,-1388.97963617586,-1491.73629834381,-1014.13612533642,-1140.60658354387,-864.512414899015,-1043.93552564418,-1164.10004994219,-879.763445813705,-935.364889623446,-585.39313422402,-825.926470719427,-948.905872915648,-696.104213759096,-851.882901128402,-523.783913930024,-722.668764124683,-844.383003460243,-642.741444277426,-817.449482042006,-945.725185786854,-1063.99075178586,-552.331157483687,-731.016938199883,-884.600223669887,-988.971184754601,-1064.65268704996,-680.013600565441,-850.834991019654,-966.53178846965,-1069.88565108583,-1022.13985844311,-1059.02411525466,-1111.68421882425,-42.9321031717198,2202.70231181597,563.752717021664,1412.56241515944,1453.06954607513,375.768891562971,1544.07612794915,1084.27065004595,1774.41884538257,1234.49796125966,462.744198885895,1882.72374180536,416.214740835015,194.953275349037,1406.41496607392,-1042.28021938647,-428.227769280607,-305.060010120821,-422.749749926991
-1231.94823346724,-1724.06576343908,-1056.49790008248,-1468.19843274814,-1794.27810420423,-840.596872684412,-1151.5039664689,-1505.00310343327,-879.588844476947,-1183.93783554844,-1565.83336071176,-489.306674251916,-759.908380573178,-815.89574324289,-625.393961984374,-555.543658868987,-616.340945896172,-480.503753815984,-601.402993191431,-588.557000392059,-515.107980506168,-519.719088039407,-591.536905440055,-671.126122179309,-546.316222847227,-640.165586747704,-472.394335012806,-613.715781434542,-684.783594191161,-557.360035671686,-680.152758343674,-776.497012410976,-865.933361623195,-521.485848207354,-645.316182788061,-766.690611421051,-830.977839407327,-884.481363545834,-642.235712675025,-772.658137588845,-849.664041516403,-909.289840453329,-968.773605534467,-943.479790823906,-939.706368135708,-217.241950252694,958.721043174113,1.37830497016115,435.290466795978,-110.538263203133,13.7729751768144,77.7996638297483,789.092106872157,701.539397230027,-46.2637362860055,-876.8203565049,737.235101483066,-730.762332504626,-927.638035475929,-148.965519280662,-1920.87272335,-1809.8373881919,-1005.11755144204,-1426.44428739925
-1123.60604828964,-1501.02058738804,-898.332815383644,-1239.63144609837,-1606.69566847672,-630.010818948795,-855.779206263566,-1182.30227392,-575.512071138472,-724.891500185108,-1125.90811755748,-196.672600820476,-247.646070398127,-175.650437416469,-325.482717172523,-149.544395045,-459.983243411676,-153.132245902472,-297.570898681443,-414.140377073376,-266.449326701666,-474.445157242544,-419.97851608188,-418.440159158842,-408.930741395345,-430.770872575721,-386.548708707339,-484.408984135201,-483.112935669187,-439.824820062521,-494.228356432332,-535.921368182049,-582.80484811698,-443.71100303766,-499.912759085925,-564.36224492241,-581.504092542502,-597.378946635143,-533.298327599417,-606.720140488561,-628.614754585851,-636.591669384698,-763.369687139699,-694.786614606265,-639.288790407498,-68.0510843971886,-392.815048619717,-527.200369795182,-758.232156588822,-1463.52711427497,-247.936066629519,-1178.99097114477,302.813814268122,-483.723205831235,-928.19798156407,-1736.97995503646,-258.970409148563,-1372.39585900117,-1903.30037731719,-1719.66828544416,-2211.18152291309,-2603.389354219,-1472.13089759137,-1970.15326257768
-796.263290311577,-983.131674790789,-606.103492142332,-789.07095585482,-1081.32623535803,-423.528830269655,-515.007561880903,-688.177435168648,-364.365045293067,-342.181071018855,-562.725775951646,-132.948819541739,-30.6162451399081,179.561380260463,-252.560447856732,-67.8734641569837,-506.080232031344,-152.803794752162,-314.366196666745,-442.999322183821,-275.422968973515,-496.950227223095,-381.332902966544,-283.360974307845,-354.884495833223,-317.507259529422,-329.526361569706,-400.561000332146,-336.964317052792,-351.503858990038,-355.826603781507,-345.690619660424,-342.233159001922,-370.200321644639,-383.054656316421,-391.898032471477,-368.796703055256,-344.064497115172,-429.8710434623,-457.030567714233,-431.448266454622,-393.852288716872,-552.741996769508,-473.702904305653,-378.475499156369,225.494034121869,-1290.39847104806,-734.896557281023,-1427.45584841096,-2127.74627345651,-429.161869775981,-1613.66519067049,-95.28381878701,-1079.41385310417,-1092.54454282073,-1933.98998765835,-833.911382190266,-1289.32507687324,-2302.26545610539,-2789.92045744275,-2001.87353957383,-2894.44949881341,-1679.47736034176,-1905.76292537994
-496.974893767104,-494.25733821765,-355.451047473044,-367.028311972918,-550.493517072661,-284.968544175517,-241.698335636713,-230.867467189421,-229.117147763862,-83.5622429274291,-22.8635651748452,-195.908613489908,32.6085930389515,307.896846837389,-317.542839599744,-91.1487019413722,-579.575583809342,-258.529097709572,-307.427953556485,-509.749060421519,-328.807695057644,-517.426155173326,-370.96655676634,-186.457718414813,-321.195303266812,-238.134494278315,-285.150075322011,-324.848278238994,-215.741077942048,-272.165063633026,-238.955705632277,-193.94324522208,-138.350797565003,-298.77776858282,-287.234982065523,-251.984621025859,-196.406629385833,-130.529988463054,-342.257917177614,-335.051958954508,-271.014726102625,-191.558437610493,-388.161430352191,-298.901456944398,-166.731385433085,301.353437913855,-1729.11349417547,-805.33689479494,-1285.33081750073,-2129.18429761515,-443.222435312678,-1235.09372669693,-344.390375901607,-1128.20821802749,-690.144529938835,-1764.67626124083,-1163.90223425921,-943.801291407784,-2302.46294988479,-3186.98992960216,-1794.17501199599,-3002.81871375685,-1753.10468318419,-1588.72943370314
-365.969421131312,-250.185690272994,-250.861881462631,-150.782510090747,-250.696123112833,-249.260834540076,-115.539162403781,25.5148377887267,-177.43570859376,41.050393100093,349.360017739052,-310.213725850807,20.2672300253333,312.413753357758,-415.903539075118,-88.9431573638369,-526.321081998616,-372.381478609952,-172.483967359192,-501.679678320156,-319.943726398759,-510.373804273099,-351.539230079179,-115.950405243058,-287.758511820297,-175.64325957304,-247.510318018537,-256.190577685964,-110.161476903208,-212.603840836412,-146.778094319809,-79.6953923982224,11.6472729039237,-249.716959009506,-213.920427350513,-147.91439639255,-65.9331427859245,27.8604640718465,-283.823516427135,-252.17911105955,-156.993625034961,-43.4710559054202,-290.334046829774,-166.715463442499,-3.82262897861321,284.02028349615,-1924.53422667411,-586.12959018877,-579.486365229738,-1918.83728833594,-152.241856896258,-479.28002457261,-633.271651315293,-955.552918029342,-74.7748400227578,-1651.44656769652,-1554.8792667987,-886.395763043401,-2288.90479771227,-3032.76606141696,-1734.93329681619,-2993.88136008011,-1768.90475653549,-1398.08232361566
-309.421287952027,-138.797072139452,-236.225119629187,-80.3512224601526,-84.5326389178052,-313.113593345018,-124.119366400115,103.549370785002,-255.804679422284,23.52218742603,495.691078800615,-530.057058148808,-181.155426024709,180.074653475674,-560.310868115914,-228.393707170203,-462.506752566533,-607.498096768772,-212.604177702242,-539.617712157721,-388.872632762263,-540.515600953222,-421.391995203094,-179.61201977047,-345.388447014486,-226.711660005877,-288.565905010052,-277.812440672933,-112.260131439275,-253.715152617112,-168.915992587276,-83.3615503082569,17.997153594348,-287.715774666335,-235.087312689755,-150.30394905516,-50.8064911920125,48.6833282426644,-312.210677647495,-265.032713316257,-150.290003105005,-19.0254488353459,-290.98946669625,-130.14143770532,40.5977115477938,465.597311345099,-1718.06833747277,214.194884819021,362.108681045663,-1599.96567641675,421.451861405798,373.957438405547,-911.752350852845,-345.39375886075,550.800602760537,-1500.25885797848,-1665.78649880807,-1039.02092484921,-2059.89052011334,-2423.15952335834,-1523.52151148499,-2617.3205652684,-1632.42428565934,-1252.47270665278
-189.509657656133,55.8877821935188,-218.952293602926,7.10753537075543,132.61159142125,-435.588667535203,-175.219769663879,141.38785611824,-454.387232705018,-90.6670400663832,484.383747213,-899.350062264731,-612.519704085491,-98.099376012665,-814.759773344527,-623.193112936802,-606.171991597602,-973.128003368321,-550.486629694833,-758.403501372831,-623.381033232435,-659.093746738192,-617.021472972005,-387.18975521821,-534.690651400524,-418.084880252044,-456.057389110917,-421.925497744794,-258.922062238701,-420.215140197673,-328.408840336744,-224.206932604294,-118.264789185706,-430.800816567685,-378.802681123121,-279.970081017163,-170.29615751323,-61.217943736516,-444.478455677953,-382.004458465576,-251.966796213653,-109.965012949044,-363.596177635991,-188.741650645776,-27.0730131216975,616.740676654831,-852.299031445551,1307.01703167257,1390.68473302384,-843.68465969739,1132.71931569934,1304.69801679765,-749.719606601551,855.62668919979,1065.01478397405,-959.088082231856,-953.796566692934,-1023.77170509397,-1265.45317662133,-1609.72447114821,-1123.55855159728,-1892.6050128455,-1302.34424816668,-936.730829916582
-33.3003190545635,329.986249936227,-199.531623759682,141.66004137258,372.688939913929,-547.926184427641,-191.538232283162,211.424068622751,-669.968732260811,-204.299348535934,431.351506411858,-1293.08223063881,-1077.3380838135,-414.066843293146,-1111.98049869714,-1070.40409887806,-927.771003333361,-1246.0573457266,-862.58360734855,-1023.92498654707,-848.86498959492,-797.032200536399,-791.997881158324,-562.582572288039,-713.948474844915,-589.671732049424,-630.518303744813,-559.527482664813,-402.289708385383,-577.092352560956,-477.775361867726,-357.635621849778,-232.675686171073,-570.17506745448,-520.80347117638,-408.530566684899,-287.974070180155,-144.602496500008,-572.198816121355,-493.353824988181,-343.274521079863,-184.736633002124,-415.518131461566,-243.235288648514,-81.0297699311256,452.766643667576,383.169697434671,2139.41572514415,2376.71253191406,250.085796303603,1797.93691182276,2173.86401275574,19.353430593229,1844.7198156499,1243.64155178359,-264.800529563108,129.05028147272,-862.168222578244,-392.968686491583,-1128.2017093109,-963.058381897781,-1254.89584052545,-1006.07337661714,-593.381820869972
4.08031116599505,482.799553435208,-253.554993832947,193.147701318086,466.678826994242,-623.076872267306,-209.259713050459,244.242658166368,-825.669827437162,-304.159923270604,360.009153562712,-1533.15634765191,-1382.92578284145,-688.511369018554,-1281.27170584547,-1331.56575581087,-1168.46873529573,-1276.18604220173,-915.146190979118,-1108.39146639966,-886.786606316868,-835.70109075831,-813.345961578751,-600.629247367672,-732.802783404524,-607.960286522257,-647.856723187989,-566.446269353614,-415.129754674065,-589.819870143626,-491.983352210778,-369.261252311031,-231.413022374734,-585.641745541636,-538.421853350671,-427.133263232417,-298.667910948746,-130.556574200904,-590.032697312123,-514.681820294748,-357.067962478158,-190.780733363475,-431.985526291466,-267.366902946881,-96.699963995682,372.400492263756,1239.52825432346,2544.16477397443,3100.21836573713,1020.23741852217,2187.58973427017,2738.99946152085,843.0605478354,1729.72694183236,1106.920782365,-58.0682164551986,549.432002738638,-813.090198515547,-314.051322306926,-1150.88212391731,-1320.61877295585,-994.539029953435,-954.343336045994,-482.381124374352
-182.817439276373,392.053510177693,-447.347522967885,43.7090395048842,333.85117240782,-736.214020254739,-357.561284585374,113.055401491297,-991.150498664954,-517.320179500426,165.732523950519,-1629.38580957582,-1602.08280281741,-1008.88366925438,-1299.16723486007,-1423.6145242875,-1206.19519049047,-1202.69815040965,-915.062303058372,-1041.68330997484,-842.198512818449,-778.605925938838,-763.670286942847,-633.242122391819,-658.657721463175,-574.519093708891,-553.333048914319,-526.760528352333,-405.316483975568,-530.659526911727,-467.147388894761,-367.854852984269,-254.190326300495,-525.925345866289,-507.432565894204,-431.464105661647,-316.113069605867,-171.475145401467,-568.174824540179,-535.401911980581,-408.011333328655,-264.160441521526,-532.498022450848,-386.663443769349,-226.170756538109,719.790725564519,1252.68813821763,2530.19576972304,3370.29656392689,995.609079112312,2086.1364606436,2887.18566494447,1036.76225755805,739.928802569598,1078.23889774706,-455.942855864237,195.576366457873,-872.009023543916,-1010.54668052379,-1275.9915733092,-1836.57365299992,-1053.8780222853,-1030.20432786035,-569.315506300871
-532.685462686985,164.519137595816,-736.770364194846,-263.174797287843,71.2580650164503,-928.443813596095,-672.850992447456,-191.042478006013,-1243.12386250167,-909.538302179261,-221.613749559597,-1701.55189687987,-1881.78161743597,-1446.92233210857,-1286.15735021869,-1442.25961760862,-1160.6314364289,-1187.52025604024,-1085.01959328305,-989.247285217557,-884.901388296437,-710.728564989788,-775.280171180835,-765.072026623869,-634.168990617249,-626.283397276093,-507.147921395897,-571.718675528252,-500.768220500762,-534.931330041848,-534.169915639746,-477.681884126913,-411.051592587571,-514.82914769195,-553.388152268339,-538.939129651397,-460.39388236849,-362.801407456877,-619.81942840554,-656.357940032645,-585.902364416619,-479.960304073291,-768.220208494077,-647.570953098604,-509.28477282502,1044.96035330069,560.411855580453,2117.90276614861,3080.53442409809,114.259604212788,1537.52334738389,2368.12806747218,667.623560242018,-214.202955932925,1171.81052335833,-1067.31009193198,-70.1607906430633,-975.659288592894,-1594.70966290912,-1287.68854244282,-1925.93293034228,-1348.43927310938,-1040.73044386057,-739.505994366492
-891.386721805924,-47.0549664347721,-992.096942082926,-592.915196354871,-190.374242219843,-1112.3124102227,-1029.60851469465,-545.943827603772,-1502.49108218062,-1357.47860654206,-733.928202271027,-1762.20149355466,-2155.70748330185,-1892.24823210381,-1299.50351438741,-1372.86031507714,-1165.21985401688,-1185.08033102296,-1312.08664237019,-965.944299233693,-959.182258333683,-655.412509834118,-818.328466458341,-893.279705629213,-651.032955216658,-714.885338257766,-518.846634248172,-661.447393517211,-632.56788389519,-581.473390259839,-643.4451586521,-629.210288225446,-599.73678103806,-547.628390088424,-643.327372785924,-686.130332001843,-651.08713997151,-580.811647888936,-705.496852636549,-810.910118142519,-793.455479383484,-712.514683718492,-1016.57116358506,-914.342404722412,-782.66143091572,994.678424581452,-480.866436843865,1605.46681110897,2064.07079609817,-1365.71210126019,951.877140511098,799.782328335145,420.889815603064,-604.636168946998,593.958663720978,-1747.49462180011,202.250186887038,-1225.33192236113,-1554.23209859925,-1376.11253501816,-1657.8729029485,-1905.64476118038,-1056.46923117077,-1126.19743923275
-1169.36865602544,-270.659022567022,-1179.35657361557,-886.308838278593,-457.626777061779,-1250.162249455,-1322.96100317778,-879.674138981355,-1682.26357717127,-1726.07461557957,-1266.58229738332,-1809.13549413538,-2297.80756953109,-2229.05005139892,-1363.84377842317,-1264.07405620162,-1256.02452901587,-1161.43623963292,-1436.91454616734,-946.223367610395,-960.396640091798,-622.87694320243,-829.017363946297,-941.925546667126,-653.829556082321,-765.586919672364,-515.917006284187,-712.250358370977,-724.918049885683,-601.309850607172,-714.246985251733,-741.599052178056,-742.813532066292,-556.60153542099,-703.586927226492,-789.684956547004,-798.931209338448,-741.170939501951,-746.777267999126,-910.643000004753,-940.243075627971,-879.081616040902,-1183.30023799621,-1108.21671327518,-977.072169541995,830.715839881324,-1485.6844060457,1188.6483107198,257.474773657671,-2670.26116976382,622.081423085791,-1400.13195919522,580.952541080242,-602.639357712808,-990.518296939433,-2565.41260125654,458.948810658805,-1459.28567686577,-1303.5626662452,-1543.80684607976,-1693.80281809016,-2658.18790246248,-1270.27839814738,-1845.56549107708
-1349.53514138278,-595.10469730974,-1364.76202281163,-1145.98824959623,-783.869023145841,-1416.66409726607,-1560.07641936607,-1209.96864589958,-1830.76222258411,-1998.87608789583,-1748.66335333802,-1951.2717921948,-2366.50447794485,-2491.85643280216,-1555.82458188991,-1308.34490131004,-1402.09565223928,-1237.61766297467,-1518.98900290855,-1011.24198652626,-955.929699223134,-652.640060356832,-854.70384032922,-984.211821238117,-677.041381525214,-820.923187669373,-524.759005673426,-743.799186818718,-826.454484424084,-620.3164640831,-777.278544878009,-853.33395838904,-888.728717863803,-556.522892923479,-753.452113636887,-878.394882029632,-932.679691325877,-897.601563251017,-770.412703014149,-979.768754323358,-1059.81858591788,-1033.53970409384,-1301.13879714441,-1275.86612358168,-1164.01604827702,572.66879829596,-1907.00907090734,563.099820717443,-1673.37194571691,-2944.42827058751,313.525902229908,-2812.97860477334,795.903254696271,-608.374585906037,-2301.6316946256,-3152.65335942431,221.507837816368,-1264.09738096068,-1279.73853213669,-1520.96411636959,-2171.43229151959,-3276.21817737087,-1630.4198661772,-2624.25819425058
-1416.08236833397,-940.630568599661,-1521.19843022804,-1331.39299383943,-1099.69933328766,-1596.98974139399,-1733.91789363129,-1503.53279897446,-1985.05015182079,-2176.815470921,-2099.09280594159,-2220.07011125018,-2467.00883013404,-2722.5096514548,-1850.59033302819,-1577.75742377358,-1515.36150642667,-1440.36409129931,-1651.6614176817,-1186.14928868978,-1039.38388437992,-727.797520514313,-936.907761564935,-1058.22354964459,-746.24095829107,-908.654640321326,-589.489909058896,-784.358739850115,-946.456099317267,-667.620964319537,-853.939366631241,-966.712383441684,-1018.08977736899,-583.523719209792,-808.990647329922,-959.431080920691,-1039.6812749944,-1032.57388611409,-810.352266717871,-1036.24053905671,-1150.7295949016,-1159.93740628405,-1371.37269051608,-1387.63519984249,-1303.91226152976,-71.1597785707863,-1383.65563170526,-445.769624958368,-2504.15516671688,-2205.85428009926,-273.897984773317,-2587.15011602975,860.589822678029,-623.725119813459,-1841.84013587782,-2949.78843628511,-98.5267055283732,-753.615282020625,-1221.83019999185,-1405.80904102582,-2475.88483292831,-3368.48912702582,-1842.77446879663,-3001.20867527441
-1348.67814035433,-1112.90717060102,-1517.46671709797,-1366.35887228292,-1250.04189491753,-1632.92694307079,-1749.9029269082,-1630.50237375901,-2030.22402234583,-2192.04421547535,-2206.83297742548,-2404.3295879776,-2506.54244517781,-2831.33383515201,-2012.01671150476,-1850.62821388914,-1495.84969822494,-1548.44876031377,-1747.73423250525,-1313.59984871088,-1131.20967863521,-781.128537944288,-992.836134283429,-1080.11721438679,-781.368956090549,-941.69128841714,-632.990059095321,-779.126453268977,-976.994292913971,-680.543061292069,-864.902208940481,-975.860763198498,-1013.95777332165,-587.414163924958,-801.637132705455,-944.45010003514,-1017.41511571716,-1021.15524003178,-802.002430173874,-1003.46723429875,-1113.71936625208,-1133.05970388279,-1301.74114134627,-1323.02152895786,-1249.915847477,-739.759540473576,-347.931318683854,-1334.19819193857,-1867.08818786852,-1296.85027322319,-922.519012622215,-1517.96631703697,787.083649253413,-507.795041405673,-338.160740271478,-2197.06095189385,-202.179053084981,-728.59622842154,-844.425227049176,-1792.742089381,-2351.28597749785,-2846.85666109714,-1771.01193726873,-2778.87795503634
-1142.72742800284,-1014.24838687526,-1308.29263221948,-1209.18782220591,-1145.53708303561,-1427.6592385386,-1530.63670718667,-1494.08448144037,-1825.3773829429,-1986.80782522291,-2014.679860632,-2246.25341425351,-2286.87387953069,-2716.68120840134,-1803.80175609182,-1828.53973503969,-1307.74798192722,-1342.66393867052,-1634.39120401765,-1210.66325366784,-1063.32386851449,-770.478949982692,-906.191136244697,-965.04133655786,-690.145960694676,-828.03841220672,-550.004771912508,-670.974854611258,-841.153186203963,-586.057454090351,-739.706759629736,-818.686264363262,-837.890377893654,-499.857418885721,-673.977582432073,-781.559851329918,-831.508106388625,-825.635900231457,-678.775942192249,-830.560201482616,-912.199311803701,-919.026159063469,-1066.46311526213,-1074.04663012501,-986.472749256278,-697.339902252698,158.534184157338,-1504.76671383111,-923.596388064664,-921.888253159205,-1163.20217973264,-1024.76811516937,272.263484462552,-629.384824586515,-105.059100958781,-1855.19167552952,-703.230229409971,-1735.46137008831,-478.373928279176,-2786.22901461422,-2266.2632831708,-2027.40050265945,-1579.55624848496,-2169.92373750272
-862.123743298324,-749.39772571563,-1017.19629101804,-921.540854160308,-872.215849739147,-1086.48331015667,-1157.72219257183,-1184.75714913026,-1419.48292807474,-1641.09465292702,-1646.04522194111,-1752.67729818742,-1816.18086944639,-2431.85401242129,-1279.15846373129,-1477.63357415663,-1001.83003076628,-894.991072354739,-1302.04207251781,-883.381842512427,-812.489583733506,-672.608172242853,-681.942165505623,-745.227374224551,-505.874217093687,-614.182692691731,-387.544782222154,-513.270665025094,-625.951366697495,-427.104653400165,-549.112774843354,-602.397468562578,-614.475334365099,-365.802043778913,-500.369850919502,-575.135793241315,-608.854550353354,-590.20935451142,-508.626388081696,-620.581142253329,-680.436849738732,-671.305135429124,-813.073275374124,-816.08013941172,-701.859993284796,-171.088528775714,-454.987078329156,-1136.02823986901,-991.084103334892,-1173.06284165586,-979.993514619179,-1653.99489657232,-834.180407666906,-1296.47476532731,-1763.72172517522,-2304.44835058639,-1862.09909152819,-3188.09815245249,-511.014670122204,-3409.2478846133,-2502.25372254178,-1400.27584624639,-1427.98017381397,-1604.69831561652
-665.223127185249,-555.497014623857,-820.048494513984,-682.185828362973,-662.671404237033,-813.958248207949,-850.361593300162,-939.589234544677,-1037.43312630979,-1337.26576911213,-1355.28554596275,-1197.63735820745,-1348.02837373262,-2122.91939957281,-745.690129125309,-1051.94388450403,-675.710439343047,-485.613557983948,-950.017959481119,-516.800987943391,-540.525248610067,-483.910150405524,-449.428032371464,-551.372056846326,-352.921539256433,-448.169531321462,-291.969146985997,-418.794768303768,-501.227513700991,-327.252991662628,-442.601957837755,-499.641821842948,-514.457582505171,-294.900483173961,-417.597663589159,-486.387987965972,-520.682449406161,-500.110241317571,-422.932564668585,-531.887148274422,-589.256183125452,-575.04863220225,-711.012433825683,-725.767994917863,-598.385631552935,-174.361555504651,-1680.94921610742,-1031.89231495167,-2031.78594732034,-1811.88699438955,-827.417306950483,-2747.85958874294,-1875.6212765111,-1864.36369602409,-3402.0778866322,-2878.74642032608,-2605.2850648653,-3858.95182309674,-743.121095998041,-2787.23106417557,-2724.23948036422,-1279.64171612467,-1291.03121479204,-1387.62479683722
-664.639370333882,-593.418919784095,-782.166659431836,-642.598494774383,-684.482795124879,-716.992357894242,-752.11020684101,-899.453876199933,-834.463532081261,-1165.63697188742,-1284.34970153425,-818.651245556159,-1069.41489785295,-1846.33847077542,-443.51294400224,-777.438086072711,-423.815015065134,-292.230032155964,-752.445591205374,-281.361230051344,-405.886745769654,-286.560718630566,-330.052768091983,-490.210932380383,-304.876512432135,-419.423156986517,-311.59284874201,-427.973486936372,-533.954693514271,-341.391038267438,-471.742083697709,-556.602097058508,-585.684565001185,-318.146787215895,-456.823940106461,-544.66081798979,-599.555778704312,-594.009370313604,-450.805822471075,-585.141789830377,-656.267175406971,-656.173081487917,-757.559596263684,-794.857603796845,-693.70245148909,-945.073861542999,-2670.20139162713,-1666.95403089484,-3034.84658300228,-2562.0546438403,-940.096130378423,-3301.94334922382,-2141.73635462922,-1586.24807145458,-3384.41537967305,-2903.21192043137,-2021.96628743135,-3351.7094869874,-742.830583706997,-1408.2311232756,-2569.60325510593,-1624.28301408696,-1111.56985070094,-1494.65457975658
-785.319712919777,-802.802740628361,-827.27386240568,-763.066413154277,-879.787777719432,-737.878351462715,-791.283944385541,-991.175580445067,-761.109362872499,-1055.9261416999,-1359.74675421134,-611.349642341708,-914.308713667329,-1546.49291254681,-341.442349770005,-626.708044268087,-286.532318217764,-256.675549618101,-667.981487733066,-197.373886328832,-405.322662752857,-195.294267470735,-329.236471294398,-542.588130965526,-333.853154993914,-483.966762314095,-371.782264999749,-490.528128529503,-637.910269946866,-410.55287815719,-555.695940517768,-673.12773270907,-731.352799572628,-379.229548015687,-533.668429751012,-643.057870672222,-727.165740152991,-757.687800018651,-518.769006283057,-669.001355260042,-762.220520615385,-791.622319717434,-826.90324322398,-884.214425243257,-847.629582078819,-1671.25431851424,-3235.451387027,-2660.11248275919,-3286.8059140495,-3071.11755917633,-1125.60288288769,-3039.13309461099,-1793.1116110157,-813.593956243205,-2250.63896032519,-2445.34106663362,-774.513157375424,-2403.06506781268,-503.110709367223,-382.864512064029,-2071.79382848578,-2151.33602681475,-918.573570098167,-1688.81903358824
-881.558874355448,-1011.63514705063,-871.726691332613,-891.10359604677,-1084.11572015135,-775.120992386207,-831.269733763757,-1081.90868835636,-713.644026057095,-936.824916863126,-1432.425609666,-440.785273611595,-746.418044225384,-1197.65421981222,-250.246978812623,-446.72334460009,-209.620275824134,-214.068235136375,-526.843154865812,-162.130675789083,-399.324623530831,-200.066655758189,-344.214608446617,-582.353436656594,-358.603735584141,-524.319738086909,-397.02994493925,-520.688812064011,-680.580968049501,-447.388189507315,-594.951191072145,-728.202154505851,-817.437050714374,-416.16217465901,-565.216659291134,-679.397594418424,-778.338997539689,-854.344701863027,-558.165478902931,-695.32632392343,-800.968907242966,-857.80295372091,-842.509135742711,-900.255247386674,-927.355364112936,-1839.02542403525,-3500.84824068807,-3229.29639727008,-2825.79578183077,-2914.57285076094,-1253.47334082489,-2416.94935914819,-1370.22132217338,-303.754880140037,-1297.01897306887,-1892.67644490412,19.5912300098242,-1669.86069163902,-393.423110678404,-149.348802499403,-1489.73851153001,-2591.70932757329,-797.488406074788,-1764.27490504671
-896.369731253179,-1096.33880703953,-900.890143767238,-935.355890043537,-1170.34677526733,-793.805225993614,-840.999385625495,-1103.36749142382,-671.134454575695,-832.451823281359,-1392.0059502113,-211.1944536003,-523.788508537713,-842.566357230367,-56.1561346389942,-183.395595175415,-98.1339772794633,-67.381185603223,-242.875808976629,-71.2851629780239,-271.10311000143,-193.831373250031,-274.559014083823,-503.22944047944,-317.491279967847,-458.915458064395,-368.814694653209,-454.667895492694,-601.168445635669,-416.123353078971,-550.408603840481,-669.457777376726,-771.422164921875,-403.229092043666,-529.068340933132,-628.84708114052,-717.891713009687,-821.547436425733,-545.055374064004,-657.717813938195,-751.96795622707,-820.843773475959,-809.384840000374,-849.310506853793,-900.297560516041,-1759.80816102109,-3127.5218155937,-3013.86935264116,-2002.05259618558,-1976.56896134378,-1353.27336708153,-1711.7004962646,-1007.37663238171,-163.849900181018,-851.913271003017,-1366.65447087575,152.658802801797,-1109.11701668101,-679.285001811947,-539.30549209567,-1067.67877049127,-2832.58644918522,-836.1131749078,-1675.16305275031
-793.456744781854,-979.462624465772,-869.21162403881,-851.273582188465,-1028.56229188129,-764.54818707714,-799.725867664145,-999.788371563667,-596.83877589369,-742.932630478379,-1183.72822596189,111.510046933513,-205.8569313396,-470.517157731904,183.24663345435,105.961171211466,63.8480159225214,161.342407867103,114.82038043256,82.6076904786178,-43.3898385768507,-140.800948264039,-122.280431225973,-312.798332368221,-221.38444142906,-304.122951671261,-299.625491435697,-310.239922106134,-431.441918368155,-342.740820439082,-442.005399873572,-521.535897625547,-613.915746944673,-356.732557624547,-449.079747163928,-520.301570194292,-583.396582991627,-685.595559921762,-487.87164299431,-581.12981230564,-650.586381261579,-713.358510460618,-742.107700617537,-769.951987840956,-808.104453358355,-1507.70026049539,-1829.33060448238,-2109.15283918426,-890.40575504229,-771.343064992743,-1205.51284771827,-655.197737591695,-623.028261945362,-152.459151790405,-460.607387552958,-696.667095931902,-81.6443672548633,-463.57443393953,-1294.10613544174,-1182.43982837155,-830.696206838671,-2867.29872170266,-1008.73296475272,-1499.28522375347
-531.585386761583,-671.467150861179,-674.146727392828,-601.02849545008,-657.087416861463,-611.420256066958,-605.530288186282,-727.484760344399,-380.000721041101,-559.974506902636,-844.64718173047,485.570811212538,267.058171461107,6.91542154645747,329.315546613865,378.145592675887,203.40747184708,396.340712089661,448.394583829552,232.168108448131,192.412752592176,-81.3825128720424,42.3702616492953,-78.5679341367358,-117.753985255005,-121.958561652505,-204.456511564574,-159.56822578349,-219.636919458122,-265.241341390147,-306.910638810555,-334.039614363447,-396.805531573871,-312.132569214287,-360.514770668061,-386.759833882208,-414.743580505969,-494.87201995275,-415.684326855722,-487.141828553593,-525.877859265485,-560.91221207796,-649.878423434606,-671.091335519012,-680.859247295825,-538.395447548868,-303.442676928252,-578.638558735499,581.518015694357,-144.781378981539,-470.660083946269,815.224588059375,-336.595896901689,-105.47245214945,295.998042575583,40.8510761230858,-497.097945736458,236.589086636697,-1938.32933712004,-1502.66627543547,-603.771338783967,-2777.60356133758,-1142.58477611211,-1354.66743965487
-204.085861400598,-351.890717539824,-314.204764437528,-254.423683551855,-285.399194362664,-316.85408480165,-231.633770118606,-355.868844204307,8.60175271446376,-197.460179458119,-505.597096591319,795.098323125574,827.427909625127,607.858035481013,343.640589978205,655.008300938096,277.016155750411,598.590301463295,742.973074785507,336.226324258451,411.144814788685,-14.3407242145427,188.239767940748,171.652712904483,-11.3647226049299,67.7502919513095,-88.8927668235343,-31.2790285666438,20.7143409343306,-178.966243979323,-152.115307809997,-121.630843588183,-130.284714055605,-269.310046845303,-266.832165405183,-230.926724306064,-209.984432878346,-249.781191560701,-344.06205068315,-380.204892808477,-368.263006458727,-350.797742029916,-546.343792547003,-526.775208117609,-488.507687528913,1216.67450839478,290.9606017277,1335.45806283657,1948.24556521795,-567.077719636338,752.496827022014,1929.89822717405,-240.784226115728,200.212606922552,1340.33208294277,153.074296556694,-818.365167884429,576.816224447321,-2327.71087170234,-1212.94435743008,-435.638297081651,-2727.07991814939,-1108.5724700408,-1335.80655197953
9.6034438799884,-202.598372257331,40.8928974163995,10.473799203604,-148.603374611626,7.13490233048617,156.106187005805,-51.6388550691582,421.944780788315,245.761649009667,-283.888701613719,973.016515136839,1278.45473640274,1179.22715411343,347.813968592173,929.682498563551,299.576094975112,770.840709352391,995.140808098325,392.358789548234,621.865085274133,74.9191782077892,313.280539935564,410.929986544382,98.2629951867331,249.092617566139,24.5232980268766,76.5280592917268,245.317073476192,-76.5962491273105,8.29728023287132,90.4310613438539,147.286104144624,-202.986202474973,-159.669009552635,-67.8751638582268,10.5103091059549,23.0565488587193,-270.25101783518,-266.416587546343,-191.805157904504,-109.189379946935,-444.579152689663,-343.198111032329,-230.370357560824,2890.74039198324,-293.722778007803,2893.86584591678,2337.9379245719,-1646.88091554001,1956.26150203839,1822.97050924888,-92.9212133657788,812.31605096341,2026.67603342001,-826.711834945338,-705.227279352484,228.183644379322,-2385.4012196059,-790.300507028295,-609.840080015557,-2753.89516806704,-951.045796903749,-1415.46252295785
88.2021997696555,-171.7211789042,249.151976138283,126.335928338474,-166.045533299867,254.890239333637,402.403516958035,122.241215424839,723.363829349507,593.83743043445,-124.298213359575,1098.35565585584,1527.66541514948,1557.21568409005,466.892521173312,1112.9851613817,275.245030192787,905.027567304957,1164.82547533442,404.395320690462,783.568081733994,129.361980321502,386.985577361294,563.466787396007,159.388226345,355.911172966766,78.566571797424,136.007736534376,357.43126776333,-7.08057064543171,105.648704252735,218.129811445286,314.679399699469,-134.62640455273,-78.6778978706953,34.7891143962324,153.025851914086,201.869796417802,-214.167927005939,-188.335242683015,-74.7776614937619,54.9033905256985,-367.626719251298,-200.139651842429,-16.9741306091046,3587.03733980509,-1148.2834520641,3459.26421880079,1574.9338673549,-2427.25150065984,2665.22889137671,686.964437911087,312.528323525245,1292.49897223881,1770.65383280383,-2172.54674874293,-244.921309458307,-512.372087020881,-2220.03664975076,-781.331384004449,-1056.23254266515,-2700.67743405334,-796.315603452845,-1443.64632138073
191.104321105093,-53.0631812442423,385.924363786281,242.878052050782,-49.508136976721,467.460206769736,587.129429086473,314.070439471992,977.435831833219,855.095277322996,188.606441214056,1297.63893204716,1729.86170434792,1795.93915675031,708.723252062252,1200.08410851631,243.24854790417,1010.68212234847,1259.62542146803,432.469307077245,875.79379239282,123.083886501963,419.272942581942,621.348684498421,168.518516883866,379.138890273751,62.2915954743965,154.928658832359,348.248212047971,6.72608183485184,120.806545442854,240.162576987001,333.58535403901,-98.7989712509446,-51.5102467403585,57.8557254560709,181.73266284171,235.531025056181,-186.056052340334,-158.343210600817,-38.6877067161188,100.181370066424,-311.909815272996,-134.542076582585,74.8585312402225,3159.6519341013,-1358.25098590415,3100.03572828739,576.83819309613,-2353.67481021986,2621.90935864457,-416.002159335336,718.898685574339,1235.09864177322,846.499345993467,-2746.56701257856,18.2372054183442,-1065.3204379625,-1983.17818008481,-1034.91565778022,-1334.20290021501,-2491.78080452099,-723.569096365627,-1333.14572641542
388.47262268863,214.846965992294,574.898394967778,478.105983446242,281.920022505069,699.650412762767,837.593373869063,642.833238363193,1252.94794906662,1143.43483321473,709.680962541338,1511.19405906025,1994.35899799216,2005.67715861229,970.670989406147,1315.54251417452,294.929380448146,1118.78016741179,1290.97562834509,538.086736615028,930.344180612839,132.938592269695,469.879301339097,666.278341217114,205.194379718688,404.816350098524,50.3369435740918,196.93434255931,331.163736927297,31.930738181217,144.349656569939,258.883897937537,335.444414718426,-63.8252096401043,-16.6910460007481,91.0199009723612,201.765643729327,250.419009016492,-136.281252750935,-101.88552174455,14.3673783438781,144.163066004307,-210.61665692581,-53.4906443314436,136.69005945583,2102.91559936998,-1038.45156368002,2249.12656761013,198.331066610429,-1804.29404448832,1858.65680859006,-821.719343915036,750.780154706457,784.979106184737,57.9530643431898,-2406.90863899222,-270.541051357688,-1287.42289605914,-1795.38168017322,-1201.43352356633,-1300.98598572384,-2244.52331537246,-733.68646754999,-1168.05215692819
551.966204288277,477.152587346562,747.40382641338,713.269655275007,616.922212226268,857.026351977378,1054.59186760193,973.813723576306,1397.89952279875,1397.45561794308,1184.13095585887,1507.89094598655,2116.30324610936,2097.69178328826,1080.32419643454,1436.12141776847,428.423451155415,1192.4176072259,1231.65964038261,656.603316225131,946.156905604339,204.541887443553,538.560080973023,719.536202143592,296.521861992919,471.442581198005,103.632049409828,279.915490772854,376.355712945497,124.052446326764,238.607775642993,347.492232100105,421.914852574336,23.7727666139069,92.4326432319776,204.856953936194,303.974901980188,354.945165762005,-15.2734495465739,42.7485369006381,157.693909788852,284.701108486639,-8.84262581443557,129.876125594525,281.435550201208,1070.12438225072,-921.288041814953,1217.90166486031,192.844571086927,-1459.24973217528,795.822468066641,-815.577257619566,395.271981384416,264.085744806759,-316.456688408202,-1859.49071741138,-876.801965629053,-1431.87713410446,-1714.41594586617,-1342.84727832391,-1243.60671519353,-2022.05004788704,-783.394675225689,-1075.18150619713
583.370227675465,605.708687266619,774.098411092132,797.678260224151,798.183408024834,851.011975871751,1081.98267925837,1123.52175800462,1298.19355797969,1472.76603312163,1397.22128539407,1273.13990661678,1941.09346892117,2004.19593054322,994.071425432237,1366.32985680154,567.773310430434,1187.81004940693,1200.54364348906,728.311330339913,939.593848945858,316.13854130029,607.134813399092,763.529004416399,405.889291211063,550.733332696277,215.92727746703,378.777398657838,461.590779743985,261.541345160758,370.637436159783,473.625746101645,544.386282758426,163.043207280547,257.376228154336,366.319402138481,452.989005143954,502.593036573534,161.602903193795,244.545737334982,349.531649202833,468.223157130544,255.551463233867,372.246783973634,485.616149644557,518.459612699087,-1167.48377716341,327.701810838002,-57.0605559206964,-1388.58682586752,25.695991407572,-868.503132335754,-99.1919702570519,-227.367215779675,-566.486023078737,-1485.58935520221,-1329.35887893128,-1570.6797277453,-1629.20032442337,-1491.07689051542,-1268.23343159557,-1701.24920514789,-773.665289098272,-1045.80228752514
527.95320576053,608.56774295223,677.071867373082,740.968237717297,856.116881152014,762.891628006718,958.230620771191,1083.44090017724,1116.44622420264,1377.88776848547,1387.70804059248,1116.12433121385,1685.40679678077,1871.03382424815,957.903137669324,1122.47021547135,742.779366922211,1188.64467149029,1382.36126761982,839.420494183564,997.668521232272,468.443424875439,718.531752621436,837.686165156691,523.313592144007,641.269516106303,349.924111546594,488.29384674759,560.63376671865,394.035648463641,494.040914004941,582.424926768546,630.817062404328,302.232247526588,409.434784809381,506.556926436455,573.680602197221,607.808944741288,331.237253201947,426.490760420276,512.146905781087,601.443667082438,481.280607936575,575.509373700181,661.294253941882,508.340598499089,-1269.38730719075,-39.2917114608708,-441.462924960808,-1133.47251764294,-195.215762782,-931.832609792002,-500.616671074357,-607.455305974114,-786.047273032984,-1066.26098098913,-1393.09616263475,-1473.2271389325,-1284.77645718668,-1308.42971223273,-1073.39570506222,-1175.49312407495,-566.400698700241,-944.280314769378
447.465500792842,508.064856075444,568.42579752074,605.107645072971,814.838549035809,714.836431286535,810.254002054752,926.13454889595,1042.83070960998,1215.71636799371,1254.3588849935,1231.53984114596,1587.21895520653,1797.49421847311,1217.39908843142,1017.38638789021,1029.15521351734,1305.57520795669,1641.80608486783,1043.59433032952,1124.12012618872,655.206007133645,874.717931274953,939.381405095156,642.284530426737,739.312264769876,464.703141769447,595.170218818853,651.297614682511,486.742409275207,583.535409944607,646.569520040572,675.008817994325,393.446534829665,504.427895371599,591.254828178714,639.737150650857,652.712738240175,441.631698341808,538.787461135287,612.875249701284,667.665097592662,605.195540902564,698.304664729685,771.378651574443,716.933432070743,-931.346232896815,120.067946637644,-478.33302563367,-496.989368496389,-106.126513951217,-756.094659393666,-644.621785124776,-690.06784442997,-790.145251295597,-477.905134325876,-1119.5993362108,-1034.6495218764,-601.197478354273,-634.238977308295,-479.865465274428,-532.70157292716,-137.990333428614,-687.119473166717
405.438965070257,350.936920674174,542.492410414881,454.054669586618,691.291472314697,746.714521140852,716.838835865422,742.609089954789,1074.09010976808,1076.75443420907,1084.88342987161,1448.23913379798,1609.40772125888,1715.06991553066,1629.35771758527,1212.62500590593,1339.52791069268,1483.56071975963,1659.93789582818,1232.32951190278,1179.38553197652,812.381597400638,981.887342067152,968.074764064174,723.663635112925,790.288316735606,537.867418030087,660.653327482913,691.159254161382,532.359567592222,620.418743080518,656.51766236207,677.927587353532,436.62117327553,547.510485967311,620.405886685492,656.387918593467,649.680718824255,496.18553357051,586.682414297948,655.779296953903,689.128097895504,653.44870485387,751.324935224858,814.436489094231,804.357062866973,-334.04287442548,374.931780368298,-138.019652045275,206.922220270586,-3.39958501913562,-412.40393408885,-471.722468440192,-426.618056206077,-562.788340037199,42.4899773385081,-667.57533974279,-462.253550072289,164.512681164178,232.055360265169,277.827862223548,108.879834053069,370.186676814413,-310.132575060403
490.94640604999,271.020211832453,652.888198584035,403.882925134648,611.693977705951,857.453857770982,740.01277332959,674.741094083771,1137.51416702242,1043.67683742077,1012.92606294015,1523.72677149681,1630.77214613511,1590.77925582318,1834.38928510243,1458.91348806977,1486.99741174568,1544.7969231548,1447.98072703299,1301.11433639359,1076.41160340711,884.432369225761,972.756160368503,871.749859431176,739.527165297009,753.408591580438,570.733700762477,661.827893490057,655.703719291309,538.781538274788,601.019470942539,612.77413526161,617.724606255182,456.514317125598,553.277981787443,599.245385155467,621.628211842923,591.815938686348,521.78638456887,591.513920851417,641.499530256187,660.697667068764,668.471649815069,738.33343105454,776.989234400797,749.78244114443,231.571249673741,425.087307438021,204.856819203313,593.913404378451,98.6285887812405,-212.058875017652,-125.399967649486,-18.9752857194106,-345.020297151988,331.359498462078,-176.592827464197,-16.6947783486182,737.392282576961,979.608801414328,902.10606685554,820.84365799023,821.641202328522,158.434867941716
688.430858124394,342.282935211643,861.380014159151,517.659486003208,669.999681747802,1021.34503630286,895.032092048335,793.041348663836,1217.07788638095,1145.79990310867,1102.67459040674,1460.48941179746,1632.94614397628,1497.4600036877,1747.57817939052,1492.76937073722,1466.17774469119,1430.66390582352,1280.80040228218,1291.27761048141,915.895430864596,892.433984567893,901.06345247,737.066045722567,717.262526348386,675.040416802027,577.968213221211,624.555261677806,581.94187277654,526.621530594548,554.578728751552,544.156673732864,519.461342511386,468.273502955911,533.292396494382,548.16356182722,550.876284329581,498.465010841237,529.864598154879,566.62461763758,584.589269719595,589.468435025975,653.253707420764,671.681639547264,680.565427660265,680.386114670191,569.943122466804,311.374679564843,239.855938410911,588.675470471411,204.327250868938,-329.890054497038,160.956157382883,231.098483879912,-379.503046389686,484.765709858731,247.62431918631,171.78743499308,1111.40464001256,1494.62678128371,1252.97015638435,1665.05939300015,1170.79474985655,706.751761895068
852.667810269206,474.659644424951,1041.24014358081,704.887452891214,786.426236071463,1167.13825658566,1089.35436951749,992.013754297406,1306.38677149498,1315.66847982067,1266.47537493623,1413.44233113574,1642.88427107057,1494.55252348656,1586.82906627081,1394.0149871867,1460.64217683997,1254.9603233014,1229.37486793589,1280.51920749112,838.068035029591,889.258776641586,860.323867878104,671.598634939921,711.544588051244,640.110154151422,585.168329319006,605.513390995876,538.833125587193,531.689598520555,530.871207075379,508.916647762495,467.17001698776,486.359645366924,523.481800197484,518.372378213487,500.58543201479,441.226146465488,538.395101803787,546.613904794937,539.385670000441,535.1191757763,624.711270311385,610.075458115514,604.637455834834,572.247902144673,659.760226282037,75.288001237201,-69.8537832158649,432.967043677831,105.308671516356,-652.27271848064,305.963207296237,127.617993181838,-686.664918502708,578.174351404231,484.619023263922,95.705752510412,1348.09854194149,1652.3889168453,1242.68507083486,2371.78592487663,1369.88479482158,1188.28774394151
909.945293361327,586.528618714994,1113.87800079452,855.685498171727,881.189311157719,1229.35604786187,1212.54426436867,1141.70615375442,1354.95320089559,1459.30195322224,1395.49337597322,1401.40723817102,1622.83879859465,1555.70249564003,1461.79159236723,1298.28033699447,1534.98296513398,1069.65703781822,1133.96394520747,1234.47313084232,810.732185077856,875.377859207376,848.267667987084,671.73613034294,731.489235100276,661.632701930218,612.569931753972,631.224483904223,555.346373821213,573.416658380768,557.156560356522,540.614714559644,508.785144102552,529.104477584306,559.351040432622,549.245976137644,519.410894941078,469.78696396658,577.919970381753,576.857380814311,557.417630732181,551.200718588383,640.064155876785,614.002992563903,603.074431721972,403.135859692529,678.520153980114,-276.540608520482,-498.421964272957,449.658889189417,-264.228976392138,-918.324418168113,366.68868194058,-256.988595370108,-1034.13100340393,601.880642821542,421.202018064161,-47.5004000337587,1334.67352562218,1432.22858365662,952.308001119896,2593.66721959542,1372.28902993282,1420.48020277908
934.469351890379,715.70065064658,1117.03778150108,967.590236089689,1000.66669859884,1199.33613075202,1236.45849184691,1226.74370759749,1298.4060913096,1525.57322158657,1459.41912824692,1265.57834609266,1455.71705492045,1575.08255412661,1245.15311057274,1092.23866945427,1533.98216332864,787.74357502512,903.944926102201,1075.29401837005,680.51469954913,815.54896895406,787.914932008708,655.9350312847,729.66801148465,674.082509294207,646.292248842176,666.001251230104,598.313928684741,627.804112511827,610.443476267357,604.243189779231,596.58936490224,592.769012100695,625.174212368581,617.241328296328,586.591019168949,551.411313781088,648.93693418258,652.487128581844,628.876051736949,619.934759317587,720.343362704179,677.142807958369,650.632433259584,357.842825922377,787.140155575496,-500.202175688024,-708.628716317187,754.50714853446,-567.995883365419,-916.061921926459,353.722973508292,-598.388115514477,-1067.23736414834,716.289560215095,128.61943292592,175.888484200287,1017.41918612899,1194.58040865743,794.451671111216,2417.05935322678,1265.11550025078,1459.29464112566
955.23693143524,838.762096441708,1071.92065824387,1018.59883968161,1111.15026410076,1065.36061119902,1133.03756265904,1209.41318018776,1077.01231802376,1441.59267301201,1414.69826595542,884.280101797354,1019.69592934319,1381.54072059593,833.722157258693,623.914696506299,1299.81275686169,379.976325923293,560.001800032831,802.64375151012,387.156736659701,697.601891905126,629.333202048076,546.585385128772,645.725051868875,599.457000499673,621.883616241408,631.565648459661,585.634241872429,624.734350464996,610.039444210682,603.684399988359,611.069315869098,615.776405354804,640.811142858248,630.492716100047,600.692798661173,575.379312682421,682.507332627136,688.759155300275,661.100127698603,640.539574432171,778.546805287026,708.002119575559,653.975453021804,508.088094610393,895.22997300112,-343.911672093668,-587.278713261253,1174.91640044117,-511.416293528912,-580.53837228642,244.915179344297,-561.080142663751,-532.196018149042,1190.84479130651,-34.3038487133468,1037.29296073438,694.323600873175,1359.19937581986,1139.53020904113,2256.78393326075,1233.69278756379,1521.11037117517
867.535569083996,788.042314222884,904.270227368358,881.710891717605,1000.84512098095,781.134872374855,818.600457340922,948.488001620986,655.214550363623,1085.80223677271,1157.58686013452,313.604330120676,316.129959735573,842.107958331886,298.397656698601,-20.6522229784434,847.878980886998,-56.5582303710382,127.491816171535,459.817532909913,24.1670507220636,528.809510955423,377.869312810886,312.483723496034,455.718290090111,405.393176094925,482.984688854504,478.080200584915,447.397788143403,506.371388197625,484.199667306346,468.168385852169,470.798774070926,530.411575094281,537.522164158818,516.420455314919,480.184272210872,452.15663248975,603.892112979707,608.136947337897,567.469568212479,524.579297682684,714.942423302619,621.113451348401,531.633977656988,564.745094040411,834.548559633398,2.78878748570516,-395.863972318908,1483.60845815395,-238.704253143698,8.53572868165274,155.067201371277,-28.4322700870874,476.16877844969,1979.72787577078,282.694943353957,2172.65459455591,741.301898340038,1814.9910914866,1805.49316340639,2321.3344519441,1337.54564804324,1669.00572041621
605.36127289122,466.921786115591,577.475330850306,499.511701414206,541.325916201327,378.08766892895,307.975225044809,410.270508300764,117.723025689651,462.855551411377,667.885957110638,-247.35166612844,-434.587647243083,57.0775524082079,-188.20701858313,-572.054372996429,362.914576165845,-411.744722454841,-314.897846515329,109.862562582888,-268.896115164243,333.346123012304,105.139520422343,19.0419611228242,223.830065249209,160.10780943985,283.552476088768,264.982726609595,230.732373437892,324.322510337072,286.014672701644,259.540109766503,245.036312749669,378.08920614804,366.256163597605,332.474145885415,285.647302008213,240.313183730892,451.859216923898,457.108795737322,398.494385015319,326.012176040592,569.159881414231,459.9655222613,327.889774151274,286.214901710306,666.668800524649,136.6650615396,-380.606807639256,1595.13740272561,-20.9737388683652,680.037970600365,260.572829140561,792.401234546746,1466.84583214912,2609.12933362563,916.376729458455,2817.22770589959,1074.87101957967,2020.92206726929,2197.67426535151,2443.26638303523,1401.74465336878,1766.55871818843
256.124287603083,3.15947239791258,185.195628407167,12.9581612082062,-94.3993334205962,4.1480825367847,-203.744182359088,-200.111024051425,-322.454046479071,-200.007053528387,91.1551360368268,-580.222114507349,-918.331566679446,-658.432472095668,-465.76365597686,-816.265611910387,37.2942514156258,-616.070939163092,-629.342323502255,-142.553174682555,-420.415672845481,161.046465465813,-84.5904577707302,-212.652785895729,61.2772687528155,-17.5821744433053,145.526722392744,109.383377687899,59.5036389808009,194.214203535997,140.92115225619,102.048177167613,68.1304821919813,268.042092532831,240.451921117368,196.98920228769,136.691607506375,70.8428395373251,330.964938241044,339.196177506709,267.529077429628,167.210744502418,446.569567924118,329.398927227474,155.823076005759,-188.359319097857,530.842140422074,6.57223635229922,-394.8279483652,1471.77237191258,104.509683986874,1219.26864650341,488.910021420845,1405.22255733338,1916.50359221678,2618.74431110948,1220.20316636992,2591.26983607938,1186.74048333408,1685.30018956233,1909.25346686992,2330.86143652215,1174.80013594807,1654.80657555139
-27.5493532269491,-362.823295096229,-123.27143263941,-348.449748810831,-562.559699011504,-210.239544638505,-504.411478126854,-611.311784002861,-502.36497843712,-640.298871790023,-384.542634766521,-615.468239183809,-1004.50148934437,-1050.98227867664,-520.802856804871,-762.743965082608,-131.854117270377,-662.229650734632,-766.60522736355,-249.394706820773,-451.815764376316,54.3605067814823,-161.592463389176,-327.5135810114,4.03275218409272,-90.4788408933145,106.063577948738,48.4728844557636,-19.6870892473574,148.480125426223,81.7613588120616,25.1090613565219,-22.7469541201477,227.762920852875,186.445013281625,133.415829345808,57.6478414669776,-19.2947778518576,268.199853011418,271.130704476362,191.071264752964,78.5050030889522,362.387976533222,248.761841244674,49.8368845431643,-615.854695486697,346.497750966864,-79.2700670140617,-180.575817734005,1080.33376694688,200.815492759125,1457.72956441492,555.876282237233,1415.69671591712,1794.06770791919,2051.19413998307,881.570905995744,1852.33112187559,812.559405760615,1083.00338437506,1077.31141248668,1816.15956182285,620.010312817431,1263.17603838799
-168.163728493611,-495.54259594739,-255.979557826219,-467.714510433854,-689.081341381922,-250.251348932852,-542.298774239248,-725.046904810729,-451.142809550156,-773.412333783257,-669.392851366598,-493.580208899072,-821.855910719122,-1097.33900387111,-503.682627489855,-593.209992146716,-287.682306914308,-626.719909334189,-792.333589556646,-277.556568043766,-400.533799755644,24.6324425755486,-171.122640645814,-333.587391724718,1.16354289440647,-98.9257694705937,106.689117954562,34.2193252051342,-37.6295867621999,135.463942097353,58.0082337085869,-6.2909622678306,-55.6158909086864,205.611169873718,156.749430400919,96.0154919469017,20.3256693820068,-53.5446412500858,224.73507409994,214.275000324936,135.056106546975,33.0949208335026,285.371927307115,186.571212328094,-6.44296301779539,-910.208252944773,-48.7486718134606,94.7398419782963,153.729696419568,547.315416127325,282.447673663783,1369.71526947501,415.929361799821,1021.39355270887,1569.09745288943,1396.92325871586,444.800696064748,1205.50407969419,288.057908658232,679.322377764532,219.41718458744,987.327405141279,14.597109325808,673.631554657472
-219.747567109191,-468.923252419886,-252.265505926645,-435.241845806069,-626.167537338354,-188.396423900556,-434.427625009398,-670.730095647136,-320.106948269804,-702.410665592803,-795.873969898244,-382.027273169673,-573.374306986053,-946.660271331013,-517.418856012053,-456.480118929238,-452.042997937435,-581.392649486335,-749.220194243116,-286.266388679194,-272.407626280683,56.4006744900459,-138.626345144141,-239.584526018701,12.9064062002266,-65.84737097866,109.057007607772,34.0475067012024,-12.6595075162901,124.127161997985,48.4904344236756,0.672962893166049,-39.1975336708205,178.605782847462,132.928604245863,76.0414309360314,21.5424185745231,-33.0374461999958,185.206971869244,169.091933444223,106.583856223751,28.9315356950388,222.435225130181,141.085333908241,-11.2071924918956,-993.462765088383,-558.464899404371,440.934997269669,260.78338728535,195.053710993623,419.776287638243,1056.21148692737,377.35653371994,791.66056121998,1545.72294150814,1045.60714517618,579.183026555693,835.525911496565,58.1319496090755,606.93646358195,-263.091002080686,175.227210978421,-336.019659631648,116.183802451714
-287.882826689455,-452.808588904864,-239.855878829346,-421.141580597002,-616.342999948812,-109.52134697693,-331.103011948136,-628.000003352717,-213.447457871496,-584.763713764931,-844.191048033089,-284.978123818555,-369.279591136885,-779.348813210196,-505.730744089752,-366.33733434344,-517.488496665871,-504.589689309043,-623.655316895502,-274.153870643098,-115.614226367853,95.9686277675182,-82.2835160471703,-101.753537371625,28.6679198588866,-15.8978142678366,115.209998807125,43.9829215704105,22.5817728673579,111.501199254305,48.171834485689,15.611056106042,-17.2772131759902,155.525659765634,114.358996819506,67.6053609816117,24.7899425459345,-4.47996031552659,148.034092654544,138.185567475398,91.9038198985604,31.8946786200418,168.432460634376,94.335348714034,-8.12908980723058,-764.255345581613,-747.048978797732,740.931673297523,120.430437010277,350.824747670326,689.643304026232,727.454386909753,645.521046237062,876.08363688449,1425.87868789273,953.700584965221,1117.50983564032,510.199707761595,99.057535038242,594.191673425641,-422.532906230061,-334.27306292388,-437.143181587692,-266.550123623748
-404.541265958808,-526.490901582091,-288.532974218941,-482.479995942508,-705.70622952894,-62.0907160422418,-285.933257604104,-632.899892672801,-136.481962132638,-505.553672570452,-840.05731851749,-130.813205008361,-220.061975281885,-659.51768797849,-412.393776167916,-268.713994063082,-500.793284270471,-331.699139261462,-433.719717174537,-249.027394800022,-26.184259972339,79.7208996247822,-53.3501802416425,-25.9221814383523,21.3073306174363,-8.55173457452938,104.899819010887,41.6079303689319,3.19666357408226,79.747063388366,21.7309435463158,-27.4492827505333,-71.3512617448036,119.985200248699,74.2438255690349,24.899807291926,-33.7005417140204,-58.4780858143501,93.5163206699881,83.8806933345579,34.9311677273114,-27.6810840450219,87.4000095696032,6.6019373876487,-72.6370631304477,-415.148833853421,-216.045054053527,828.243520537861,149.162112247027,1039.58132077557,967.696049177176,653.561209660719,1056.87285215989,860.286704404843,802.355069993043,885.751370583097,1377.8388659424,106.031721006362,75.6494055492378,331.500393834632,-571.277120211132,-561.109534778262,-526.047797374842,-586.364474158408
-507.837258280164,-625.987584241908,-351.228903271476,-548.986795333142,-774.315771722399,-57.8394678176038,-259.019521121088,-601.220649431405,-70.5059320528198,-444.207511422936,-748.217748932823,61.8369637830308,-91.6914798819301,-500.767817054498,-270.550676859479,-118.637000590054,-562.632908116885,-39.589298509304,-231.473700011403,-204.771815540732,-4.63734343010222,10.9450385377831,-64.7842471795728,-30.8974873888209,-23.5526456664201,-55.78991288875,45.7684704041089,4.73832567503406,-76.9987682812884,15.3708260688656,-45.9915803192422,-123.451649222991,-195.192414065066,48.9033439848072,-0.736021348706376,-63.0367651772363,-136.00143415925,-183.077928536645,13.3265317343263,-6.44188604808679,-64.7341958498405,-140.368352843458,-15.3398999239373,-98.3886369482792,-181.503139713123,-367.391568200011,800.590197430654,651.536938085309,551.351180358535,1770.51162283678,1030.39398125795,821.243841292863,1385.43458589876,475.38296911736,-184.319203388565,662.655233193205,1168.6663530649,-288.683122556168,-155.040329937089,-222.682323086655,-890.29938094083,-714.668505519899,-721.8042596542,-970.482357988017
-521.984506175708,-632.998697960219,-342.512694616391,-530.656878815157,-720.62652741255,-74.6416455969919,-191.974943521626,-468.633059357966,-2.52405692793775,-327.326082950268,-556.368293556626,227.626185389652,55.8345415810215,-214.477571125085,-90.3136781393526,84.4793860126857,-674.774332970514,299.370149052548,-45.435575555748,-91.846559562237,48.7016083847128,-53.2861848088003,-63.3573247368797,-28.8126480454667,-75.472949470251,-98.1330898965777,-49.7252844711617,-58.2479376610602,-152.83159725915,-68.7265430824008,-122.671182694009,-200.193060766044,-292.905588514381,-49.0422777834319,-88.9036474003408,-148.195546748576,-208.699724211165,-273.507850110009,-75.8076923192441,-96.2828505692616,-149.508395561686,-226.725676168299,-99.1726532606516,-163.160823884998,-248.465196608631,-575.391679736665,1486.47046391871,321.866356908741,908.54268057571,1813.84873477097,868.531725820479,717.779445288824,1560.43450622563,-57.6502685389593,-1038.97013511681,86.8089648306666,832.717801252063,-748.248551870573,-477.791363144994,-904.426185049149,-1352.96605554125,-963.807304585659,-933.486978347032,-1323.41398940496
-425.518215324551,-501.051526630933,-223.892281636303,-391.090919500553,-534.36457439076,-51.0650235418393,-52.9547867209513,-239.718313202797,103.692407624309,-105.663730355046,-294.505996484686,374.872883215146,243.921361657787,164.896218367338,177.109887116362,305.191281884386,-512.581954992021,540.327659571897,119.715230995346,84.5798915910103,167.97662076528,-85.3181810659229,-15.7947118981204,32.7798017704423,-95.3478322847828,-90.1952068161487,-115.335554183067,-112.21089194769,-168.990425856576,-133.761186556122,-164.367000547696,-212.835476435016,-298.72950182547,-128.949561193877,-150.111005879946,-179.610822417253,-219.507809144763,-275.833817874678,-135.80424289414,-144.827051582128,-178.765267707366,-242.071291164427,-134.900827866442,-175.134722204685,-251.583733610478,-363.081140981815,1282.72706087632,94.0744017584216,742.387145043259,901.441321327954,693.824195358016,-134.170088202275,1487.20598334232,-478.690075069992,-1555.08827081248,-921.990464502416,460.475719470586,-1440.09183389171,-774.136204687346,-1549.560627705,-1823.25380745159,-1332.06747662555,-1069.14542064881,-1465.49158203434
-242.361426732682,-277.821919148036,-18.1440863719075,-154.938254099334,-256.064200052113,76.0577143191169,157.417639968138,57.3252652617759,291.100206177548,212.993742703938,32.9910729443905,572.180104824833,488.632935572295,559.138745228534,536.491669894561,553.080275043966,55.5950295045531,666.086977130044,299.866053108043,254.559844571218,329.627037387632,-78.2037182441221,82.9786288871652,154.318502125909,-44.2685755088965,-7.56082260948806,-74.1917557609814,-92.3665991000257,-86.8540528611606,-111.592127248332,-116.687471729547,-132.717553429314,-188.961659043847,-118.748264480603,-117.127015540763,-110.749935938744,-142.006425474703,-176.935192298511,-101.017225587222,-101.851235295478,-114.298610083888,-160.765531674459,-81.6860052570525,-112.644241957635,-180.998038321875,629.958683303293,367.927852548807,179.243817494828,55.6079705012014,-475.582039727621,631.458635129226,-1503.04077482125,1067.66297800441,-814.741210875023,-1943.47331143343,-1994.16530447095,-232.294699191153,-2172.26240080202,-965.3334896928,-2024.24478051147,-2091.03120170116,-1654.48297264276,-1129.39875788134,-1362.54824099037
15.9873496351467,16.2293296058237,240.075608685615,145.65635065106,103.548249080126,309.873519507121,427.012430542421,410.134763260357,564.88865069725,591.217639899401,464.495653570703,845.049550475882,805.111124233847,954.19140948827,918.332566438207,861.656743408467,674.376166918217,844.790851878445,579.123722105915,412.019819236377,568.351848460399,4.80356693794388,264.346598099445,362.904654908374,107.412625301181,178.565190964353,77.2092545398483,48.6748094410155,112.683399159854,31.9136908240378,55.9541248059993,65.8434303132338,42.8062325449345,4.53067142811342,42.2235692043512,75.0026092524532,56.8087034733833,45.0092109312716,48.7369816748578,61.2482179285274,70.5877658850077,44.3035155554291,83.4528621857501,66.6835986013301,15.3385215305251,1748.21212852152,-625.55516426638,472.549325964408,-836.572956633954,-1493.82632517561,563.350883136108,-2525.02138912245,509.38721189097,-1091.24882443312,-2300.52553281678,-2459.84491612614,-1145.00015527435,-2433.88925182725,-896.584202549426,-2111.07109686493,-1939.61202649916,-1676.05432760284,-1060.51278889134,-1103.76686638776
348.003959734498,414.624515502781,527.271916492151,494.971902968157,554.843353689761,577.503787014026,719.524570703217,785.009826128276,854.665648449373,959.455310200604,963.238336958624,1096.99038568178,1107.7360807883,1305.03320961627,1194.97853872899,1086.12353084087,990.531799388928,1076.7002659235,924.556396489791,576.085932982654,854.62507091171,171.43504417211,496.789027268881,621.920866270095,295.353664371096,406.418237976757,216.994543727419,240.893359294657,338.758119678311,198.689176587092,264.947561524573,303.322570006225,308.379221268689,133.512949210952,218.608627305899,278.969447672915,295.72122295346,315.218946052849,197.677084933155,245.118716485027,284.454553600893,296.311434441301,265.82182803612,291.848804321001,288.329749667162,1945.34936077566,-1026.18657915163,511.395172691407,-1452.15709673313,-1548.94206909699,300.062837597023,-2370.71151801766,221.052245513405,-1062.99571689133,-2181.2947112186,-1917.3273596171,-1548.0285675602,-1881.57764049819,-437.457256351922,-1555.39795988598,-1265.92556580686,-1300.81441639985,-719.430800114885,-725.677830209174
658.045612313226,817.496636454743,761.648821901614,800.70795016812,976.891928465342,754.438298566378,917.343628112968,1053.62981826159,1004.79290997165,1171.40479217148,1314.63307393795,1133.8195910185,1169.14836305242,1422.79035391822,1181.890431894,951.633907908692,1005.15727006794,1069.28661998112,1044.14100451722,643.647172292943,954.495642107099,320.126043890803,598.96494726837,724.296889202192,356.665471945018,485.669225105439,202.638858711961,314.379443057736,400.788942430329,219.882138441347,316.779572650551,382.605225908506,412.397169956314,122.03714210899,231.489887187928,319.836133443027,373.73449852923,422.594348209388,182.733455199533,262.36866761345,333.182363297904,395.007511437992,286.316906128216,363.974591053549,419.494639578253,978.214612037446,-573.11324209919,-33.8695912602167,-1298.98771289307,-630.52805150457,-158.826271646542,-1004.08563282222,269.178564355425,-528.502088995226,-1157.23584273336,-617.638272916664,-965.308434116624,-690.382142391799,255.560092703098,-430.199869776051,-282.330476349958,-748.002391078813,-144.22853884314,-268.83507171894
737.642196895661,944.035250154584,788.258449401728,867.970010442694,1105.55555425205,722.540364409669,869.749413188834,1046.28767079358,880.013666497975,1085.23128227344,1293.32533325523,836.958520357493,835.891308837492,1151.88856732837,829.251746206459,464.709804423315,818.509422954343,709.044955709439,663.56703540229,507.902541310687,674.264924680567,327.709182351488,429.359283606872,487.109207861698,215.79466701038,299.988740020296,50.378256148206,184.029909303541,216.558958616398,62.3344579394439,137.308926439265,199.805779391224,237.911539131043,-29.5157538122262,47.4720128167611,131.562302465112,187.744257761207,233.096695603427,-6.00890339604738,58.8266788442061,133.818188822491,217.245581350282,78.2786838664838,173.210572746991,245.33913183585,-233.86579186997,250.435482407458,-771.089772219673,-415.894701291345,588.140642015424,-526.730058995176,654.306287900562,283.924153285114,288.563081480158,305.736486056544,708.331113146222,114.63426809484,487.150144045632,781.753384318503,672.240901850058,416.145002809662,-361.520668914131,320.447626296807,44.0171863519301
458.011933496078,624.125834274588,518.972934068355,585.631169444513,807.993637198618,455.617556245855,541.438216279771,726.283741854882,496.005981463221,714.991266431834,948.13199800267,306.678400416958,217.402659609677,590.412758986714,386.270044012048,-37.7231992274883,506.945458430555,267.868388437799,-36.6672639460517,251.463201253255,148.870106499943,194.188471057933,95.3812044483823,21.3533844829242,-4.30680006530553,-22.9597356286021,-82.7031527063702,-41.0262724447539,-68.9896686955961,-123.529745758994,-120.746077507181,-106.750751928671,-96.7387735396319,-173.195549234039,-171.646951800782,-142.69728729566,-127.275208884376,-126.439462382781,-206.526034079023,-204.700494390246,-168.762755029155,-122.752213177101,-220.053011571464,-155.736357263786,-124.374707711638,-617.997491199485,680.394847820814,-927.653278801264,588.907827996397,1256.61680333598,-493.316943245104,1603.01044857973,27.7917388527136,935.941402207338,1213.89303332718,1380.77620096931,763.742459649616,916.191885841836,874.998333025572,1122.5532907223,309.304647280848,-212.115946470174,365.505083906568,3.87903369311034
-56.0795352846107,39.4650972534115,48.2271992114815,87.6382165761346,275.611352983969,44.712213902452,57.6205579656341,260.352276787185,-16.2572696099598,212.826932577671,568.665880642843,-256.321836924217,-446.825536308967,-23.3889595112243,100.976869355191,-345.672684989521,218.392250486247,-35.3484961556294,-555.094987862948,24.0905918869942,-326.953362333892,17.5219265600603,-186.185154184551,-368.074509004652,-146.216269918805,-258.010103761025,-107.189130374458,-192.230492817617,-249.438984955346,-200.732837627744,-269.261912925729,-308.732262114827,-340.487772351673,-205.353799834674,-271.578451700367,-310.457209705545,-344.273960868675,-391.609985726228,-286.270655344296,-347.821127880975,-366.541577603271,-385.264695149164,-425.342618944403,-404.932352440229,-418.938630234923,-94.4285539564669,543.335978217796,-341.731121013357,1225.89448329798,1018.10696090451,-112.010020790682,1595.34177602419,-319.883040066989,1146.98448992196,1166.66779604928,1060.07262760922,604.115725167781,320.901492137222,586.742187039675,841.219794153621,-465.287330686456,-91.7177908093417,30.9858001621707,-254.960234096366
-505.446408993955,-422.801191341414,-394.695166186254,-336.646448527112,-143.852021884096,-351.34079718424,-378.846836651679,-106.827501848726,-508.647002010295,-244.596739408519,362.983983740153,-724.944194628518,-983.430455794552,-523.587314741344,-68.5028658407194,-518.762693740879,70.1724030085473,-245.667824648355,-667.035872923787,-127.674025679114,-606.615195273644,-111.508920039604,-320.015992255496,-503.571106136573,-174.892860994624,-306.824348317735,-66.4531405082173,-207.479989660298,-246.24646594165,-167.214396464646,-254.702724426498,-299.021590120132,-329.246972594194,-149.586813093016,-235.636559363578,-298.576523717373,-345.66643451492,-397.313374313773,-249.295314965283,-332.642365705179,-374.405174792642,-415.80530253063,-466.837590106408,-457.116274637502,-464.14174251392,592.463457633575,226.401892612527,370.669736545335,1377.73057852605,107.419852588493,285.884561651165,945.587211142889,-585.445718109843,886.61253893425,553.506247627617,-183.772134754383,51.3942982056329,-726.240741055941,161.835744576038,209.533368025399,-1163.14087382678,34.4608312665414,-399.728809018708,-388.841538494133
-669.511932935088,-529.973106744946,-610.304492368356,-489.828752656915,-270.14342944672,-584.783296002743,-606.732427438861,-249.870096914828,-842.407354518513,-519.21290254979,289.688317426566,-1021.47591025871,-1298.10662454822,-835.875642611921,-216.376689519147,-615.49788799618,40.724034424966,-381.571193243731,-573.162703392343,-209.647719598484,-681.578680371677,-149.283535886304,-319.893255222361,-425.817901603016,-129.338378711662,-215.768811021972,-19.4703034515129,-130.093625579828,-115.135222741354,-75.3729490329969,-127.357716601774,-126.926701954701,-101.390223595209,-62.9701891521662,-118.981076433503,-159.151819475594,-172.285774637972,-180.736194882543,-150.633561768237,-214.188783106433,-236.741548075717,-240.560265128787,-369.30999742832,-333.289684623876,-287.131138007657,749.397414766921,-94.5727403989709,576.430293674052,991.637501887425,-935.358726359456,426.601991665828,40.5270508232778,-875.329866989665,204.896731553153,-64.6335541403117,-1733.61627164903,-282.285360356265,-1221.14664617061,-71.9541326094027,-373.993468275321,-1120.97596217503,-54.0471476613717,-629.416494805446,-262.423389919846
-551.159054472346,-349.138324249531,-557.701903837729,-389.284107075199,-175.417220709947,-591.729793464864,-584.309296454109,-209.715727442658,-918.087568731513,-549.081693842729,239.247837844066,-1078.78056442078,-1333.0183274567,-915.286883945874,-274.264327406559,-602.914950822608,77.543176856566,-350.650537278303,-443.728798223973,-216.771381856181,-563.344174101183,-102.951467249927,-213.308973008399,-234.876246704065,-46.5455838031415,-69.2987203945888,17.9184121389287,-21.7901623364472,43.0011959001735,34.8954422486984,29.3477046748053,83.823521147088,169.168686992454,26.1386909755096,19.0673274601913,10.8337605011347,48.5199043636725,91.5381078197485,-26.4368737717928,-52.4668424528966,-46.7799183550848,-4.68936397697396,-187.93961209157,-130.393026135186,-35.6137596163979,193.43525035866,-480.389096784194,198.504263795452,164.096691268324,-1477.04928593546,127.911174054079,-722.409510705063,-1213.28319176783,-672.440937519958,-355.72072592261,-2570.37188571381,-210.14593721868,-790.530234872975,145.034893986284,-649.269401268271,-331.366415487134,-275.987720467675,-484.820779442394,14.0592485247176
-271.795235209705,-45.7762677419276,-316.420406669985,-140.709201089954,25.8796571206214,-395.186248434561,-358.492716926021,-48.4044558135989,-722.810792911839,-353.192930736106,249.368218886531,-907.749670572018,-1081.81496936433,-743.037971746537,-192.641988458848,-446.101567907247,186.50294944491,-182.413869562849,-181.726160532617,-134.230039577482,-314.236250971915,-0.734975829113782,-34.4359894573971,20.6289419396881,62.4755955471332,95.6125182882559,68.8852409258073,106.383035509645,189.923582339336,147.663888602944,173.84078685812,264.121205569112,380.480431076961,120.297030538963,154.270653675809,173.823015803636,246.376055627629,320.014708317749,117.306832056706,131.534669242404,152.825840647516,209.11744632695,45.6334874695063,92.5524786075885,198.527548209061,-671.876154741656,-635.600322613614,-353.035582534526,-583.727761615095,-1081.49074906274,-601.792864905003,-900.348285935875,-1267.09019951783,-1276.63232737066,-288.34282069355,-1968.87194792587,9.98730801063381,101.747824883982,713.84918077946,-534.357186882192,715.381328797876,-102.641466898245,-43.1052734901627,396.355731757554
65.8396621178321,289.699598194341,8.69402880602732,182.626168893442,287.059427580339,-81.4237331421588,-17.5054923907271,207.798311852667,-352.739951814438,-24.5854701282686,395.996079467798,-624.138719179437,-623.031333778275,-395.551728229797,-67.4307054227832,-151.356160273537,346.426599969728,-55.7894916365666,270.969138869742,42.6873198860727,-48.8658058528965,142.879268972998,168.450421039213,299.467060626494,211.067952598354,287.188912325903,175.636714304268,279.461105635686,367.741085946325,281.322841627798,342.037030001263,446.943955444411,579.975781123555,243.488942460382,314.807728095494,367.125167953285,456.305917500677,542.792774254142,294.57983427769,353.602888597343,389.081039901738,442.396600521071,333.176391598447,354.720709131906,440.371288642438,-1198.40968738042,-178.011780595621,-630.420384752407,-724.121952656163,62.2210272901275,-1288.99098478455,-302.081283337989,-793.936136360167,-1289.23555964211,-59.4108014621504,-250.410711185305,93.5648408612952,940.176696863618,1209.52355463631,-229.997950886814,1603.69779451863,693.016965592936,415.678631956487,909.240334432281
379.64193841079,590.586315554509,312.749743102651,498.445226713996,533.499929512378,218.571592276628,313.991318543917,476.650419053862,27.9655491780334,286.817505679036,594.636095716659,-351.790880756001,-97.1854354505477,-38.7941677880457,7.97796485923877,214.765678972337,474.53815189442,-22.5771657358981,727.329844333201,269.952186597188,191.892572557015,316.438075800187,369.902532786485,548.99088814185,399.814607308466,501.068721099189,335.860461256971,486.06417167336,589.51139184002,445.621201372713,559.986845224767,665.965693338082,812.105817153073,396.72171437439,514.511388573194,601.970035975792,702.211116068073,792.553903510681,497.162104638464,607.090937001967,662.884771337126,718.475795327625,655.311845418124,660.77047518294,714.625781923431,-1184.27433123648,578.666097403965,-584.256510791188,-376.02099471138,1167.79469834401,-1399.16657777072,629.347117237625,-171.382083822189,-977.407516985102,138.259489899506,1396.31247280258,33.3704441963325,1538.09788909648,1411.34867262396,-11.1996468131363,2203.76230592784,1682.81223644708,734.721552355634,1422.16511645398
599.506903183531,789.166453941571,516.923581427038,710.624031613059,674.751722240685,414.413831177799,533.408358479145,646.527373701184,313.210665803773,477.243579395792,701.524586552461,-85.5274370580758,390.695070926756,247.517415095603,75.5345839835962,587.791647186889,546.504468261239,132.050499315872,1029.25926244746,495.591253521107,468.155672890378,503.74086112871,585.678946927228,775.953560622355,601.999971856144,716.652742070762,498.322163534001,681.244502354263,804.728663340956,611.146774444198,786.281085322684,893.101142734161,1039.63503217699,545.954784990715,716.054445776196,834.845032952237,946.080131033846,1031.41903852493,695.129374275488,854.613474990134,927.099070249546,987.036774451488,970.112133987022,972.036984077282,993.31261918952,-999.694950521406,911.938501172273,-556.714973283945,-92.6517496133399,1599.87277574136,-1113.86064607508,1119.80489547706,5.88703238537993,-881.146179537337,242.179792173016,2113.58929988393,8.54468856434261,1790.88729301252,1547.47345085154,131.52879192159,2435.53022059588,2467.1576197961,1021.97369594784,1766.97455132554
669.146071359917,836.206971843591,585.546241554442,757.691972045167,664.758337192838,511.36618553986,611.78367463042,665.850705764239,511.627376291683,556.844653257392,675.820291627328,269.844267938246,822.741477393844,530.239589795653,230.976240390732,984.058542177298,607.749211712243,517.190056680791,1271.44059835474,691.702251859055,783.445501381124,671.265643634433,794.045150717773,1008.9718641784,771.598671126725,903.896843000909,622.924447957031,829.267685530174,965.503939612406,743.880921310726,961.12294494252,1073.66292986772,1207.59345013415,663.741981468297,878.243126671046,1020.43073353057,1136.5757827605,1212.7170169964,867.071018668606,1066.49920381779,1142.46126965662,1194.68466556459,1244.77810602778,1247.35690472629,1233.99944579436,-981.427175477794,651.798155985438,-782.901166911577,-110.775646992424,1408.28985223273,-1037.52648299948,874.863494550861,-290.966406476825,-1069.58974617906,119.913608474035,2015.11392460109,65.5297962426718,1512.13762902562,1826.80622460953,381.446145612831,2209.21512510998,3105.70174889869,1357.81344442745,1946.61068386523
538.999621062307,680.936322748835,501.126828244706,606.19077641877,462.936003088406,537.41357395451,555.637228516794,511.631217184684,647.868564218615,549.938405569011,501.289282311679,684.147074264001,1182.21911780487,787.013759620488,459.642583544736,1373.17982062597,642.679580631531,799.21996861706,1531.96331282122,782.280299670145,997.469935772516,732.26258874665,874.043071822672,1169.51401507281,835.264092785873,985.591618813985,679.707395315326,883.246171422733,1022.39013239956,809.181582840886,1030.76931964342,1139.40637864598,1252.67650222494,733.929894732296,964.869175206177,1108.88737724778,1208.94290900502,1277.50022466009,982.802545931463,1200.39139300545,1262.65140449362,1286.31289466006,1427.59650180799,1419.20034187728,1363.35441692855,-1108.82470072366,196.430637469518,-1106.31685547005,-288.967480209694,898.669814012302,-1303.66623535701,118.806750503369,-674.42173210949,-1254.40913906839,-538.985673343195,1557.71657001177,-39.0634550314147,639.197768676492,2076.50812116121,731.804582537855,1752.25618973685,3681.9220791825,1614.04237797238,2028.58713946683
285.032718255079,400.515748216927,316.965141191733,332.032315878775,146.114454049529,503.442457570275,416.816327681601,231.192724106335,707.191613715152,459.972194806361,169.512052265462,966.42930027044,1401.25932290846,825.417857558676,645.475242526303,1575.66113315658,585.896213580819,681.83866626276,1614.47702193426,698.585340383946,972.05254905208,618.725680847677,739.918318417035,1118.0802480893,738.617438539206,884.026776671503,633.649206841269,798.207284201445,918.59406765343,766.440955790931,957.677641856616,1038.1681364993,1114.85096221881,732.412948484788,937.896782052623,1054.32179184008,1114.11314945793,1166.12682260656,1004.285026143,1204.91326571663,1239.1773856286,1215.81109703635,1470.40951577119,1424.13559260894,1312.60937312878,-1247.64626665248,-137.802655905368,-1348.48924430224,-634.218711185679,212.831137699473,-1611.32743857809,-988.97894745517,-979.939679182502,-1490.89701337919,-1754.00322751209,1043.72573309834,-496.698097580913,-351.018486383713,2121.71268114879,1094.46991448818,1660.11394236864,4069.46775059023,1740.33232948965,2085.59712017496
169.33161427327,278.958987924892,206.95844857922,187.53197380276,3.80336742912207,457.280243458688,333.863324724668,41.053202449874,705.270092761936,393.552763144019,-150.743132168066,1007.3183458999,1469.88896248361,627.321468563767,743.667705512201,1504.08282631446,450.698077568336,428.823874917664,1332.05064329702,524.582647260968,721.186863806521,414.076763876077,490.285455186508,836.200373645689,523.760309775806,631.203707167633,486.139515172743,602.144136907044,666.903230694582,614.700942213989,761.409596872781,799.100534162095,822.284963095753,641.890418477742,796.698447110388,873.245948261034,889.12515060389,905.441122137217,922.314851538961,1079.91290114836,1086.16429108453,1013.27512611916,1391.99183259628,1287.97826999527,1111.75975582733,-1355.98235652061,-184.056662729468,-1701.04430688517,-1293.97845192868,-246.4489470017,-1776.62759633876,-2200.73273530039,-1238.90744800501,-1873.41664505538,-2789.861122873,855.785677483,-890.273557833962,-556.016798975736,2214.53564873292,1682.01760963736,2282.93714315227,4323.21280723128,1975.50358750143,2323.70303268559
362.174064672275,485.683521323136,301.571870191769,346.596368719619,211.962590678309,465.307441471516,405.461793600483,124.747799958385,696.726769619752,481.388902886939,-213.023870156591,919.062270557597,1453.6560854223,465.349049917466,805.03987678048,1314.37898537523,338.785277690313,394.956613891122,827.186215738925,401.814888959598,372.381474199523,278.550280556572,288.463998484181,466.197450997494,300.85393536292,350.981948425593,295.634330581398,386.094321497166,370.463760898924,412.00520558571,514.623411969756,517.317699181591,494.092321348959,481.779000123838,592.909795074774,638.253388061469,623.000650368539,600.621599836342,761.778306970637,876.306369947128,866.806620699593,762.666017380198,1236.03518302953,1081.66225494594,855.476468047047,-1469.63603529122,321.414240698356,-2403.22799708297,-1940.61769881618,270.377696291606,-1778.83769118596,-2708.50697675156,-1301.77834228394,-1864.9724718036,-2678.4011909326,1422.38656536124,-488.732050691112,417.005128398784,2670.84254565392,2708.06336277974,3288.16196215442,4739.82305003716,2492.83412019526,2917.88922269726
696.56709095893,808.412251840437,496.698990539601,639.364101910842,541.677152614495,504.259113313273,527.493030600796,344.142372021732,665.737172173441,620.510271422294,-56.0686857824945,832.842073619359,1315.07208849976,459.664125163877,794.575003508132,1105.27146826274,318.008661861027,412.333566223271,356.192374300346,313.666273360978,60.6491723851672,231.15060047723,157.768547653369,157.836325806742,135.859496351224,129.635780275971,134.217192040467,218.300246775349,131.362459355238,229.666734149245,287.973336633238,265.745378621232,217.703660222481,315.44790948263,395.78880829276,412.462131002827,369.889413940828,323.106136085453,575.745352549265,655.161270103726,629.912883342725,516.274592318314,1021.66284725339,838.496837578942,598.295863312251,-1584.26680003653,1490.630037216,-3081.36373092425,-1725.36596510106,1830.83717586322,-1606.48928386394,-1725.20033680841,-950.058807539306,-1021.44448861971,-1257.29717018104,2679.18379063415,602.886781040761,1976.52751713324,3229.27030293896,3685.96642950291,4108.81180201625,5281.41256625923,3014.44825495121,3650.38314475117
