241.485634709167,244.385492225939,242.645577715876,238.513280754476,242.718074153795,237.715819937364,244.385492225939,278.241328734249,236.338387616898,230.103693955838,238.875762944073,237.498330623606,243.370542095069,237.860812813203,243.515534970908,246.777874677276,235.830912551463,252.940071900416,252.722582586658,260.044722816507,264.104523339987,211.399612972661,262.002126640328,241.485634709167,229.668715328323,256.782383110138,225.608914804842,217.561810195801,253.447546965851,229.088743824968,240.688173892055,257.65234036517,219.156731830025,245.255449480971,254.245007782963,263.017076771198,241.630627585006,275.558960531236,263.452055398713,274.03653533493,263.597048274552,255.767432979268,357.117453190441,261.78463732657,265.989430725889,251.127660952434,253.447546965851,251.127660952434,249.242753566532,254.679986410479,248.010314121904,255.54994366551,244.965463729294,242.645577715876,251.272653828272,253.665036279609,240.470684578297,239.600727323266,240.905663205813,248.082810559823,248.44529274942,243.950513598423,245.545435232648,250.982668076595
1153.02097509677,1165.11331478798,1157.14744588164,1137.39479819304,1157.41894338781,1133.97334699771,1165.91077560509,1328.29586200223,1129.10488013226,1099.01392587563,1139.91222873057,1135.26125117888,1162.61728558422,1135.89377433051,1165.26267729621,1178.85749739407,1130.75672304716,1209.61940783749,1206.5575257435,1245.72319680903,1258.67966757874,1021.57293261745,1236.81442738155,1149.03367101121,1088.61287185041,1227.34361180849,1054.19745545659,1046.89761021692,1200.57292825483,1075.20394392361,1150.25199184272,1215.95730142277,1049.24573345657,1155.53941535023,1214.72385226221,1242.57279629167,1140.65960415947,1312.45073924061,1247.53661747294,1306.38680942156,1246.33969797521,1221.36775358461,1688.85944639854,1248.25183287142,1267.40602081116,1194.34988694682,1205.3576931575,1195.72731926729,1186.05851234192,1212.14804389988,1181.44305473713,1216.56595698056,1167.35779127521,1156.13249575077,1197.35776084841,1206.38967498976,1146.03016674202,1140.59730353047,1149.32656985115,1182.51201306041,1182.6370611466,1161.59942236509,1170.97970008291,1195.25682069288
2234.81186977909,2252.49094968437,2239.19382760562,2199.3074460365,2238.42209712866,2195.510519872,2257.21733676224,2573.92026037873,2192.04783291038,2131.30989057951,2206.24493672512,2206.85908198837,2256.43770852992,2201.95287261404,2270.01731904668,2286.91811690662,2210.24584898576,2350.86981072581,2335.56153184986,2431.44046998844,2428.23476111737,2023.03235051519,2348.8458520366,2206.32267304914,2084.74747640183,2374.14694096666,1960.39474236279,2049.44007558517,2281.56269957374,2014.62088806417,2216.05927606945,2292.78952677308,2041.94099704205,2180.9658235375,2347.14519515051,2348.19941910438,2158.91563151488,2519.27750817773,2373.5295630647,2513.75486160787,2368.8049981071,2361.58199049619,3206.08093564537,2405.45370880792,2439.78796462981,2296.78490906304,2315.50324776075,2302.59582962144,2282.07592568492,2331.91520402346,2278.37617019605,2343.02011117867,2254.34572223217,2230.10062255121,2309.98209260057,2318.49732799935,2213.37120356799,2196.36293462681,2223.90232521204,2283.56326624159,2278.71397814793,2238.68045663255,2264.54879066556,2304.62827739529
2294.17607976531,2301.49001347201,2294.3920123235,2247.10587823603,2288.21966017628,2252.31834777795,2313.00125582633,2640.75214352643,2260.99342677763,2190.76946564048,2258.07323321555,2284.40762741913,2324.30198035392,2260.83794180573,2358.12230889576,2351.95797055751,2312.18727204485,2424.108840606,2385.45414896868,2538.03039970458,2457.90719827317,2171.18205940382,2316.19358275288,2208.71501239953,2103.2964279393,2408.16477364202,1847.90349911252,2130.66052471194,2219.37991228712,1925.71487868651,2198.42999124321,2188.3788421967,2099.99998072902,2107.74204830772,2362.09868378952,2244.03612857043,2096.26787372865,2492.71794195203,2319.65174839803,2502.42002335983,2321.64328011281,2390.90107200169,3116.82604218288,2415.86305109406,2448.28425312007,2318.79757724392,2324.57692635071,2326.73218547863,2301.739007167,2348.8657384625,2313.16057187609,2368.4860120051,2300.688701594,2263.26550748563,2344.78068858019,2332.03196105149,2256.02490273517,2221.42880802519,2276.10314462944,2325.43480570138,2310.17538338013,2269.20380783088,2315.14951752896,2339.48213400426
1529.13695737441,1521.561593177,1529.58555065369,1485.53111486766,1512.38473765281,1505.03068335018,1536.60772011389,1758.24671364738,1525.50966348697,1465.04969531837,1498.4678047494,1556.66404812379,1560.62471363617,1507.12757459252,1610.95777051215,1574.6497326025,1604.07381011637,1625.35431875357,1567.57756238576,1757.53943032971,1572.2897187306,1590.92239003411,1439.31150973829,1391.37042449523,1396.29241166585,1537.85112733239,1064.02535310293,1438.92681275674,1273.99799350734,1133.61517751568,1272.28430370168,1198.51872020999,1355.24240550745,1226.96340582966,1443.31377834939,1192.76291174199,1220.23760673174,1445.01988243419,1345.18851601441,1469.63658626751,1372.86872900699,1496.1624708602,1777.12055613911,1489.1030789799,1511.70307916264,1496.88829339271,1466.26085530074,1497.80439499064,1472.31128078462,1494.08127385668,1510.33680264154,1520.91114277817,1528.03667293187,1472.51881535183,1524.44701326769,1481.59373434347,1485.25497422269,1435.9989876134,1512.00432753747,1526.94947880054,1501.85298409129,1473.42359074024,1533.18574522167,1524.93097206951
1076.64617742107,1065.6798074451,1084.35349564212,1040.66116906353,1054.09797424125,1067.34414652077,1076.44301194506,1241.61941250296,1087.36270975468,1035.12951476817,1053.84703936076,1125.92462041249,1105.25095339396,1059.92513642605,1159.29220874759,1118.25930434514,1171.93929756724,1150.15299606251,1093.04850970122,1287.80749310982,1050.75487633299,1249.15727742116,1004.24169488417,952.995815871611,1055.97177470724,999.666834707904,761.304030490452,1024.18104591582,727.762718652583,812.509719531815,661.037508903293,648.784684583426,817.867989458878,775.214716307196,846.537659469481,526.236868406582,717.40340657041,734.011993068431,769.423602323987,757.951934479455,800.217729295769,896.997741621758,973.346069981476,901.521600840213,907.727004219139,1032.79704064248,965.573221706201,1024.43786319014,992.370528721848,994.66764766658,1052.06653974402,1025.1711358084,1091.69198627146,1019.19961210302,1050.2706555914,990.190995997589,1039.73018655611,987.10020197216,1066.95417290906,1066.74678368198,1035.6816534497,1014.86590125978,1075.46518849473,1055.05138689963
961.316076098536,953.223835500666,970.349416635377,926.967372286917,933.517460750207,952.124827822035,954.333306899198,1121.9889233354,965.742580686246,921.34039700894,937.349904102056,1007.92260655764,985.608219504989,941.739940705932,1037.76105609972,1006.94703236328,1042.01739138444,1037.56713003534,996.956250695837,1148.06309670717,942.901002359805,1159.57088060634,996.088793597817,910.512457511345,1042.32927275628,822.595356946728,832.143208359324,946.418248418691,636.167369567745,889.876325334413,508.20973516815,552.718991276938,575.742531898969,763.427166660345,715.795584152736,317.320846319208,592.514389454864,467.3165544752,674.702879482091,515.276249120942,613.190677956114,671.220389327249,796.798106000284,727.906817701721,682.881105378114,937.65296767635,850.689455200569,924.330716646245,884.420764790593,877.269919704983,948.306681763604,911.508977075706,989.354901724434,919.367831057889,943.095668792078,878.47904403969,931.795393569235,884.566404357059,954.578982806166,956.663490373486,924.297615571645,905.796089570515,957.237538459144,943.731101147696
643.987103432427,634.97005296116,641.338421016171,608.044933286551,611.097129875147,628.546881477631,627.497672636628,769.956703695992,638.648979876143,610.744591674477,612.761358883149,678.622755540125,661.091382121364,622.028254849117,705.853513333905,679.40734798186,696.416498658123,703.640650000525,690.256510971644,751.646701845492,625.008488180493,821.842714397009,751.550147227474,664.720850277088,790.581955573763,423.058934466127,631.706195929142,693.235258951813,409.094654212366,711.593331347335,280.683268780292,270.47370303048,225.299454645,585.592091789278,517.270191360738,-11.710814044193,310.421425268073,52.3854040043762,472.737962420612,200.689184244793,215.965099893458,280.140118986575,430.239115074125,365.022402936645,263.336055479698,640.720163672636,548.524537907458,618.770711284543,579.852878263987,566.052430160511,632.764819595038,604.18929282824,663.04810085132,613.854560686123,630.152366012151,563.019987349732,616.953295738421,578.709366028548,632.660572003002,630.258460730456,604.256037250452,589.070916059,629.640763577613,619.68989433949
238.051735810795,225.501532726768,224.851502349983,206.010066304662,206.820492247404,219.973486771046,217.610377956058,312.002942832675,228.224839147558,218.925110008564,206.164957942666,262.702516036724,245.51781300741,218.557236717456,267.051723620105,250.096951617424,259.229915368812,242.178592884809,273.533649590092,216.733287874345,190.770247310297,350.292744013072,347.990283251525,335.707003036868,389.908158496577,-23.7494953327949,290.433664141872,331.413793881796,130.999289220356,370.500717313089,5.72433412392585,-63.4013564987456,-130.45114247163,315.03484337747,268.699253453857,-323.620956874248,0.816456745157041,-382.133389798487,221.131395742418,-104.552601304928,-240.473312649688,-158.738711507051,-11.6984650715639,-104.349173583674,-182.927833403904,254.856445001985,173.629333390799,222.092525969801,190.295659702166,178.048399413027,225.812946094507,212.459918549048,242.753903241971,214.644265968734,225.959797065621,160.478432211761,215.083706287324,188.51460540585,223.087280225465,212.999432337045,198.249176521807,186.028813009255,217.955177041718,204.81401648591
-1.58774631758315,-14.6849317379481,-9.39922543844722,-21.6030756268044,-24.3516466520792,-12.357068816016,-13.8877175107453,51.8375372654435,-6.76899467441141,-5.85632641654227,-20.2233080311058,21.3930599213724,1.86628168043585,-11.3010306267031,-4.97105608532858,0.840587401579178,5.91628642514362,-46.6551006991596,37.3986179500903,-139.8896380196,-36.164638340327,53.2080868839437,98.2430835770754,232.44771848541,110.975669567638,-171.323620650337,137.269901994055,129.492209941253,35.7016151928168,188.741586468068,-116.38706963618,-167.108979103457,-324.355779928822,198.589110820632,150.467615377696,-359.480733266491,-137.440206699167,-520.042077765748,131.31336892854,-200.319738228189,-444.394233915366,-363.115670925359,-169.232520432682,-360.010431254841,-341.410890958382,23.2814693563188,-23.0095933917032,-8.02022365218401,-29.9351990845024,-31.0725883466238,-15.5833879879218,-8.31086838467353,-6.07977448496435,-21.7464150372394,-8.81255412371488,-60.4218404492803,-19.6743635014833,-30.8161591418997,-13.1234118268029,-26.2494723920925,-30.8361635967443,-40.1037140383333,-17.2120097921752,-32.3404335244428
-180.879223768165,-191.906645668126,-178.300708897815,-186.741822514172,-195.558836755846,-176.411375197759,-181.755480554125,-133.513030472036,-174.819264346091,-168.142464702127,-175.893441011796,-151.718169147851,-172.714527457855,-173.387576389765,-187.512676209092,-161.968949534792,-160.531811446507,-221.968963126221,-110.233287222087,-358.962479918664,-137.136796722942,-113.318717242418,-41.8284466953386,220.305753258326,-60.320524967153,-166.288959758684,103.152623557846,50.2149699385998,-14.5448603912624,126.276022843708,-188.453559701537,-222.13538305309,-484.25947727614,118.084040375017,73.4823156372695,-306.931824047813,-289.159624434077,-496.772825190228,80.4465640150199,-261.351846805363,-506.095517327077,-430.205341253093,-214.930202777823,-458.868772256343,-359.028356120477,-170.14681970546,-168.309538717216,-189.172025115457,-193.894402904598,-184.76441169847,-206.227560542302,-174.380732676726,-196.375300964473,-202.509885980127,-185.122053293171,-216.222676086561,-203.007328356043,-190.588218539788,-190.563374118185,-205.913803284273,-201.649472398929,-201.793512509694,-196.304014374027,-206.966689515552
-345.58424033186,-355.605844911117,-346.856770659473,-341.254403931799,-354.111964352995,-333.207273286994,-342.856319930219,-317.25787452234,-331.603241746164,-314.087372986811,-315.445219030961,-312.257735867536,-328.83600046707,-316.858509392524,-330.478212505497,-299.636831931146,-306.535136499754,-339.926687999869,-238.002562323273,-464.854873363015,-219.764814245735,-216.860378142609,-117.341329730663,161.56014003304,-106.669519053783,-166.043386745116,129.633103250533,36.2511200091422,-84.377599840097,134.189597802092,-248.63184513816,-315.248253736233,-604.528173930637,-13.4943530110545,3.96698712010576,-286.652693382579,-501.182456847189,-462.484488829502,6.99627694415154,-380.100609541567,-539.574518648225,-455.649361502778,-333.714852040375,-520.369271193048,-375.729970230848,-355.866202533287,-319.240530906882,-362.799445970123,-346.842642761859,-335.257284698607,-383.690799475414,-335.964649218134,-374.731797385943,-367.029299924592,-346.619124064514,-365.905593362507,-376.978539536505,-337.619527825577,-366.142347269901,-379.57486921111,-366.583571417554,-352.680526327954,-373.583058019724,-371.989929215123
-357.273560283073,-364.463176455614,-370.037236023469,-345.029032372194,-355.998555915464,-354.032083239479,-355.824737985969,-348.589511653825,-339.58393226486,-308.522328028027,-305.555206895518,-326.631737687087,-328.885795856099,-305.872204209325,-318.938968306619,-289.140191786958,-308.46679063142,-298.984569329715,-218.87344591936,-356.484025062712,-182.87941862051,-167.433867106818,-20.0729472053857,173.225337330616,88.0733373738806,-54.5267072117623,359.717511546981,150.017104582029,-10.9299058742606,296.336419307031,-136.891196715924,-236.856190633746,-482.361063453069,-76.4297237779693,23.8388188226938,-173.399623202837,-534.537994270107,-327.600370489047,17.074707207794,-414.074116329773,-477.948311723712,-349.9653004207,-436.826474242323,-494.953340570495,-303.068967027372,-386.85487541884,-344.034946566178,-381.209882173249,-356.455428581516,-347.928798298912,-398.010641638324,-357.451632541592,-392.728389055673,-373.866999922995,-353.499085036396,-375.85123840197,-385.694937800802,-334.092798547,-390.659781596555,-398.241615213401,-375.863756014659,-356.741585184588,-395.283742987302,-381.995334778737
-259.003784404487,-255.646509209659,-272.401855763016,-235.518485183242,-243.230413426337,-267.732051408718,-256.250420544836,-260.100904669765,-237.715272364864,-195.841700273735,-189.60374881424,-235.276966779572,-220.082007447481,-187.849406037977,-213.304615778137,-176.382657228232,-213.41981278158,-167.56870238747,-92.900101348993,-160.809374248394,-42.8607221178497,-24.4516151354828,176.103537105589,261.175348302226,413.560810220209,152.376097566093,755.418952516219,311.534938951302,201.872742136229,525.790835467282,146.789063756609,52.0300847772906,-146.540719979169,-62.0111899775037,66.1633890777748,-8.62372906367757,-298.784659842839,-95.8438044803667,76.2895391098066,-357.249375517467,-323.949166259981,-129.381389052535,-480.508512191019,-374.474056220778,-153.266724569572,-303.431690516142,-275.834151935869,-285.396190733826,-268.757452532938,-264.820367222424,-292.689413685155,-274.526760983078,-285.504121543907,-267.105490363604,-245.284657510408,-282.222207304424,-268.527848065891,-219.60759504642,-287.711607131025,-293.539892638279,-263.580620628288,-251.757895425629,-288.279131875579,-274.597027554063
-241.705416091052,-223.398063335751,-247.768959698027,-205.204865050681,-212.6751344126,-246.435863330227,-235.351845294774,-254.607695799831,-220.606596532167,-170.003783146814,-159.373353458404,-230.980893824038,-204.881908028345,-160.721989606828,-211.719917239746,-155.356213847376,-224.35954098637,-154.895405605678,-64.6810343992916,-140.037662274817,10.1154305202251,4.18753110631803,219.843110668209,237.237162409753,563.493191652652,207.559852009807,979.520168042137,301.219963683504,311.370216439189,609.709746538671,367.163891729402,359.77542427214,163.82544680498,-98.1779632937991,-2.94168013882973,13.7617457577368,29.8786627369804,77.0744332332273,51.8578671079829,-370.184981942699,-128.904775593175,48.6763348760734,-507.760095382691,-241.113556032791,-58.2550590444036,-285.898521811335,-271.062394231173,-263.308313395276,-255.277940399945,-253.70161164235,-262.488249735553,-256.578388578552,-250.08816689694,-234.999186786928,-205.383481921943,-257.568298156594,-231.944697182821,-180.715195796887,-254.089348322638,-256.469834863432,-228.250257486448,-219.99753753957,-251.968438314714,-243.870922542703
-316.870053441529,-291.144201488562,-325.702686558154,-276.515849658943,-281.685532710956,-308.948870471203,-310.600594105278,-350.104656855139,-305.551898551787,-248.755697002201,-229.210991218978,-331.118920033025,-298.40162061039,-240.520588303374,-322.411794064091,-247.00613443163,-351.249396454607,-276.590628002871,-169.098699951881,-290.276683792019,-87.3334813366697,-130.560470636379,31.3148848989625,40.3669387907985,392.506735138793,13.6188371977934,766.128646597359,32.2667919617656,160.583617554871,471.148874647135,352.203670225716,565.57936684957,372.189691184755,-196.641370749552,-168.715833051943,-81.3157089779637,261.838273614279,164.556789751425,-44.8049788778822,-485.793528968856,111.372291295674,117.673426177648,-486.712376794251,-128.932357757614,-21.7406504332435,-352.401921541646,-326.285440592665,-330.839057133033,-312.385913364877,-308.609207643149,-325.682593073139,-309.786014304815,-316.274159491381,-293.730090407413,-257.076792779108,-307.362193693112,-297.891978532565,-236.341842861406,-322.03064589378,-312.258568129332,-292.889241007766,-274.335950624081,-316.8414331757,-306.600019121377
-368.844445458258,-352.478924639675,-400.976546375266,-344.420250103712,-341.075206830425,-366.269520870909,-374.901421951996,-429.117996754171,-381.206912414156,-320.096723291082,-290.900930615701,-420.362715194066,-381.602184176361,-315.478383435703,-423.147707088123,-344.206552620438,-457.859285833022,-398.205307326163,-295.880083082347,-432.539542054293,-243.57376468806,-348.093141921959,-259.411543524429,-208.439681024936,-14.844105660601,-267.732828948632,201.626374044482,-371.525916518543,-170.266681154705,123.531938158374,151.262465056132,618.206565661507,518.53585902484,-283.779021815355,-364.753000292761,-83.3710902812786,315.099186516464,254.359801230033,-142.184333710952,-580.880401532444,323.658321941212,116.089855253318,-399.493406351531,-49.0585148660448,26.1762480922484,-401.028777855185,-345.005057366379,-378.550349065246,-336.282445018557,-331.149015226422,-377.666025501045,-302.126106738722,-394.796579718115,-342.56786350061,-307.922087428206,-334.497149495513,-350.994722591516,-280.605471130811,-381.401256558181,-360.975058745612,-344.327807047736,-312.742818164907,-374.316992113604,-353.941160970734
-410.478967595737,-419.666235726895,-482.331058418466,-421.926264832298,-410.839519318496,-440.385835713055,-446.664863166246,-510.950258662477,-460.575206712231,-393.703191923856,-367.440514076559,-502.201674486156,-466.102071927281,-400.608165439636,-519.95087007023,-454.86986060431,-548.722893960583,-515.427012165897,-440.161319678414,-567.945211305424,-433.007829526366,-639.546892231153,-562.852157721204,-457.164915696203,-532.079272060452,-506.205675293849,-441.765172154534,-741.188105426241,-485.829800471406,-416.817603769802,-82.7973867255147,391.117674734079,497.423408667948,-380.242483551866,-614.950953105602,55.425786202154,165.496105743006,297.041158381784,-290.108676074271,-586.328117230584,333.824529175439,24.1202708116787,-355.479260978117,-75.7217542625325,24.7961893567191,-442.064353988818,-363.442582693381,-418.769176969654,-363.882046915257,-366.111179170807,-440.157816466252,-205.68645899044,-520.636045928157,-411.652560273414,-383.140338302353,-377.282567883278,-412.127399602138,-331.711368193014,-446.416416303591,-422.530764140172,-399.665400661651,-365.001692508548,-439.54424704731,-412.428408689499
-536.272556177649,-571.088549409889,-640.455947530001,-583.69021804573,-572.288495631311,-599.490684536296,-605.738499248195,-687.510427753329,-618.531807688134,-550.239644750307,-542.411035325787,-653.864433017042,-633.529958669456,-575.348235545367,-690.366138218203,-648.758979953643,-716.004390482093,-714.135653595875,-666.065023079576,-797.988377460715,-697.872304793291,-984.5203894583,-884.533808972211,-763.562668345837,-1018.90257355577,-736.541847847836,-1004.31765136,-1017.41160172883,-678.896873552779,-998.867534892864,-276.33680099779,-206.902059746574,227.422385457773,-510.97914965121,-946.049642458461,158.836029200039,-135.884376576029,178.564303627858,-541.628325802346,-549.851438675808,92.3015411181993,-196.60059611735,-451.260876367867,-243.553019092852,-124.222786787038,-560.586025171504,-482.021650048438,-544.509455537925,-492.692492012929,-507.873084109491,-592.918819228363,-188.2083297362,-726.91546237689,-584.22703955017,-562.599887645895,-528.77589245695,-572.438805855395,-482.434167681842,-608.820320584188,-580.91961740093,-554.197913253152,-521.343017675814,-600.576166988313,-574.512255575747
-729.761005138877,-767.86948543045,-829.715672043961,-784.44570231761,-776.765465575682,-796.029886360339,-805.886727732416,-912.770721662148,-810.796413689542,-753.603468205707,-764.147507708093,-845.937375458198,-842.923992481004,-794.064161269395,-900.557296732223,-882.177185358144,-927.403583227096,-957.69670216717,-927.746557401881,-1063.0713412847,-991.447882442697,-1248.55333699984,-1192.56533355788,-1097.53678381464,-1338.13842382644,-971.865634078375,-1463.80354749765,-1229.33515151133,-845.791794036353,-1397.26770935047,-521.498575889512,-984.367144048363,-87.8255338643202,-601.231686942229,-1330.68189830424,108.069443163658,-427.082756212444,-29.6894266079775,-823.654691395099,-521.645103644997,-220.435065963793,-444.118187267027,-610.241503382074,-430.519813972868,-352.37313239037,-719.923077628979,-660.260253747511,-722.857631289473,-674.846490203498,-696.236712858021,-777.416729307912,-394.130553097793,-864.915133519786,-787.692338475726,-782.396993219015,-730.094059393952,-775.093142784902,-688.335195852589,-816.971142387942,-785.05168416778,-761.733279262084,-726.474372696779,-809.169224299262,-785.325614875772
-904.887408331907,-926.8868222118,-972.413162741764,-940.170709660595,-939.123099495171,-949.215865598007,-960.629273095781,-1087.2974087471,-959.46356425408,-918.746578300536,-940.178641366228,-1002.47191882812,-1008.999135364,-967.502199050154,-1071.04484179819,-1069.77930456714,-1090.57568563429,-1146.93880003743,-1136.14476279561,-1249.68631225703,-1222.3430811806,-1354.69927347739,-1430.399905323,-1345.42459010622,-1534.19730902043,-1140.55470949017,-1781.29235615364,-1399.8840478688,-1111.68494973265,-1640.36006132226,-932.101153772901,-1522.41625251305,-253.416508960202,-663.956377003418,-1738.13990529484,-46.4978515488681,-610.430335083023,-219.43013271053,-1102.63834119538,-511.303007406043,-443.676339608169,-614.234230675364,-739.255918808116,-538.765196947299,-556.634188411598,-836.664672000321,-804.461298666059,-862.732299578067,-819.429272432719,-839.036991615391,-905.711334921672,-715.911271480336,-863.756649580915,-920.584586565492,-944.775877585082,-879.835048906669,-915.116377892015,-845.817304443343,-960.818071554416,-935.120325787852,-915.864975401236,-879.732088850528,-960.655799925459,-940.946584917273
-1061.47302300354,-1075.81142874868,-1102.85904340917,-1081.10806452454,-1096.24587470767,-1081.43903723092,-1099.19822432207,-1243.66840339373,-1094.34025392408,-1067.65154249172,-1105.45529433258,-1138.8006689873,-1156.11343807102,-1125.95689182822,-1212.91231730517,-1230.53931397768,-1211.1451150683,-1294.13535998798,-1313.77235546955,-1381.06650654864,-1397.75689293536,-1391.20717842608,-1606.35831462102,-1506.61790758395,-1746.03826811514,-1259.73680126445,-1867.40736151268,-1539.99800281379,-1406.34803202035,-1920.94471059553,-1391.94073548822,-1620.53186668454,-436.103828253641,-852.499983953994,-2056.17485698991,-286.806650109407,-814.74224065304,-515.816494377733,-1446.55199685532,-549.848252817244,-687.112225262176,-818.429613106173,-950.353804348029,-694.373353727662,-824.963258459397,-985.914223324061,-982.12414999467,-1023.05706329296,-994.454035112912,-1017.34421536771,-1048.50082583309,-1006.19829566765,-913.056963780086,-1055.15567695785,-1116.31672532756,-1043.95459003046,-1044.86449976521,-1005.49952487382,-1079.62840145445,-1075.82587042312,-1063.3755029455,-1037.08752138431,-1086.59650203247,-1090.10809639671
-1235.7994488689,-1262.65092379818,-1261.26658577172,-1252.69974057799,-1291.94846389223,-1229.25517437464,-1265.49971199081,-1443.91003871659,-1251.00694000987,-1241.55272990912,-1307.44547203827,-1283.86741658191,-1324.31720108251,-1318.61360377502,-1353.93848586549,-1401.94184821705,-1325.14417414598,-1443.91245304347,-1503.93157137473,-1499.69847108076,-1558.56198597188,-1435.61805709854,-1729.56279536678,-1658.04220321823,-1892.71377978481,-1415.7785934303,-1700.89651151915,-1638.18686433436,-1569.64100809355,-2121.0693183012,-1629.92807020317,-1484.13063035415,-840.816959443765,-1174.44754922375,-2072.00768981554,-627.205579569355,-1137.47163796654,-1041.03400332153,-1782.97838558773,-652.854251098487,-1076.71266034868,-1156.94643115823,-1332.00404323868,-1000.42417024699,-1236.9025877439,-1256.60812375709,-1278.92902668096,-1286.01530459674,-1277.21176640798,-1311.58037935333,-1281.61978410212,-1296.94674986671,-1132.46193566162,-1272.70110956481,-1369.03430595356,-1304.59525131235,-1245.1019265747,-1251.01715271949,-1249.60440370226,-1278.94653040935,-1284.78319860199,-1277.77992096165,-1256.12727253736,-1307.17010754931
-1362.1123192228,-1404.81520994754,-1366.44958539529,-1374.16292573031,-1431.06643788785,-1325.10246875931,-1381.03726403419,-1602.23069873287,-1351.23859894043,-1362.31867716622,-1451.07546851844,-1370.82830980764,-1434.72960871503,-1456.15712239446,-1434.7614414693,-1510.37317376759,-1386.87311685817,-1530.65220516942,-1626.72167781264,-1543.80089546794,-1652.45791180763,-1439.66824065628,-1745.09887311212,-1760.98013439788,-1782.96005447461,-1556.35956253212,-1407.16523644017,-1599.48190571215,-1545.0272457168,-1944.7994691836,-1548.78518730351,-1343.68118830698,-1275.86067353139,-1435.53365828544,-1723.34765603807,-918.218061805472,-1359.92641129229,-1557.24455354539,-1901.2697574966,-745.019095034664,-1388.72348778518,-1431.83866076015,-1651.61830784774,-1260.01033507128,-1585.9147795294,-1504.05484042844,-1543.85117395905,-1517.25340010565,-1521.79547606445,-1565.63174650552,-1477.84076882384,-1562.48218412585,-1345.23212801711,-1455.51361715194,-1569.90632355211,-1527.67705691134,-1413.93193643875,-1464.25453479877,-1387.78650074222,-1445.00169667472,-1469.76607597922,-1483.29495334506,-1392.16763910247,-1484.77634588491
-1362.06098680137,-1406.71860593523,-1347.63108275021,-1363.2046693144,-1422.34659539971,-1306.93432676829,-1370.53664368652,-1614.92235159985,-1328.94127108955,-1352.49127150548,-1444.05302634692,-1346.93222029186,-1414.51539890091,-1443.91221951415,-1409.22763387416,-1489.98306088445,-1359.27607130934,-1497.36144328267,-1607.91047448932,-1483.36859278644,-1634.66741661754,-1366.59147012598,-1651.35651549118,-1738.78632656039,-1485.87833535527,-1556.61000045581,-1181.68277728519,-1364.81298330589,-1400.37987634927,-1513.77927267573,-1297.66006361145,-1222.82642514688,-1433.11426548261,-1556.04095183581,-1227.92257889382,-1022.37472124902,-1249.23521705056,-1731.27968862276,-1789.54466308387,-767.367858399383,-1346.34006480673,-1430.23542278268,-1666.51165051508,-1269.8694641381,-1642.22219042428,-1546.24460406273,-1583.45314718667,-1547.54058753389,-1553.26098706746,-1598.64153875096,-1491.76488692766,-1651.36747172251,-1373.83848994615,-1464.58107421681,-1576.43250109012,-1548.80413235154,-1419.80832333552,-1487.1167022811,-1386.16566686017,-1449.75061558761,-1477.0738498217,-1500.88667432709,-1392.18700087084,-1490.23214527459
-1291.20883836119,-1325.72959274049,-1273.36540384971,-1283.18381156829,-1336.56981667976,-1236.65181333104,-1299.93196313523,-1545.44943945308,-1252.87801783409,-1276.78779625439,-1358.36003134078,-1280.30790774054,-1336.57193013675,-1351.69153368447,-1342.0256265115,-1414.53735740712,-1305.68630648057,-1425.50660199164,-1526.26245038719,-1408.16738216534,-1580.91344604848,-1281.71222320309,-1558.18771181942,-1654.60989917174,-1265.87413743402,-1449.46676259328,-1131.31080373294,-1089.44560267604,-1262.62825082168,-1234.37559123356,-1081.40332884098,-1130.17413401746,-1350.04146065413,-1643.61312048282,-847.321590665529,-1032.48344683561,-948.988840118301,-1609.23685961454,-1636.71903976743,-757.599745313336,-1092.19984317678,-1278.56729678109,-1496.38841001885,-1143.51450674897,-1504.64728089553,-1436.75905329844,-1453.0148072195,-1436.08060509244,-1432.44306328053,-1471.81013014947,-1384.9756195676,-1566.03346273787,-1286.09191699967,-1353.70058115701,-1458.78985838142,-1426.39398733211,-1318.52376163644,-1374.44183239399,-1296.86622778324,-1349.27663759405,-1371.29463593471,-1386.85477501811,-1306.97850396222,-1384.2168485909
-1228.07587293783,-1250.25116599065,-1210.67596747566,-1211.26878556046,-1262.14143447263,-1178.36180316774,-1241.84846999522,-1484.44289728876,-1193.01987715722,-1211.89610977961,-1280.66077012699,-1231.47416307247,-1277.82938803417,-1271.84749837109,-1288.20507873118,-1356.03040528596,-1273.14739921936,-1383.30403733229,-1462.1311793273,-1375.53341116616,-1541.77286221537,-1239.71387432986,-1517.55138014721,-1582.93144154864,-1231.53397177805,-1349.01570106692,-1204.24572124442,-962.838685565527,-1180.42653232782,-1179.60756164968,-981.177498737584,-1083.42178253386,-1232.97840945373,-1715.10980359085,-636.765160515527,-1025.88167949628,-733.392149783226,-1457.80863569004,-1496.89986884809,-720.004101972936,-927.026482485376,-1200.18054777221,-1351.61872564951,-1052.71889295287,-1385.67930467998,-1299.33018193066,-1297.2682399665,-1304.7401368731,-1289.91536090029,-1320.02600610193,-1266.05646844491,-1435.91946301964,-1196.26813724205,-1226.87231996198,-1329.41656683046,-1286.73706691313,-1216.85444528502,-1251.35590658535,-1205.4279356797,-1246.4385350286,-1268.1241924914,-1265.53032932486,-1221.10021827424,-1276.52980734681
-1147.12093311167,-1156.27961816981,-1118.38258061473,-1115.9620149711,-1166.217925308,-1094.10398392718,-1158.9706418141,-1391.26857305297,-1112.82647150185,-1126.08718841502,-1178.69412360943,-1157.98872265856,-1196.85140851494,-1175.05420326154,-1209.79613784782,-1271.33652682301,-1215.00700162104,-1315.4726445007,-1369.07957876196,-1330.3541987061,-1448.27093756947,-1217.31032182142,-1453.89895842159,-1467.14607854908,-1277.96071528983,-1246.47060257151,-1290.54925175262,-948.747488585868,-1061.50166383994,-1127.56638763511,-907.204976643596,-989.916705600788,-1102.27956725767,-1647.39606190655,-495.855880046317,-926.453611650332,-631.666976150498,-1346.74915103263,-1285.81281910612,-600.434552160794,-848.679496983493,-1184.56452154209,-1209.87049061351,-962.732817688942,-1307.81532782104,-1138.18728130071,-1134.08806483133,-1148.28352649448,-1130.51925715991,-1154.16455856989,-1125.3011728499,-1293.55676849182,-1089.94380105745,-1080.8055166229,-1180.99538112479,-1134.88594624496,-1105.35032341095,-1121.29357618314,-1093.22841878041,-1129.80878865669,-1148.24773089912,-1135.70176250818,-1115.48522094049,-1154.31584859695
-1024.25667052247,-1019.0943313341,-979.813988178394,-979.863335869147,-1024.44214640693,-962.879421943503,-1028.89716715439,-1236.87708458073,-990.392959200563,-998.554605144619,-1036.59685563571,-1038.54814804973,-1068.48028140575,-1038.70696617536,-1093.74819853666,-1142.11838966333,-1110.65764102052,-1191.49422281297,-1220.18579248801,-1240.0055057497,-1279.89661531514,-1186.75136756455,-1334.84400171965,-1283.46265265476,-1297.52963593424,-1097.82625841881,-1327.98076323065,-943.310926157503,-864.286493590986,-1013.2506291783,-772.647221871726,-805.495024525675,-910.457318006718,-1420.53978808939,-377.937711559729,-762.661308764185,-557.404900320081,-1231.35149827387,-1034.79368618579,-449.929119430283,-729.241133846474,-1135.73257068896,-1018.72142313043,-823.641120104533,-1233.65029258019,-963.400746252799,-964.621106112217,-972.117819938976,-959.010305718612,-980.205312059183,-960.613583531246,-1135.28459350718,-955.147070999248,-915.392435608893,-1015.70891919995,-969.417037446668,-964.78561457077,-973.9039661616,-948.419452869941,-982.384900966518,-991.956182246616,-978.474889472464,-974.743559505625,-1001.62635260899
-916.677597412078,-903.514989160802,-864.224826937611,-867.394124140665,-906.360195087404,-849.969186732606,-914.5911109317,-1107.12971430063,-884.334245994585,-889.907591743288,-927.517419052145,-933.362678576619,-956.389026750434,-926.161166516851,-997.25968838536,-1036.40115112073,-1011.58446802641,-1074.37918924148,-1087.70927873096,-1151.89216544669,-1134.52550318026,-1142.05345984773,-1230.68304281823,-1140.56378756638,-1284.81065832625,-974.46496773162,-1284.22146637206,-980.720419565805,-736.876617630455,-939.654378268818,-679.88995462191,-672.481762014429,-738.927966755664,-1168.88150982248,-341.444417685807,-728.900911333249,-531.719668356183,-1180.98402248622,-871.537368932634,-435.735179989327,-637.478117674009,-1091.21403374217,-905.356307321975,-732.812681153673,-1211.40193912898,-865.047709299371,-867.35821243951,-871.060505426141,-860.287237289145,-881.647645174278,-852.967482345527,-1033.69658828116,-861.226712818395,-805.484072902244,-912.452456143308,-866.083489159866,-856.204180839692,-875.561108817713,-837.366784479887,-870.944007783246,-879.047015016878,-864.118259148643,-862.748799427752,-888.379021110527
-846.50119875617,-834.188640367831,-788.418981970534,-793.392118546742,-833.910905442389,-777.748221769444,-836.486419239042,-1033.75035830495,-811.071882997302,-817.324832202566,-865.603686119457,-856.449593562661,-875.768356383154,-851.737618326138,-924.172124035739,-957.72150201223,-922.279148322549,-979.930939580348,-992.607218892818,-1065.47125187067,-1045.26610034295,-1047.31682334608,-1146.17657087463,-1091.26270364231,-1228.89704948939,-929.011676504625,-1124.52015175323,-1058.17369764765,-796.129887841038,-901.646685733979,-756.460207901237,-702.862053336687,-656.008295694695,-973.805637721396,-401.850334180017,-888.120117165746,-583.644685777734,-1212.72712670224,-807.671388319195,-606.288848733828,-661.24031019466,-1097.21086823252,-942.383513282752,-754.893508405209,-1222.27662659435,-853.947325026806,-854.27746088245,-855.569193287049,-842.819476141446,-864.685782814853,-815.381183597838,-1006.12105551522,-819.930353996199,-760.927506485221,-876.697860311567,-833.074712536218,-797.21142132193,-836.205257759711,-774.740368906353,-813.407795462721,-829.205998337346,-817.920214458438,-796.67609272914,-829.581868286062
-732.579998685285,-718.347876187414,-665.886307129442,-674.436908850935,-714.115064128707,-665.716366325163,-716.264866461577,-906.896945673443,-693.772613141789,-701.852051122022,-752.393314471869,-730.946430378659,-746.774076595439,-730.415779399926,-792.150903795237,-813.144343630365,-777.545281652759,-830.152721404224,-851.097789600187,-900.565347391593,-908.274095948739,-856.82821919065,-973.789521894174,-1032.96704034296,-1058.63585473796,-861.20034630507,-839.8907568029,-1020.06370440416,-906.700785200763,-784.508672126763,-900.317253115363,-785.363581734548,-598.724737971966,-769.305353338624,-446.703994064572,-1040.37291435268,-632.337683643623,-1160.96931223085,-706.12338193023,-768.249553265586,-684.20256387316,-1050.16557570196,-946.994655069881,-770.5685691986,-1116.98555407712,-784.331038987927,-785.36902830149,-779.454084865426,-767.145044520589,-786.436082435947,-720.829155671417,-919.508176634653,-719.697795301685,-662.292597992955,-779.669270309163,-740.632266797049,-685.697733143871,-738.758845026474,-662.328855193603,-701.736101372951,-722.091821262519,-726.163614820239,-681.694851213849,-716.37127526655
-577.66996101309,-554.023184380072,-506.831285903431,-520.600332607062,-549.034529358264,-522.039233667631,-563.989300076139,-722.346322532219,-545.531509105999,-551.918695085017,-589.221827391072,-577.218870526827,-589.332650223576,-573.395441833439,-623.196582088917,-632.303811871624,-616.865651545085,-648.339363774227,-683.305689592206,-704.63172582722,-722.367885204394,-651.096072457021,-741.586746215262,-924.25126790476,-823.114307918124,-732.001386499389,-548.270694192095,-848.415333275815,-914.569501400175,-614.554075593073,-953.434450680592,-799.896485593213,-565.854585500023,-534.973193309297,-418.952664819135,-1051.69277913158,-659.441080577257,-1000.0496935584,-513.820986373918,-779.554455594156,-638.793235918347,-902.440493657391,-809.356955800331,-700.334405951805,-887.243457912913,-592.658995699513,-598.865347385144,-592.235375834403,-581.979560022235,-597.041570742859,-534.195683050508,-727.674943106053,-543.358394256748,-481.853944032145,-589.983050231684,-553.386078776197,-505.464584479154,-556.645259872306,-493.226970689137,-521.71084245697,-536.935731626107,-552.579473632958,-513.173992510853,-535.611916902911
-611.12609048184,-581.448938021953,-544.879354862302,-553.731214351499,-572.712510798083,-570.462719537937,-604.914151410339,-747.512344965676,-587.169709727197,-581.458351239571,-604.328899335518,-621.020554778213,-628.171291246897,-602.294061121112,-651.357472410349,-657.946025654482,-660.270281771703,-665.687879693542,-717.048855229876,-733.721612455901,-729.548555978014,-658.710197969153,-714.7020796122,-939.783751441889,-748.601593828781,-745.08381575165,-542.380221863229,-805.859443940372,-952.588921103644,-595.991862654465,-999.769297945019,-877.032353143372,-726.727159084761,-459.128306163378,-500.542049856112,-1113.75275438913,-837.082798392246,-1022.40437813583,-440.071964917539,-842.603252845526,-731.903959348256,-880.336647126163,-819.607733753364,-741.985003604409,-809.934132282753,-515.101910525862,-524.567862259714,-534.658679340632,-521.573804307809,-534.91841544971,-498.812848161089,-677.299951642299,-537.765366135471,-455.155867013189,-550.741984662352,-515.009346292041,-494.201560514019,-524.191490815413,-502.94278660874,-521.450044378489,-523.58857261985,-526.8692078872,-529.911822066695,-530.819825561854
-999.619162331154,-969.538603466074,-940.015628365109,-923.33378570159,-945.839190823051,-961.339794257518,-992.930994102958,-1172.58226674233,-967.560493783996,-935.03452386817,-957.494337753128,-1004.5277664674,-1004.90217092364,-963.662392994671,-1025.69033694271,-1024.32673764054,-1030.87301256282,-1023.30309062069,-1081.72205051528,-1116.16300718444,-1082.71949536673,-978.242441643636,-1022.97471052955,-1205.19242050079,-934.705177980636,-1040.19319972471,-990.662518384786,-1049.75617806211,-1191.1479431683,-809.853589812646,-1187.16926474771,-1160.91322060461,-1156.66191536019,-706.662728636263,-868.32790597112,-1400.7878771624,-1245.26189556794,-1408.37007914593,-699.21225643146,-1202.20443279729,-1120.90272221757,-1187.99776643655,-1281.41791252173,-1109.65254785656,-1086.0431262042,-810.533596106677,-808.034153259537,-841.782789797229,-821.496865675897,-835.481436155493,-837.446429042588,-1000.71469466465,-909.695426711442,-794.872286979969,-877.425379178141,-846.197848894459,-850.811373287044,-844.759089841388,-877.994877324151,-898.579452455863,-882.784821333691,-855.288491467811,-916.653202571265,-896.536760485037
-1490.46392279857,-1453.62586201997,-1429.52204220848,-1379.75768950925,-1412.34900874505,-1434.55507030438,-1467.90403848397,-1708.19217750119,-1434.78691777105,-1369.74725612908,-1402.53084880446,-1465.5928035629,-1461.05755786408,-1408.86767926534,-1478.70988729401,-1451.59043379811,-1463.66663350627,-1449.54961045842,-1500.9788282286,-1553.65794648604,-1493.73057376898,-1352.74941584937,-1362.4107691691,-1486.39036320031,-1164.35069468132,-1353.07390911071,-1540.09050329678,-1323.81384786584,-1431.11517661196,-1043.70385438813,-1369.35592913857,-1427.48648720938,-1622.32084816292,-1067.54820068668,-1308.97010073573,-1671.65822653153,-1627.12563795056,-1855.50626630199,-1102.33692575747,-1652.81828582182,-1568.5730094904,-1616.73347203226,-1912.64559004472,-1633.7920132681,-1475.9276000764,-1313.59239836175,-1280.6113918028,-1326.56954822328,-1299.10041226184,-1313.60132514249,-1341.24964396258,-1489.82002710278,-1428.22633080295,-1295.53712314522,-1355.87845197389,-1335.15519341752,-1349.06646369174,-1309.13523004584,-1382.22531167784,-1409.45913185595,-1376.44893747266,-1326.03663129291,-1425.79364553517,-1391.73791905242
-1621.96865131207,-1570.11556380609,-1547.55912355339,-1485.72192488575,-1523.32903380546,-1537.91599247834,-1572.11225371686,-1833.40477735381,-1540.71445627043,-1460.7835151013,-1495.80613815534,-1557.44102259284,-1549.51220766812,-1500.50387661743,-1554.24401134275,-1498.46702233675,-1527.05912870259,-1493.06235811949,-1531.88618296308,-1597.43424453781,-1494.64828108913,-1413.27470361826,-1314.84349956262,-1400.05172443579,-1166.72389161225,-1282.84470401381,-1611.73752074128,-1252.60695714574,-1306.00965940034,-1029.96956821546,-1215.45756786367,-1293.89467100987,-1783.26575045941,-1100.01203033599,-1361.37843099411,-1530.65095521776,-1646.48419755951,-1868.78147565534,-1172.5684721994,-1691.09008409866,-1663.96806673562,-1718.12906414046,-2033.05843812655,-1869.43876582516,-1520.62313177183,-1549.05454396362,-1477.16689157167,-1524.37793146321,-1492.10192870061,-1504.04871624743,-1539.07036543492,-1665.53684952739,-1621.23818082446,-1490.81840593639,-1520.36637488308,-1507.6663835711,-1524.07734837373,-1471.27601896172,-1549.93104751619,-1577.45152973673,-1534.96778670149,-1483.92089648724,-1582.8976547379,-1544.0265947738
-1276.55780855583,-1213.45026674699,-1188.76366365368,-1140.51040517341,-1169.78828621277,-1175.79721010334,-1201.81935342693,-1420.82024329046,-1181.05518694515,-1112.50453681107,-1131.18364891834,-1185.42878692385,-1170.4870964708,-1128.32597968636,-1162.28368133736,-1091.1585890989,-1147.08813008201,-1073.09266575814,-1103.48337032435,-1179.93948480609,-1026.16247308576,-1113.62398492286,-876.165590844811,-927.362483406829,-940.554918321165,-849.31825994369,-1191.15082846835,-832.755416793245,-808.669867100453,-767.935453186102,-679.585411624921,-774.383440911142,-1562.97643833066,-698.393267677589,-900.242727114192,-983.768307336651,-1289.29617630256,-1306.22931084948,-744.979352002831,-1175.80514355379,-1315.64315621833,-1319.10235815705,-1415.06008316722,-1597.88245865682,-1070.44620841634,-1297.40116328105,-1188.25674679353,-1243.8521120322,-1209.15717800404,-1211.41068850632,-1258.73360247415,-1349.09172908516,-1339.77509675426,-1206.01386989587,-1209.49795834034,-1188.97837905332,-1228.58749433123,-1178.13481303281,-1243.98118320291,-1262.02275947836,-1217.75327553937,-1176.13856029203,-1256.83904513106,-1216.14634498107
-781.266299517785,-716.157801381012,-700.339873972202,-665.356908382042,-670.539792223493,-698.041154476726,-699.506517058978,-854.714448253736,-696.980291742512,-641.573648357329,-634.821705133287,-699.500185063125,-671.147832145628,-614.5801407964,-668.280898280208,-583.594133045592,-684.043105411268,-563.451114864778,-595.652261456531,-663.706788864106,-509.153382306045,-754.638200041205,-459.09899212533,-479.88214739505,-693.339139115108,-515.020445153456,-799.29364448632,-444.463870611882,-316.375910604496,-507.579726438518,-151.576103831452,-309.901914351905,-1244.11338282765,-249.419254165107,-361.750194483791,-490.069159757602,-895.112662763114,-497.80332271742,-214.787330589926,-555.227621965185,-874.255796391752,-708.881836657081,-626.822888707573,-1081.36051624984,-429.469322383863,-799.988248240832,-673.277127344822,-744.01482453091,-707.792643340178,-694.986942744005,-772.076468481577,-821.301679638317,-870.138069950211,-713.416393779489,-705.995860519083,-664.18971692606,-751.379070957787,-697.686399960883,-768.669477867856,-768.75055780943,-723.083047926601,-683.784591223074,-767.582308702358,-714.786302309014
-435.365312878937,-371.76733614773,-380.717892951719,-344.33406205772,-320.554490309297,-404.744890713084,-368.040509123579,-490.180944723505,-388.644326712816,-326.753606137273,-297.871153119892,-405.279320466143,-358.184644680422,-271.630387246099,-387.484689394649,-273.721198444114,-438.460267382831,-283.360838530144,-324.318871654435,-354.535557364677,-277.188595083873,-567.343952361752,-345.048718977842,-357.298038292106,-527.38633519009,-538.826798771271,-632.78484314794,-341.202953238183,-92.928465410546,-398.229155179459,13.615005674493,-202.343213011728,-1116.14420415688,-85.1063700042017,-219.186328299064,-392.912376138779,-774.30809865129,171.425751745583,-12.5082670732173,-296.680433234809,-699.220643328694,-264.519623177162,-313.404790906824,-708.056373106846,51.1176525847342,-372.669704985674,-264.440958805299,-332.376819950256,-300.560981320844,-276.504598345424,-372.327066108506,-397.583685589004,-491.983189248328,-314.190535762689,-312.59487670273,-254.422639266636,-374.607049154248,-313.66205496042,-408.775081014931,-388.86023252862,-340.906397866692,-298.86246418869,-408.506642296226,-334.561778731408
-193.261394664669,-129.383586033599,-158.254213334421,-121.585386373742,-79.4388716854154,-217.67966370811,-147.586409400467,-263.310632226124,-187.392423578087,-113.006054290567,-67.0689694270942,-227.894387929816,-164.783622528577,-62.3480577585437,-241.835540780376,-94.3456868247147,-314.468695984459,-144.741702438425,-194.825679151643,-173.273484338955,-199.455496560544,-440.197088950345,-339.12187237973,-394.782511391512,-325.34944778229,-585.883725610964,-395.762837159781,-332.018649455109,-22.9923154536675,-302.022684152232,-44.9242908388997,-306.416650394133,-1105.6996642687,-90.4472235699831,-423.716336978243,-488.481377991748,-881.518863101574,626.988434983838,-80.3435703621778,-346.057769323731,-758.923545845588,-27.1833104841584,-435.606111142718,-508.646656737224,350.759721747179,-61.909461024207,9.98875150101564,-30.1589005327574,-16.8101036683794,9.51189039131739,-64.538642988595,-95.2141873427984,-189.223320365196,-21.0306274087953,-29.1628231520402,30.1145822008552,-82.0104909875831,-29.1535731524908,-129.331152266896,-97.6195055534371,-53.7897382308185,-16.6823212408283,-135.671974727855,-53.7608053529943
94.5106287049688,159.592324969855,131.377755921978,152.916638805895,200.282842053146,45.0216743291787,124.810929024449,25.797400047867,75.9478291312177,144.404747816628,204.499210773408,16.0406253069335,78.927992871412,183.076796607124,-30.7327243141041,117.594915100882,-88.4549930046881,69.8207949822702,-1.8168432457207,105.007819006319,-21.8562891339851,-146.86516311214,-137.907490921136,-339.734185104389,15.7345145518564,-304.81024459682,14.3381059336012,-155.944346733108,69.8260286548345,-79.2188483834666,18.3560820311825,-391.698361583185,-945.970528407981,-28.2498807687013,-642.961659739689,-423.484775019218,-991.07303480279,935.086552636054,-138.964567287286,-410.463113485546,-823.460909612387,185.429154904467,-578.489220129161,-282.728231339011,602.162939404992,218.996481524115,259.986486700263,260.48899719486,247.252522411123,266.348593888119,249.704549839673,187.306349963007,143.359800627178,268.347831373817,259.573357551024,308.65254675787,232.21826651088,253.785498288394,191.47407929016,219.286127403678,249.750443532129,270.838937578316,183.821166087922,247.318351712905
380.77519471865,440.98702893467,420.317249002575,421.061356083368,467.284526363227,326.466639125617,394.74212259761,323.936097306054,341.662970681584,385.840316015544,456.873431779019,273.415460188573,313.270512762474,427.668388622339,211.358624772543,287.215887887506,201.987573786315,312.684443775396,196.404733776909,461.499308110728,196.501953893828,279.877948287617,178.218565331174,-241.278949584117,367.451530309181,82.4061581947845,303.686821481066,84.3015254105227,128.96921980773,127.167659460641,215.736503279429,-452.347686537772,-576.864877361556,73.4491972095751,-792.839702989254,-295.657908136792,-984.432547357192,1013.44286909017,-180.84035735113,-470.30464594845,-825.919041427803,414.877256270204,-668.608664183958,-27.4565062492976,752.902903813142,446.40171441575,448.534509613371,501.707191932127,465.65241353078,468.301898532412,524.311063035807,413.669438228706,451.08092859099,528.330583936814,507.897976008549,543.058850357236,519.249808500313,492.181138041986,495.625210880257,504.852392974802,517.026826217273,517.824383764543,486.799594841777,516.831299808055
536.514560101789,582.049102690289,557.351558992738,546.358872178174,590.385697392979,471.986206123786,525.773220482908,472.010486133523,462.364779752393,484.907445902197,560.467226064026,394.798449241635,400.515438464443,531.022385579544,333.851389854556,263.978216349037,363.472252101727,396.287053208735,241.716905203157,676.225861833802,265.011899396377,580.884077385255,324.419505858324,-204.215319136657,517.038881388538,228.601315968844,307.992741412382,164.914140286806,92.8445401873254,116.270776548676,332.889722667981,-450.760512578472,-141.214432803962,86.456218913575,-935.453724681035,-379.879550691104,-755.303117872365,797.152116018145,-326.322793690176,-617.9659388668,-780.747836277773,579.165053274402,-838.241682451845,149.376142596147,705.593484070869,561.111518067514,510.233166203004,617.537351252444,563.392944642177,548.975072978697,666.085581257168,516.287959494784,620.790342983682,679.379796506284,615.262389511771,640.975600352936,677.5039160732,599.914221513859,663.813993062654,651.774663225769,645.773655860908,630.492366959272,646.72546554618,645.912284161493
580.83208165223,612.408262784962,578.419780305038,562.947495531724,606.390815601939,510.375715909744,554.636480601867,510.896250785111,477.076290909387,488.450322460611,560.520101427769,414.524497695718,397.019773839391,524.791097441461,362.554808849746,150.27590300506,402.190417520304,351.540604668878,191.817567130387,685.103221775017,231.521418840323,652.065840388967,292.904060005488,-131.256379563449,447.566276225286,223.094789881325,227.662275248393,143.429949074759,112.140717299702,-26.1134755343335,308.401498657871,-188.600484886084,246.121918373676,77.4256033818725,-938.511469578166,-526.368712884092,-199.121635672623,506.580757087211,-454.517231928403,-693.667533764437,-577.856145638194,707.087080265915,-907.43664372253,345.869662477184,599.254661714779,618.069174904837,535.792260954562,662.635166075449,596.922694635721,576.52538857145,713.404562045627,562.715851623556,674.023259006495,738.263714069679,639.141345429859,660.842135677095,728.700569070285,624.542480020849,716.579870511088,697.554169480858,677.326846851835,654.756757027272,693.259375486645,673.712527883906
604.621422030731,633.754129427049,602.925725981639,580.930523544099,625.709862875036,555.911232372365,588.835717296256,562.095416768313,507.342620787962,506.709173018318,572.50933337815,452.549277986172,431.124786816661,531.593709052168,425.38471197111,165.347403721412,473.12360358985,359.607771633873,202.664198009124,634.579158160638,255.116025281929,636.915321348604,295.409855850326,52.8468737225234,310.349219157621,289.40761222263,220.618326737092,190.331029291512,282.480913014646,-102.977511651705,172.863190240725,295.5633366463,531.892575455467,179.308981320123,-661.309183737744,-392.454342294926,492.619481373459,425.060558734498,-377.459636005339,-502.947197330385,-146.492055945395,870.660293872648,-627.939330764927,683.399866862561,615.302594393075,686.326236515117,618.668439399339,716.85109932644,653.708642134251,638.675789429731,748.794069487283,630.435242699111,698.433713107441,761.271425562675,684.272696861554,698.626698148959,745.327272474229,653.717253535959,736.17139766208,728.514310458735,702.130128507336,679.27352816057,716.81582264839,695.759051856831
592.937740914244,624.548957512561,609.401732676049,578.831486298514,624.946503267125,583.424193782163,599.841944715365,589.487825043715,526.504026432061,515.238397381399,573.540317579601,486.142203161124,471.75147872723,537.482828767098,502.623683915863,285.437758834355,568.91374550616,428.583666711866,271.310197060046,594.165078164248,316.501561548023,606.740562108192,374.074167430362,257.139143489606,179.048792105899,397.901641532815,156.82467387585,260.984917294447,442.020479909374,-162.63347694023,-86.4253774441425,601.226902327994,674.276763253823,330.885169036871,-237.460068836276,-6.18495886500947,933.185745201578,521.423641524229,-175.176162399025,-157.395449106353,342.045360660047,995.033043963861,-153.302900937916,1011.51738211401,682.393391285885,726.002588045617,695.474895725923,746.543839691851,695.002737306618,690.519150542532,749.823195924291,672.050516510285,685.984184964427,738.400240388531,708.971551239518,716.864222218129,714.034413717955,658.79239948572,712.476247364792,716.402359843881,696.590188504949,677.925731451138,696.755964886446,691.856710908515
492.737361981612,519.290272997068,519.747572347861,483.27903982537,527.541445901976,510.514559504153,515.697198254009,512.401140346735,452.517589676521,446.019512774553,483.169868518212,433.780341673736,429.046402201924,458.534328926034,490.016451273609,330.087563044803,568.860355956413,433.447982222463,310.542086737476,507.726004012076,315.645800178592,485.15335781456,415.805134191185,425.61660160009,31.8832281815797,455.668875841075,-49.0123429895243,235.51763474748,436.680415917133,-327.666133503246,-376.75446848776,429.693601326308,672.400713171856,357.159090115416,115.149041257724,332.139234326878,1010.7705257706,552.680461818778,-37.146848297685,94.1614382994652,638.812598171479,960.006470859627,222.087693146691,1117.04601807925,627.592220665331,671.782620068748,666.147808950273,684.976048108822,638.508605905121,645.323347444726,656.320965221405,620.237836075116,581.894703788624,631.009938254398,620.715417133515,636.687965144776,595.730537366619,568.113219016493,601.502112386363,599.062014736539,593.457663267231,583.795982441259,581.869460284074,594.355803558634
356.810744838415,370.095101439338,385.28939635365,342.194041190862,378.551675617131,381.434684511056,391.356861143993,394.307869656185,339.316751613316,342.589725370839,339.709992522681,342.736376308277,343.544414551368,326.984515960701,419.396278434711,292.594657152628,500.272475736635,380.867634948882,325.515090858777,412.823824192851,285.270515893997,333.27034929823,430.981276646483,609.192532359264,-42.9629997392028,514.04902908055,-188.538345177521,205.558827903265,345.62420923342,-432.335808650028,-512.728201354115,-78.8825287199417,594.018316977839,228.779686857873,369.564640938848,452.683046498993,957.960525097454,442.356685848086,48.1608662093492,211.767835586407,694.358858030548,806.458786940877,482.231641772913,1035.42293777246,456.171267163908,545.753820723316,540.467970855569,551.323892323738,499.765374313116,514.164530270439,499.991707418919,496.714549911633,426.885492940759,467.524155036764,452.742149932487,481.008033346119,438.37750105374,408.468574429253,449.615868903982,429.471892644473,428.304055277812,425.323626041719,427.323842849441,436.164720282372
274.980903792236,278.106741193629,315.259133601997,257.727912366016,283.582197110141,305.966108107104,327.128029355349,344.380673319767,292.594979103492,285.895043841341,245.941996015451,314.020032104784,312.747947314903,246.372659291184,409.13311059476,301.535545917269,497.674498157684,383.839409765543,374.27968205243,433.948701190567,329.053314032826,370.176433945746,524.263922842521,817.788898666573,131.804348671657,635.53615224451,-23.8544067336447,353.737075420181,336.392500534884,-208.416836608923,-441.207287904752,-469.730790504403,539.71107897601,103.265186445864,635.296511655379,392.781946991073,1001.24546903638,333.617871330335,215.191180074597,352.436734306128,684.436443265133,688.502463543413,733.140046736814,952.139621239955,316.532517596425,429.87553833108,406.804316271943,421.970533245838,366.310446562992,384.407585206773,371.620704812704,357.748024768465,326.294282671674,333.914587244475,314.161077951253,339.363999969965,324.135918084098,273.00676630106,344.424504397405,314.639120704687,302.000976698975,293.230643641037,322.924651733067,312.089161491015
249.700588099444,255.895128293468,318.551717625337,243.465755709745,265.851168148785,308.892819480672,330.811934083218,366.242072266875,314.099620156055,281.457838390699,229.296626374338,352.162171664477,349.995749481585,246.137526807731,480.464448767206,389.344595494062,603.216859335472,474.683990370405,468.305840925687,597.873598370948,470.654194939677,677.844083333155,695.354669326583,993.736382274679,557.338094435057,790.756406345118,400.773276201297,658.100359479043,439.007318280106,292.201975182102,-235.828074768429,-333.539586141324,578.231092755879,96.1734479351355,948.402755755397,287.392795751413,1134.62116525723,338.469473432599,469.013921646512,583.698510621373,788.350918272515,678.064127342244,935.621404337202,942.572585748145,299.377879385316,363.825836693614,323.604563974392,338.145482439513,290.421613195731,311.867240203065,306.414716946173,226.377976536764,310.423404252007,267.478526944185,252.713382989049,263.4231665201,268.418754346184,206.979590830199,298.200682034434,271.648096224972,248.81657649444,229.896529633841,277.432430834551,257.394173508051
259.652807475365,275.766293662583,353.123789359065,273.051947319169,301.140388670066,359.418686565023,373.660513931715,427.462265080371,367.228709890637,319.084177492118,274.070701433268,424.020761240714,431.043912526512,307.282534771314,586.063428298296,517.714424794283,772.016119154192,619.098829150671,604.051054880225,836.673209891304,679.344918599584,1118.83902180861,883.971486265006,1127.59164296243,1035.04624390993,958.59803663855,861.739888362017,952.975399888109,528.133072730281,800.784652797339,63.2951200017722,354.182907975589,739.094677363756,149.847624961188,1251.60553530812,288.873779966195,1257.65146686011,451.124657490485,714.816228812762,821.563401752124,1037.29982251504,752.308228988877,1066.01306132258,979.511004223258,406.987817559982,331.055887835703,302.602482742666,301.386387716161,275.650450838162,300.675868551649,285.564597323682,140.470038453279,325.537355924395,245.033460874861,262.271925617416,259.502795748807,255.889721384083,205.100689539059,282.040651234001,264.2337114595,248.176200819802,230.205855195881,270.398603559909,261.078651440559
344.504985566843,362.011594202176,436.050900893465,369.63508490481,405.317986127765,464.068236681135,474.841547200488,555.388169827525,478.246075666084,432.976541819774,400.185561103275,550.138686822916,574.929851759278,444.73723576525,732.316819792706,701.607101483796,980.682365184288,817.336068231058,813.084142429638,1100.26959704872,963.394640336452,1538.51093207533,1097.95188162199,1290.76493645776,1422.77883532749,1173.76672084591,1245.92410100097,1191.96582242893,562.29090027377,1235.75083817374,492.499163960558,1240.09135433996,1018.41925688933,236.966521439281,1563.34861230468,497.951862044542,1386.92484594041,657.206514049355,973.685166378147,1042.20298456083,1389.65254739556,918.196933834906,1299.12368666269,1098.75416323159,642.799370720211,344.495231418446,370.435954195312,333.424576229429,338.522486341465,369.096554564158,319.036573168121,193.649865109192,342.85958431776,276.32430701548,352.147094845459,341.669949134186,305.16598320925,277.095518455886,317.155972867866,313.880292963999,315.456400071234,307.832228560177,326.308917734013,338.083230476153
515.599384944176,525.715825924931,583.930638324621,538.282371012804,581.020179914254,624.259130116287,639.179895329583,757.410196237631,656.665673394817,620.827381270205,600.697018644273,734.959524403038,782.649870204491,650.699513156625,936.368155730846,952.493555117921,1209.51732858091,1071.52410594953,1099.90577420819,1356.02641256098,1333.33699296882,1869.85333286004,1342.33757447744,1524.2265063858,1721.39298984848,1415.39862476049,1555.73816114919,1417.01490442526,728.950929511337,1675.19127404105,1056.65617581991,1922.01331143842,1315.24191083571,484.702671362956,1941.17371733032,880.92813235466,1561.94778223372,920.137303366904,1335.11813741127,1288.3019118924,1764.59659340177,1161.34162607841,1726.90894749081,1322.5311453462,960.810766190369,436.924562943919,535.165066197779,450.020932613297,486.047403419279,526.906760305082,422.114682161549,414.829454728449,380.66425545745,381.339199261232,514.592160998512,504.772286674168,417.404441707825,424.822928618374,422.425237433716,442.154677207657,459.16813396365,463.802123993333,450.280411747021,489.87872813511
692.019281201521,701.176988107577,737.040535253329,710.112585755243,762.598789607463,777.872359281959,802.933953931255,956.818879403902,828.417046493508,805.598093060477,797.445231878629,915.076726024902,986.315023550302,851.610852979906,1146.4155613474,1208.35453105817,1386.57160509801,1337.13735420711,1396.16474782937,1558.32476306841,1721.07145362933,2057.79542550959,1564.23745210538,1755.69934921917,1934.98301056797,1574.8305263176,1728.49040504871,1585.37961973493,1132.95128865395,2042.67921635212,1579.16389675048,2186.89956623015,1481.24973325826,910.530168640858,2257.32967985329,1253.62475262931,1684.10495931056,1132.68933145823,1705.89177909799,1485.75885594058,2004.92304805179,1342.54595897208,2110.63745428889,1499.2480729787,1207.21893802023,576.700845623529,724.466152436401,602.566740070384,659.787677477744,712.022671020678,554.21926338173,679.90775800903,449.372513786603,513.881644748478,687.7021822461,683.472801381172,543.351329903998,596.571517440726,547.880149844986,591.689415821913,619.981403789398,639.021859431713,583.358195735097,658.200904620967
817.905066531513,839.598914805655,846.757939830257,839.482365330583,904.836325072657,877.07018618479,923.434559321084,1103.79014212481,946.726015264958,943.50452969381,947.088979815234,1051.29964588251,1142.46239539582,1008.37384596193,1315.56067454982,1421.03172200565,1469.39647287372,1580.43691610893,1645.12640070671,1699.85976934455,2030.05155716682,2058.55413303305,1773.13982488946,1907.71098433201,2008.69814173951,1618.27336164808,1685.13485955891,1636.31831204356,1527.22813294621,2144.01083595834,1803.68937701781,2068.37165500607,1511.86927986901,1270.40931509058,2283.87212961989,1452.68302714885,1658.06029799633,1241.45620336815,1864.29123681884,1513.75731013596,2013.5814620964,1349.00035370342,2204.91235541844,1475.74179715278,1283.55264598699,721.588489660359,874.163338432405,747.733253575208,809.248474072928,866.663483634348,687.63878140273,875.475583476655,564.241972378505,637.345891180959,834.39146421544,833.517663300853,667.03437556293,753.957195077666,662.276815339081,722.275660194615,760.924831543673,793.2450045727,696.282632218219,805.03600630653
932.871050947945,966.364552617112,947.411053941815,957.945991376453,1032.9617203718,958.022403451902,1037.03074405828,1239.6963525002,1059.91026769943,1072.12970316719,1083.60126962562,1183.12535342289,1286.46556962241,1153.20540325708,1463.2615656154,1602.2531569671,1522.05173091289,1797.60784644316,1857.98544442811,1809.83000653726,2241.11688145497,1885.48869067829,2056.2927299653,2047.26634830874,1904.65375044027,1654.57636263367,1497.82445890103,1592.56390961234,1644.93957658022,1955.23606034524,1688.69401753032,1792.91629926965,1515.31137577068,1375.226202422,2010.94143218191,1488.81459813955,1523.46328565638,1293.28712768875,1782.95073875429,1418.30441283915,1856.46003943368,1232.28449062056,2079.83137174493,1304.05819319208,1250.23764490765,879.880771094992,993.806916759479,897.730656683966,945.359660502276,999.857303308165,843.682604129877,1026.88972574956,738.867066509291,775.022499988741,972.722074973369,974.043684090963,815.539587315399,909.242534823341,797.088490557894,863.218830220029,906.628521654642,943.111411835985,824.302569266728,948.539961673616
1060.03479589267,1085.0668577041,1061.53410516526,1076.60923035488,1145.09485596224,1060.49536976599,1160.02423281991,1375.04100779097,1194.85042637729,1203.76339412409,1203.12083810994,1339.68745400363,1432.09954227323,1279.63649666009,1591.30730358199,1729.33230494844,1582.16944842048,1942.80085955105,2029.59211325317,1853.58006267198,2385.55426067505,1571.96869903586,2395.41414378605,2271.77376067753,1670.30200114511,1736.06036596017,1324.69299235945,1479.173319054,1543.52171354384,1642.61324844052,1408.04440032761,1545.98566379824,1467.2995131759,1331.75963438142,1636.18125582607,1427.98739038662,1298.07860155632,1264.43524513125,1643.8373774043,1326.49836912185,1596.77397679926,1049.15318504154,1888.4381415099,1076.8998289267,1151.14397719852,1012.66064887639,1063.93495503594,1018.12479883178,1040.52805384347,1086.83657663247,983.552853986941,1150.01897843218,904.016956597231,899.498999835909,1073.74061827814,1077.17500046495,948.077480341387,1029.26103882648,934.137287076658,995.500685669025,1028.91365162635,1056.52270110183,956.716208946405,1064.09212814706
1135.50578776354,1131.72818894576,1128.9360661731,1133.71452707162,1176.48277862953,1140.00797891542,1227.18574900976,1428.55919321308,1283.5118050185,1270.14131408722,1228.82125438167,1465.60053814013,1514.07198865392,1311.96538357212,1645.64045817416,1732.40923010394,1555.87364072466,1924.70743175829,2070.65111284167,1760.60885595941,2411.75450311706,1205.30982896854,2581.61682710087,2453.39801387106,1417.95939436884,1719.32045198211,1224.32722488513,1273.77263594044,1371.88103029174,1344.97727758529,1087.62978965189,1285.50341263845,1213.23595192221,1296.51006804801,1261.81457238827,1241.20763065826,900.70797163136,1023.7804823791,1514.87491194885,1186.45702202621,1187.50473872647,744.528600658564,1587.72209025653,751.571913454067,908.375515430996,1014.11786625648,999.836103057192,1008.64748800229,1004.80851411881,1037.56023358153,1003.44830288008,1154.37956202713,948.969574483468,920.983752875575,1050.53216110241,1047.56402719665,970.020147625774,1022.32575598696,984.851737670101,1027.15615188618,1037.91858299985,1042.28950615027,1009.32844455994,1070.51083846347
1120.55790110018,1082.01419548441,1107.04360519431,1097.38643327625,1112.31887163158,1137.9771602325,1198.12555005136,1366.10132144747,1276.83098647017,1231.45258545272,1141.03579745526,1497.31945129016,1490.72457595441,1230.06459503338,1622.47774807323,1624.79046257876,1404.84881095416,1737.20271246722,1918.37121902139,1589.80112578693,2218.56173796195,975.593172074681,2422.59719847765,2340.93025226179,1245.47124911568,1481.02237735638,1163.48780037712,1003.51887716473,1128.91859131431,1106.33311187379,760.795037610133,917.339564492026,753.77134060026,1251.36179283162,866.971087546948,912.231771057502,364.808532419918,577.000730548303,1304.0240710889,874.303375302329,662.202217033989,330.94265366812,1138.68131492221,325.179639649866,522.800472694222,880.940337642539,807.153308068898,868.994673127787,841.875802246572,854.975062427907,901.672802891193,1015.32929295246,883.778778701951,837.242394923083,908.827410404398,888.457456805803,890.678049975464,890.040847102377,934.356390194075,947.875194743118,936.060058337257,906.778489235394,961.780707960147,967.492090673294
1088.67696578589,1018.21596717876,1057.25469838441,1040.04672738649,1038.881738086,1090.13795133122,1139.75858855805,1283.67684407148,1234.41089808939,1158.51198773489,1038.88082298438,1463.67550241396,1421.59578403311,1131.35528174784,1605.89226668928,1530.72789253955,1277.78181013578,1540.22259317523,1681.65199626544,1502.72494315389,1873.20624635947,1006.90045233056,2005.47050296976,1952.33545183652,1188.17570498809,1159.5623363099,1154.04217533857,797.159960435131,847.157398157921,970.183695176406,518.791865182096,552.394953509075,327.7188757827,1164.82949686252,541.994299402608,583.717738849249,-64.6685069406005,181.96497534354,1046.74920524821,519.218261744718,248.059243554945,9.43823955259009,751.809250242293,-9.45652996993923,211.973847215578,766.79561310881,651.189434558566,752.613804784856,705.447569065817,696.568482026712,817.730466496221,884.362936332204,845.269551452614,760.778354519793,794.728509897867,756.957820824774,839.553389817862,775.406181426077,890.291265221106,882.184502758965,854.105049690419,793.952479152955,917.205932070357,878.082517067731
1096.44528774987,1003.90510211925,1035.63623404598,1020.98762226362,1011.94842932856,1054.29402266765,1109.08002862964,1251.75405484156,1203.13136692979,1113.33029005902,993.834686091362,1409.06022673232,1358.84255495147,1087.98785777191,1604.05805704587,1502.87300016278,1262.52823077788,1461.114277673,1521.84359278558,1510.76449756973,1578.62515855522,1153.31904175955,1590.99655012721,1572.96637604735,1196.16322813357,963.027473188502,1212.36821425627,745.016187662652,665.680556940928,947.137403830752,453.281936862532,366.718295353201,114.603472529854,1082.34825601488,422.52136355064,417.021059688269,-218.038428968484,53.0335309587933,893.173302550261,361.646750345001,95.5323697759058,-68.7478058753028,624.886460936642,-101.733557171244,154.897975506976,769.152916065742,641.377088244686,754.839234103582,695.351129395492,669.151354743354,830.146816615488,881.470857350105,894.281510241874,753.836152810553,797.317441447386,750.939963297085,872.968773907107,769.124866715272,917.195520246269,904.431841135304,863.106594496501,787.639253473478,939.189400712596,875.946693481648
1058.9988322028,961.232178960547,972.95660903913,966.93696660447,951.052192337756,979.43470036579,1032.07332469173,1183.19446242246,1104.77982962027,1024.62921018656,929.415886942959,1275.98802441513,1233.75628562252,1018.71803271702,1469.31927136113,1416.3225670866,1205.40911761902,1373.97398945441,1405.29226744668,1416.73355634543,1372.01302768973,1124.07856411251,1263.29808130757,1330.83489535812,1133.46326829885,864.283380569573,1224.32016030452,762.654466586758,602.857034089562,926.641288827735,488.951665455863,312.708693014194,28.6784736174802,981.583186322858,428.473643406539,382.093515364688,-222.628823578286,88.6039266682903,824.278942443914,373.382806664864,67.618383983343,-23.0363593417606,629.517778385431,-74.470810361548,234.087938771496,783.593693790496,664.233940159942,767.968525082494,708.911492640551,677.702207904616,833.370660605721,902.248600140328,914.313344742755,733.903354937415,807.449923797855,759.825690960031,876.310987829744,772.93741269073,914.398436287211,906.056319014136,855.801992734714,783.773201806556,927.088416291566,863.129260725279
901.386404201788,808.280499198465,799.343060453292,805.959370209663,781.678744862992,804.680740026543,841.663197691768,997.96376679684,887.307340333882,824.199740133468,767.209578641803,1022.1594758378,988.588334604824,838.047520766943,1132.53342009278,1173.18128273373,974.596047216266,1109.60292077837,1193.4490626581,1107.12507782881,1125.01874491608,847.520539552682,921.537797443174,1109.51265098322,927.627838315854,733.903145643034,1066.49030023037,719.900419006798,565.526906737081,812.784313091564,501.330017063083,245.098854936829,-57.974250052573,818.145739712607,378.471432185719,370.291702235142,-251.380050904249,97.0926295683381,710.903206486798,377.006336730635,2.33908408539659,-23.6865393869137,568.834498144697,-92.2903826532347,254.900648368312,698.654685128035,593.158565888344,678.241458668439,630.721836214615,607.944530979358,726.653663057219,813.655225354706,807.07651605487,619.936405333476,711.613501375004,664.014594168934,754.890374153684,679.728505641393,784.297392160301,780.130255183054,733.086409517258,678.186479824927,789.249401680785,740.645043640827
727.643062322598,637.365357118019,609.552145789155,631.742853492324,601.170910674084,619.386432563635,642.266842476561,804.688578540037,669.103233200062,611.452477078811,591.048602769992,767.355772614639,737.641984697139,636.858183132609,762.967371585992,891.478429150737,687.192543239453,752.239316454408,928.565900919125,734.108425341626,834.959691381327,540.327512251961,578.413532221357,879.582303887958,694.508971499307,614.047934064383,810.873136190224,635.577601834205,574.174076811189,674.831659886583,524.797441279671,212.741808952817,-85.9190112725321,669.504951770307,281.459040860654,404.125221704265,-243.769135219055,118.326614529379,565.743618782968,380.98677217176,-23.6557838556735,-14.4537010842845,519.260719804551,-83.5339854158587,259.613761877315,597.12885634253,513.23682192786,571.970637014648,539.250350468991,530.255541323642,599.261050077876,705.090719959383,669.081222554911,490.516044480835,598.85636166684,551.130639717326,607.05682630823,569.468312441086,622.116640350072,625.091980104097,591.805822929138,558.702375587783,626.050760598586,597.967803058613
658.357970791233,568.52012369552,521.85232102419,553.712698954073,528.088103318973,530.349205410025,549.327378196654,724.590759965336,559.516510204803,500.957148067315,501.646378568822,626.557448950596,604.486294956571,529.993410258406,516.430883656982,708.524982857823,494.556168280047,467.293852392967,738.478866690412,466.055247538387,601.18645826425,353.36677748983,349.712928708187,722.718953358037,533.737324860949,592.564855542672,609.622505130453,583.876483452459,672.483581300492,590.42455444833,619.418423089512,306.320286497301,12.817219660845,591.968564409162,245.952182264802,514.517694490049,-104.732031237655,251.717590495525,455.339519391408,458.725865129201,76.454958906622,101.24909659208,589.154089842121,46.9653937958041,355.193827708488,580.453448985763,526.838623733895,557.168510535793,536.863552524432,538.467374571264,561.330597180257,701.791732861284,617.296386410196,448.424114477614,581.633371827568,539.587641557577,553.86427913594,547.115407384331,554.598260562921,573.093640285405,551.370589038375,535.008010593559,560.963103902837,555.254111965123
590.345071231724,500.288505364262,437.663054072482,467.778256454522,457.422588096479,439.735879040808,453.342758040061,629.866548208147,447.018311696252,392.816720498935,397.495770533968,484.018883952368,474.655293708034,416.638597211864,284.045356800041,508.593136800994,320.2705249731,198.95332283324,511.082101056768,206.929202823131,327.852902167046,161.008928162967,143.610041520649,515.201291859406,310.985112141864,509.986357242898,446.380967347288,472.713140508586,665.561628211842,441.1441430205,617.503356540701,330.119157769665,82.3932743022789,441.803282996697,182.742936318096,515.848742549985,-3.81656849911437,328.846855368052,268.088414916907,445.570942996925,105.68931083772,155.999445578888,547.17782466849,103.513511491178,384.714029132215,515.841860904873,479.592446315396,498.724003555636,488.400878625383,491.371639338235,496.21348758147,659.900444999772,549.96046037753,387.574598475975,529.89926310015,497.68114831449,493.532252435962,491.711696604608,486.250948679757,517.202636784899,497.449394020696,485.19477748462,493.314244224319,500.906011332932
303.449532266462,208.903757890556,140.927042399097,164.104903440363,162.018757339741,146.677777494273,136.182393707931,271.82772464856,128.641143344338,75.304374810761,72.4417554206866,128.513316964269,113.806969304649,80.3298877409995,-128.031543370228,58.4309256476883,-31.3289130587899,-238.458051013815,-15.3298064717983,-257.250261321892,-220.529604057053,-223.118774700587,-303.845989627654,-20.7841282702977,-165.4508641402,62.9384240112317,164.734486282684,98.6697874498558,252.965267984041,32.9700058886241,239.328375883612,-31.4893578813487,-111.865925407643,25.3342510180019,-150.832211194756,148.130301545947,-223.660889878629,57.9127423379702,-186.233697237247,75.8265871571952,-217.260067150506,-126.085698216456,55.6002669900952,-202.220811514359,66.9926992183331,186.131418506423,131.875941902377,168.150643259086,162.404546749399,154.304286827283,186.221813309217,328.258860933247,264.256298846006,94.5570839865666,210.430107094309,180.774283626854,210.17904966775,184.843595169874,205.457186428731,227.928951053951,202.775631547053,181.605173524592,209.080680997613,200.653142967225
-192.297711075146,-298.176336537707,-356.191271591027,-341.829828242584,-353.125474129719,-336.836422307099,-386.806689542044,-327.602763405782,-381.184167563481,-446.226907368006,-462.787253675024,-411.281831643443,-467.542422857993,-473.996599394103,-666.386306895935,-600.896986482996,-560.546084074928,-830.453974450173,-798.005972861902,-886.250701453745,-994.439906817224,-757.545069915794,-983.503582897221,-857.435203466614,-819.326468510759,-739.511822537671,-250.334906220468,-536.991262389737,-520.548397077341,-580.891880862079,-493.696300589838,-726.285562641969,-555.2352288404,-587.065691519752,-763.975474241739,-537.501817911494,-745.438420666363,-528.316324104154,-831.316109622989,-591.059967994853,-823.716327011982,-700.760375875953,-776.00860063935,-791.481246303182,-559.88565351394,-326.877293420302,-431.537295692245,-361.375147476006,-375.474174022596,-399.939552512653,-317.446355236235,-224.045234160156,-204.639226914434,-390.918363937284,-325.118291719064,-357.441365960999,-271.29485892223,-320.633724095198,-268.011781207789,-267.890804933807,-301.532539394543,-333.564640470174,-271.356027748811,-317.09369089033
-577.014693254417,-694.855808649136,-741.246371151638,-736.530470158797,-763.111896694914,-721.604211600884,-797.200475110252,-795.343034943585,-791.361228840279,-867.017963955282,-890.982618169316,-830.017619762931,-935.655676273185,-928.202474975976,-1050.30280571692,-1100.23382978015,-994.866374508345,-1284.90409846912,-1400.67033670414,-1345.99811277432,-1572.96623322165,-1171.11565016063,-1496.57422730216,-1554.10696015553,-1296.39297929833,-1436.33701900721,-554.624396205595,-1098.7653504963,-1177.10843368768,-1033.69519264541,-1140.95141369943,-1285.57340467916,-923.015580110696,-1018.77842738332,-1282.14918014963,-1108.17351318865,-1171.25324775592,-998.88505920954,-1268.15154037318,-1117.10213337251,-1273.88486053865,-1148.35290872076,-1378.43166592515,-1205.39386742179,-1065.31779130637,-630.008161337606,-793.793996777036,-694.212796658169,-727.695671810109,-761.915602161708,-645.152348330675,-589.017142817913,-523.489194050979,-712.184134616927,-693.345720363532,-719.04710707904,-608.504802625645,-661.938313108027,-607.667643763142,-618.779696932331,-659.008057629182,-692.009497284669,-619.334768939833,-687.124688328055
-604.49467880135,-721.793373967763,-776.826312112162,-774.443793221761,-804.839504171387,-778.663472982725,-847.399378115828,-843.374522099199,-865.072336075024,-938.357594734355,-951.109893676116,-911.999436060037,-1025.66276677132,-1018.63058504537,-1121.80065862921,-1188.90121048157,-1107.89039959729,-1376.77837856256,-1507.87534266252,-1415.21273788317,-1662.45334221132,-1269.51991833538,-1552.57971249523,-1757.85798676783,-1350.21941361559,-1609.56066952591,-551.09945164897,-1250.893417942,-1337.15421566462,-1044.96498874491,-1306.48030535042,-1357.6111497015,-918.564287405081,-994.746418598633,-1353.20632837425,-1190.08726966458,-1162.4976347307,-1020.25846205259,-1212.48037875614,-1158.31801561151,-1244.25940021517,-1149.08767382465,-1359.71449252526,-1128.30668800065,-1114.38865310654,-504.898716634157,-706.38895705764,-595.724363680441,-644.096460211663,-678.567984063091,-559.600297114909,-519.391291016812,-461.961175356002,-634.320176109228,-638.194017977497,-648.987607343581,-557.498057654563,-605.122869150107,-572.176373489402,-577.022462428076,-617.680040079357,-645.8700710388,-592.662168162272,-652.93894937515
-416.731097547753,-520.915927420395,-597.55658817227,-589.488567355913,-610.141513997626,-619.752895074475,-669.884502073476,-629.071313446256,-712.23064936323,-779.601599592052,-772.674993019801,-787.677361843189,-865.76997202889,-868.021747250584,-1018.88090285519,-1038.04121978254,-995.778741735453,-1233.70404905775,-1304.8200842987,-1261.13832163986,-1447.49177778293,-1164.53853791851,-1329.99111403139,-1582.94519725807,-1146.24465691969,-1339.09831283423,-390.369838167708,-1039.82726941404,-1140.00959303049,-777.872586985459,-1074.52376026953,-1081.96188202102,-591.584527336993,-691.775757856053,-1059.12008026162,-860.704478312897,-820.319194054597,-754.884947954063,-843.759501359041,-826.334991800166,-871.966804345047,-848.000783126212,-920.375377543303,-739.771234024497,-858.469828053544,-211.068827195716,-403.125676677169,-304.446788704753,-351.395315783062,-379.863405253201,-283.530863602495,-243.638239586703,-212.299737546508,-368.763452310909,-366.988088003177,-370.696176380683,-310.793975092176,-350.315889541663,-334.276677130162,-330.344532313898,-364.278318086894,-394.460848624055,-360.538929210965,-404.849218031698
-303.455206480117,-399.028914333558,-479.003451704721,-468.608238453029,-481.533756143138,-498.121847975764,-547.053916838209,-486.600472218389,-596.299152486374,-664.492716738971,-648.363408682142,-697.099840037618,-743.015678515849,-758.40333974582,-943.747335630217,-937.414512592089,-885.920913556849,-1114.10763376363,-1148.93176050728,-1169.46321578412,-1265.35374219577,-1085.00410057645,-1162.79341129175,-1346.28923751121,-1017.7212917629,-981.479581466955,-361.07680136561,-777.147985095315,-931.728486287352,-601.875700860825,-782.99784951975,-791.748924975342,-198.310967572092,-474.153462909047,-726.917688299521,-453.110045612901,-460.477898672399,-577.624278298166,-538.085261625842,-453.15558850265,-475.266688453046,-591.546227771749,-482.279930244415,-403.598718291883,-660.534173158813,-119.001294402436,-248.35295209658,-184.679778968198,-214.120089297363,-232.13928082834,-177.435290729153,-117.597551251531,-109.544152112556,-258.724383517829,-237.500320014271,-242.336429329186,-206.58044428531,-229.936430608992,-218.740674953242,-216.021867284642,-236.417825929329,-273.771864696601,-240.912082182765,-280.585080292638
-306.724637632672,-400.783093473649,-460.225520083096,-455.326148414219,-471.202837756739,-455.604692513219,-519.778992577092,-464.426991199547,-562.667626587317,-637.513101998748,-619.021146852934,-656.076668193402,-701.23511107818,-726.090994794114,-896.98460629674,-898.679470411941,-805.387643497009,-1048.98650618038,-1079.17343982744,-1155.73216831201,-1161.3451271065,-1057.01694413005,-1104.02816903555,-1147.28100396904,-1010.93837440484,-711.469730739407,-488.758844112357,-634.702748709751,-786.163824873054,-612.307797676011,-558.06684154071,-557.682306178053,136.483760276135,-415.475888880702,-476.431727706884,-130.760289275059,-164.876993431867,-554.929647087238,-394.911091464281,-165.359341052826,-115.062120659563,-460.083245641827,-137.613295728558,-187.286650552381,-602.885711567279,-226.741319782913,-263.158788428903,-253.347073712538,-251.734306639151,-254.10947850755,-261.081930405616,-159.451772514308,-183.956132491645,-318.839418512327,-281.587263491292,-277.326250188044,-269.732423269493,-267.798595893695,-261.571016497783,-266.46464966044,-271.493090250399,-305.036928649826,-270.389677888346,-311.255288989958
-265.047800889959,-349.900319139942,-392.012454361757,-391.900522562022,-408.833694901606,-359.896866284357,-434.25274435768,-375.867891560639,-468.741814121616,-551.383383872943,-521.95841061445,-532.581074227934,-585.713899267169,-615.818685980701,-743.943810789634,-746.051255030452,-634.154399656726,-892.485983194567,-900.939330338681,-1034.26774463049,-981.91645591807,-938.113328257042,-994.986896062615,-898.018386581771,-906.563025492174,-478.994037364722,-550.500051165109,-533.222574844862,-563.192072967259,-592.098585331465,-318.932083328941,-249.651134906267,442.375568895298,-327.378097091707,-181.000757787302,154.713607766112,196.454293555365,-451.882351700086,-231.110877771118,132.406206027475,338.057916335254,-268.843756985127,288.613486690618,90.7433949398194,-494.227810912542,-262.064899293767,-215.936022418845,-265.577644864138,-226.593414880574,-207.494921885409,-290.391426743397,-141.284196263333,-217.582851907945,-319.389779581356,-271.150087391147,-245.579065442183,-286.822128717138,-250.564490849867,-269.644966671556,-270.905718956865,-266.06542384893,-278.897525708647,-263.49029740759,-292.23214386721
-134.860205199989,-203.423230012269,-245.149706457445,-241.203604581591,-248.70685965682,-197.067632544833,-262.141837457163,-182.48524878272,-291.001313066281,-374.938801604035,-327.437101523422,-329.210727206076,-370.618665659107,-408.01671298,-468.899891092614,-451.171086810152,-385.729854142995,-622.139345722073,-598.671862032234,-776.279423030804,-724.844859335034,-715.940795014055,-798.56179459554,-610.706281506077,-639.456420443888,-248.901350862786,-455.729129836902,-391.523262364331,-243.350059808579,-405.160252481435,-81.1195094588163,104.325099990111,685.008901246143,-143.328057055056,195.957041815175,424.396966025933,593.064510460095,-181.120810946414,37.4511079614521,466.036748573336,826.681235184504,31.7056068573761,783.642581930122,444.707523744094,-265.988151542565,-130.38828119485,-41.911445197395,-132.71229029078,-68.6296322998567,-29.9088962228301,-179.654356956838,4.89516013801147,-127.08076292858,-193.664955769944,-128.314465537995,-91.9338397180774,-192.364862750349,-115.175497582948,-184.793838537784,-162.272335165796,-149.898558741712,-139.301523017378,-164.594488565215,-163.122484697389
-36.3421175757837,-91.2871987736494,-134.103646132523,-121.778552556919,-120.819906869506,-88.9974623554179,-132.049333621311,-38.2525195333986,-154.473991429592,-229.701277218623,-171.476304059259,-179.636233429979,-195.636090560352,-239.236842742471,-222.77795534697,-176.788229963117,-203.444220437051,-376.018976834316,-363.023055396996,-549.510239033264,-536.461434055833,-544.236338074831,-629.641744765879,-421.007591706169,-405.553505708835,-79.9268240799789,-389.419607235862,-273.359105699152,-4.20805983689806,-198.528084852696,27.5754200862619,290.616565057874,739.316770175687,-1.81635284412708,473.354708994465,599.772078577655,769.459416273808,46.9762625885347,252.216879063059,696.917795965064,1078.39816678563,210.674819446216,1073.72149468394,624.196117138543,-105.741373226841,0.0280767686015135,88.0084556954104,-7.17473287234495,57.0077868634595,100.008590120309,-73.3346020883484,122.779106660925,-37.4775378525679,-92.1143547316335,-5.38809342736584,20.2226168142284,-111.012044908266,-7.18111261470251,-119.677746715228,-70.9300153955822,-50.1349020089032,-28.1775908140678,-86.3300547018169,-58.6430281663823
-22.0326082669015,-62.4252957154744,-98.718968579618,-83.1371466716059,-84.6064070579574,-69.3689789049857,-98.1745033745803,-8.83222857758548,-108.833505494791,-173.47832762946,-116.536459414555,-131.789769279237,-132.127814319955,-169.276705445508,-124.687033259309,-45.7384053850741,-136.574980967808,-228.539068255809,-279.911958058173,-430.875556471686,-465.544604314928,-474.975974993584,-546.240566294987,-391.819638412913,-349.595527229837,-33.8765352549628,-522.045300830111,-233.07058776822,-20.1878797138605,-136.767489400491,4.25907383820656,211.122063989266,583.102487752882,7.7188341183043,501.152435243087,618.02735739836,589.673649586768,60.235791636812,274.178521991627,711.417621614036,953.574371502444,94.2526615667693,1004.7316273574,464.542963219446,-159.852600763524,9.18342136972706,66.6277294955506,0.176532312959534,47.7290049698826,77.8421997558417,-57.2517827593287,115.333360431862,-21.9486963092239,-89.4424129759843,0.0950104866579871,7.45677301196235,-98.6378053353836,-6.11544552754343,-112.545642225663,-58.6231621512,-39.8276775319963,-21.3596108875966,-73.5069683235306,-48.3885559216637
-18.1232373449981,-40.0709644369052,-74.3482894759138,-60.6742166037318,-68.733500644741,-60.1612183374356,-88.4433457466817,-1.35895841016905,-89.9398288966022,-146.146176061397,-89.732079250003,-119.734214276174,-118.662527593329,-127.619487168222,-138.258030050273,-23.5415158425519,-149.050859468859,-112.731719218277,-247.859680692336,-336.314820564281,-431.885811275274,-411.104842203098,-530.46746369654,-463.12028043648,-408.909580387262,-140.206082334118,-771.746702358255,-261.210184317679,-283.585079465196,-153.06051689859,-10.8901637934713,24.8624989180613,370.456107501986,-43.0378042290203,344.162708075978,495.326220910339,239.714119693228,-48.1752191202034,176.818776631559,561.460507981731,618.469083971581,-170.608715314451,751.986719347566,128.966191852352,-308.313500556677,-31.5503135221047,-16.3511411421602,-43.7200329001992,-12.7629467864256,2.57960177480853,-63.1782321309598,60.1005190942691,-14.9486508968767,-97.8365962259441,-33.255500066198,-36.0760571343395,-88.0512576208261,-34.1850517650858,-90.429873008636,-52.8085688769334,-49.756380881202,-43.0729348566172,-58.0443158973771,-56.8890582914617
32.2163668419717,27.0248782231519,-19.1736618191477,-2.41368909300736,-9.95015378476737,-13.6681409447549,-37.2428897006091,67.5627186879358,-45.1887634852815,-83.1368130719504,-12.3725160968146,-88.9325582417978,-77.7965310332662,-33.7500474900272,-141.68326566104,3.38981322250189,-268.974803038975,61.1406197838781,-154.760592414583,-207.055083097822,-355.400792153682,-314.490278284396,-575.429171303505,-535.901666958003,-467.853554431318,-387.395569928211,-915.29025639657,-399.106610908409,-597.960982479788,-99.2395391995586,62.6853734101352,-30.080284737356,268.62713598487,-43.238774950798,171.420300412811,322.934193736174,-2.22332863444889,-92.8384280720933,119.73572726712,408.044631195097,337.921192639851,-318.07775359381,592.896616234943,-85.9505923781095,-334.892364386631,-19.3924965198265,-32.3646435200957,-35.5530546925502,-11.7378387552488,2.49169346046282,-26.4978677391525,60.6381676489704,36.0609733377793,-44.0066609883411,-10.2028789175303,-9.30163125183097,-34.9608515664906,-10.6563063918577,-19.9463609261068,0.68791028277661,-8.51033057292991,-8.90878873119521,1.84628494564307,-10.3350719029923
117.225212514863,125.249098816672,59.5488297769014,89.629547764093,91.2508233663104,61.4628686396396,57.8009757563526,192.019545506876,31.5729513923244,28.6276441963854,126.910604613287,-24.6363446148564,17.9736722234785,126.864978999472,-41.1867536486397,99.9148124621633,-479.183598554612,298.744290279006,9.61562384099272,-74.7139098380272,-218.707426802628,-232.876256201095,-638.412574126265,-545.575616391066,-486.457696807664,-676.514204664422,-831.325026970649,-607.697223122694,-701.307701809272,13.6893417940361,202.771633664397,132.155676522005,275.354108519676,52.7710699534512,85.4716846366503,235.884168836428,-76.0121026825326,-23.6968156229404,157.74220505846,381.115669449289,202.403579530185,-280.971474455929,594.365196985723,-85.6142185757642,-191.909704601541,54.054968645939,42.7649240008369,40.2126441585135,67.0045472335298,89.8131813078829,45.8012875409333,134.687337902424,109.647666390999,51.3689870420466,68.3485273775663,82.6251930614318,44.5017878837836,64.2899949568311,65.3915541536669,84.3292375496815,79.3334315732174,80.9736619697458,85.220749435175,84.5546085101232
217.606253090776,234.641549787806,157.320877754286,203.948498162822,216.709120168826,157.34442810674,177.402552453743,335.124768259288,139.892442241549,169.862093013435,295.26512443012,89.7076395070262,152.554835863344,313.465099260813,163.516252180255,208.70492842491,-539.446525359204,491.143022851321,191.913196116884,25.4517426094703,-63.1003620118745,-160.042909612795,-608.061221941515,-500.729435691678,-437.888673047511,-848.425975437853,-586.588778062823,-619.481924343456,-453.638195304874,94.6139913275329,408.426520788163,408.101099353636,269.934429543664,224.296519652958,93.6210940306347,312.112790327471,-106.302536717279,87.1225037119192,234.694942066595,485.644674294294,115.144372992443,-176.746265336087,616.338248502822,-9.41535964785972,14.662586811846,150.021869623836,159.699183880467,145.306846754192,181.165029144169,203.99011307082,136.35457079738,243.843900473611,184.569149097118,154.112814449819,166.817263170117,187.148472241992,135.359781638953,165.502567834969,144.827096254103,173.511265677679,183.691741329839,185.464654834895,173.477969880828,194.246654869474
330.9370444603,352.118248685876,281.071696223124,337.891353564828,358.2524023751,275.295872134635,311.454743460565,483.29466735003,279.305746397137,321.037287379246,463.128473517362,251.294226524297,293.416578125783,490.717506344213,347.608038534417,227.564448594319,-247.831838094581,481.599876171571,377.750254505893,86.2125197142138,76.5814898433906,-55.1169294864796,-397.027557457028,-415.832243119949,-256.334402020579,-779.648750588343,-311.093961670174,-252.016344060356,35.5747497415976,186.36056343418,700.191393488035,619.727210236132,205.819771663611,417.866671123112,170.737930009007,484.44802175128,-154.145209483715,180.019793605818,301.84893571888,619.226611072731,-8.70689844076269,-84.7640167417531,571.082859113374,20.966206864648,200.287654128237,255.02123005373,287.512354325774,263.618514339269,306.365180971554,316.381504271421,247.04697479453,352.136029556508,279.114948310727,268.582950867663,284.77039352355,293.39199191414,239.585541843151,288.067339966333,233.668492098907,271.717656297669,295.914511898726,292.50466283804,272.94765027808,309.760417587218
420.953051454014,448.841203854535,393.204080526919,453.399329925866,475.236605570199,376.22656305176,422.60611513596,604.95677061944,399.618301930191,447.026061401829,597.747199284303,376.03168324984,392.003101888573,635.601126206781,327.959212601578,142.304413835065,164.26597869389,228.77515336407,582.89201875612,83.9563359795016,216.113198953988,26.5802111077678,-54.1207624159888,-242.751932367651,19.9626739715111,-470.014889569214,-75.4230576673956,260.78520512682,484.542647040563,336.486592839098,980.214386382962,623.628314972125,98.5241479581379,548.455719821483,254.792632841777,567.672137884707,-189.013762562058,214.661763889317,332.827095170981,638.58963260291,-164.862905932675,-14.839164455753,492.39083383381,-3.04814686500159,323.435117121399,347.752645958084,396.781535277814,372.784409884017,411.268471287369,410.442751801807,349.996157271353,411.623905781231,387.244371238447,379.610559678104,401.200520197959,393.439008990299,330.468461143631,399.574084700673,322.052804211715,361.150605901921,391.914337006263,388.825490562956,361.860750057711,406.068133235744
424.406813387894,465.551817268282,419.738972059592,481.947686950501,496.558963697038,392.417216822364,447.795853500517,630.158551817938,421.435356581606,489.791579507328,645.462770348737,371.115171668888,397.438262111402,700.653696955491,107.187138465561,42.5632729114148,323.562025071531,-53.2247696294385,731.49400618363,38.9190443978657,352.943029776552,6.42045449819884,255.147151111563,9.48327814327691,209.897392798632,-102.755088615895,108.031132973643,535.966531769281,659.508361820396,386.93951513853,1029.43276433172,399.11119067802,-97.2156757729542,533.649432926428,234.047615982088,396.282775356799,-245.837511786085,131.665663125628,273.001854198355,440.40881070212,-359.515341503033,-6.83810387205526,366.335643431727,-96.2662961849113,334.814042632054,369.762413204284,419.618872110109,404.901944975266,428.97746070341,427.698394513418,380.525609586101,366.139664653771,441.750988854983,425.109206079929,439.513462702835,423.085013369279,353.803137806649,426.181093972529,355.786157428789,386.797769590162,413.649529446283,417.98380821622,385.082253934211,423.881269749404
353.314273374791,401.850709782795,366.515897755476,425.224515900483,424.369000764668,335.554340402444,394.309772817038,554.208386506617,361.724203913949,447.857899336856,593.302881607399,295.43074592823,336.48367976845,663.157306894572,-30.9514153804421,48.5770620436106,294.864655270959,-50.841815522919,722.827002730721,79.0091893366484,428.265088881648,-53.4778911322757,414.081934808112,185.71630159284,231.30200653733,56.791030987057,254.586681254124,505.265073118637,527.808414079986,236.359640189599,736.818018313627,63.2372018861691,-412.805294481776,392.762160560885,80.1840404705467,-26.9447390364219,-418.417259753891,-72.3451513032951,110.144832147211,59.5699771299729,-627.931503990564,-89.464529016053,109.629814566875,-281.954906618619,232.887016798532,307.614595637288,332.058233229264,335.410361970302,343.992378288534,346.811508049463,330.11638280511,243.585770641247,405.001308154246,387.814194783883,374.977677789483,346.061844693647,310.355934728049,354.089143389144,324.694994723289,342.360246499352,352.528744668683,355.885168355028,344.516976098541,358.873837276262
284.981350730885,325.070806164028,317.755483826439,357.930224436989,340.078744599374,291.017298828685,338.604204515936,461.404970800239,318.203963752393,388.4047130064,501.374532835433,282.282448518586,297.539467401432,572.908694869055,102.739926567618,188.487254078623,365.920534226738,222.69532129673,619.703408973142,238.753438248641,400.640987409924,-58.0165042251915,435.582141821665,177.526157452356,178.390307261396,-67.3073480322887,360.617283556309,366.879261886917,246.984566051569,63.3026449849083,269.21920073394,-242.431640062845,-748.087918860733,216.438418539231,-74.8038871892948,-523.578944897964,-685.214979154736,-307.339838935146,-66.0370780839191,-346.334124389194,-938.274443090345,-214.081539059586,-276.966794985008,-504.167208992605,106.507128933904,222.996403808212,202.14619034892,235.119982606913,227.284706183243,231.723933237668,263.841122766421,146.157844059935,320.667953671054,325.894999459548,278.400636427765,221.067597679719,259.850625165867,255.66200263177,286.444826744881,284.737418398892,272.151831894176,255.611771905748,303.149029147805,276.78500839957
242.10716386424,267.536030807696,298.050930432262,312.702206004888,283.335493708524,280.355247342581,307.533945706739,397.266790905005,309.184183373942,342.800608743165,428.561605484371,315.38901271235,295.240654180237,485.723384719403,302.128695598842,324.003276947514,477.634443661239,392.945667481759,538.843649588349,325.143300424644,280.502315018196,-53.8687486125382,366.928665177437,84.5010834636207,119.612944184961,-265.54172072027,361.385951948455,241.173261864713,17.8008618874741,-5.02898199022307,-96.3752206569334,-436.776705631571,-911.455733964466,42.6138219480478,-113.405541457385,-881.981561872888,-839.50252374474,-450.615184175188,-158.806740813682,-635.484492267298,-1156.43489495646,-296.670520117216,-647.270596465408,-656.901299565169,69.0246457999112,165.193865681765,104.038513529186,173.529216809816,142.430054259341,144.174895454657,221.785794594421,112.986916243917,241.601690938111,280.871026885069,210.37237531395,124.129771133124,227.435444416587,182.407662980681,267.344130869833,242.555313708553,213.042222358368,173.105799016609,279.704546912586,213.959961667937
194.26502523536,212.062369239981,264.459578605898,263.794013321482,232.151721971274,253.724982743882,266.615075562714,334.660601213427,271.372765352031,286.007745003288,376.377834879691,278.572455292759,263.46371829097,402.268281641386,288.923309331911,298.037325232058,381.271643699832,252.088934161374,419.925929557601,195.06303313844,90.6623486286412,-102.602718184057,214.274726877709,38.3405993045914,52.5667013842449,-301.634347094504,186.174760429386,123.135685209089,-83.9219654336572,-67.2220778084406,-256.277530384669,-483.043943916878,-756.206438700167,-100.703834995507,-91.6866140868125,-992.377296308776,-683.256283223344,-390.631502760534,-153.381714801616,-759.213391616322,-1141.74229846878,-246.878818178716,-817.416826861435,-655.506802510376,169.430321059494,138.15231848059,62.3903563891385,152.480175752961,102.135067995585,99.2630510395337,193.333631184949,101.657713490908,188.801919458098,249.726002709634,172.594448416868,79.507652572881,195.677283627281,133.016190103893,240.093442589468,203.718443011503,168.134011977017,124.309227614983,243.934561327392,161.925856767929
153.466475676165,172.66730321598,223.494284027322,216.947570769497,194.973819708884,211.547076590923,218.370686669165,277.903781759467,200.242494095358,220.216023439736,331.828658128026,175.083545002895,187.829235807151,309.341246252495,111.462439194998,150.920714042952,114.010811460402,26.5224624769338,166.038191046836,-20.4200395541061,-113.864678866255,-112.87488090822,-11.7974355918531,21.8680432142291,19.1036653338515,-169.559318795642,-134.535436978628,25.3926781295879,-94.1016246895309,-141.322251985705,-264.944734978139,-357.041436990229,-317.403524784117,-116.097870921784,-118.841031441493,-848.653690368692,-249.659518110353,-76.5252986735874,-78.4354562275917,-727.171999991062,-868.004818587657,19.7934575280145,-709.793138928889,-454.982078657977,390.938457089432,154.923562898765,90.4609460015157,165.714903831254,117.76709267398,113.073572525452,188.719403215326,109.870037387044,183.938310067417,248.837846939103,173.012362418102,91.1954206117597,182.236273710171,124.534057356878,214.340808445483,186.275465049638,154.666419016292,124.496824880742,211.355663538553,142.020843693077
160.903962319268,188.570980020267,224.903283993785,213.297384581063,209.860082106572,203.252196260486,206.587660575719,275.374501268208,154.42250589853,182.5446074018,310.731739646619,100.062916412383,126.463814858491,229.52687685015,-3.55742834848293,62.4793892186071,-95.7660772564757,5.43827774841923,-97.6609365776747,-130.693835615542,-224.347356499698,14.5586022032403,-240.784470141516,-19.692979940293,59.4003576708249,-13.5532981077768,-408.638990017253,-26.990661864332,-21.9940128962654,-101.063827311703,-184.29468937502,-58.2131324768288,198.697538275171,48.8191589400409,-172.893400674669,-504.544517304587,261.879649380817,398.154114093542,48.2174946704035,-568.63152270513,-437.755480834406,476.997538852625,-395.199161725235,-92.7742492234336,684.414235345679,237.657475743029,198.990955430042,236.349267726323,205.458798163587,206.619085814205,240.809166502925,193.844633101291,239.172727724592,304.84213476791,239.181069832946,169.226023143717,226.227286961628,188.833028023036,234.911019038841,227.557312487887,206.810759122483,192.426098609503,230.57037454968,194.354590599799
187.004284597836,231.445385761687,245.372561852547,234.199735723321,248.785416303384,212.008849860895,218.059138561708,308.576412377412,132.436790773072,166.477524667089,312.208256054749,53.0069386260638,91.3705495406338,182.4151821948,-8.69697032099893,80.3401233973737,-163.859621454353,148.201278221305,-176.336974473778,-126.128067656263,-199.438396373755,200.588718769834,-372.117042053102,-49.9752417230577,138.71547631974,101.282165263465,-397.441831843611,-26.3605185872421,140.913240997396,61.2924313767061,-115.210090873278,340.368507871802,603.467682260506,296.098088363044,-156.590064902189,-85.9064945479424,686.150349406425,825.595046698339,196.743447504617,-338.97766227735,0.743931666345524,943.493917904864,-33.4118564244514,284.765241781859,951.496778817758,345.156809596133,341.307243180582,341.801671744229,325.299765267232,338.341439796593,316.308523102806,333.871965186761,303.046096044554,375.238083739174,337.653482262579,278.187665738761,291.473658943903,287.883689397865,276.460163745027,293.999358632904,287.474312068397,288.721116723784,275.688434990077,281.379506788204
164.579342431823,232.617769428104,219.365286411779,217.814069277123,245.32866987361,181.089846957459,198.507130772719,305.05991355728,86.3163780057732,136.609666711748,302.94117288458,-25.2384684579993,43.1353047836534,155.736830251919,-29.2023925816016,83.2268161712837,-117.23923725086,217.88229863994,-90.4615293383858,-75.7539481576641,-122.338389120091,307.600101833011,-337.05012709653,-1.28372452632164,233.717738791847,239.580883460069,-91.6376570729087,67.8623771153633,360.686643293244,216.501415920578,-134.158088451073,731.149898615576,865.909377149371,499.936762643433,-53.9477727255685,289.015665215857,969.808738405168,1102.9759847081,323.56623623702,-96.5170752098511,349.862430633744,1279.26549797819,256.691365689921,556.173739423624,1121.93786184851,393.538991900595,435.236328587999,400.530258878785,397.572250735634,419.770943467135,335.624000030931,419.867807359834,304.283875944226,387.265714555492,384.365772802985,340.363020794259,298.282660175669,337.054311970271,268.081303593913,303.634548691791,316.543405688829,335.888287459592,272.812857086788,313.666591496912
113.440917839848,200.936192400848,170.350238517046,176.38583711891,211.4364601929,138.850405124037,164.613747448617,269.720905879502,41.1247915466991,110.795433577014,280.693054206159,-89.3157523575672,1.20606270700777,147.673409314595,-95.4398417805956,26.5338676220014,12.3167189780038,152.040478287478,4.56170496311319,3.76372260119393,-49.4290147036578,313.414410985426,-143.215236990201,133.277673980681,357.855916062977,456.390402856841,271.159978594394,277.142120223398,613.626000195772,277.099945166288,-99.5068516408542,1063.33302452528,1037.85446940884,638.966965334914,67.4939441982193,632.461567655163,1139.68486243698,1315.07264820495,422.633269704136,152.619455400476,599.402973209066,1510.33073004712,492.296986075935,748.274543008739,1242.32714696049,374.047360198595,465.492422433992,390.551968734384,407.615696875439,434.911556320322,299.561653065299,418.099538098589,256.760067657809,353.030370321319,368.681811635625,342.840531967963,252.994257506474,329.960306895565,218.146684789149,254.662217718036,293.056819039243,327.074253729964,228.787785870387,287.673386179367
97.1217292011908,187.478226513175,163.820683604094,163.787929084417,194.408786595336,149.847213340224,165.72770867927,255.831981842178,52.9984578884674,117.754256118435,259.595087121579,-56.3892298840602,10.1806422781934,151.564525486048,-96.4397420513397,-4.17462817984751,118.583695610667,79.7595253223061,32.2580681597884,83.7029631608152,37.7574240033967,257.639838447442,111.785173394241,287.435886398303,479.156169561108,698.538691482253,520.440852112185,508.752014912956,885.473084740697,273.127586976475,171.53871360011,1297.90874266597,1101.51528622709,722.316439706815,149.759378399695,972.960952266072,1228.43880005032,1498.2220086606,512.724976751487,430.81188920684,794.099350346707,1648.31460536419,729.598307088088,934.25416070374,1330.46863703775,343.642275930681,474.152644403681,367.082599646102,403.287467335202,439.303993325138,268.171363311522,398.861505156454,221.821137598771,331.653836725968,350.153153722837,337.550666250893,219.204502560202,326.142394110731,184.823662598347,217.176100840689,274.933999635005,314.042511382382,204.391395132767,269.144478467672
98.2155402188483,176.245116365699,178.976720948321,158.91509467365,172.812554994819,186.500342659155,175.467218748254,243.143058655129,93.2323676614664,123.921936772665,214.096281225532,33.8506703528842,39.0474566796432,120.473152796355,7.7270458104642,16.0519156905927,102.169207126157,64.2558998686252,-3.70044939992528,118.253853288164,110.915663968308,165.579730537864,307.03586220856,383.956008017505,524.845494875596,885.652313810095,637.697269323469,623.797465413822,1122.46109738288,309.198745434762,572.198540071538,1377.14080673943,992.699251886123,707.700836852392,190.526403734234,1189.62131833752,1238.27191291622,1541.41361802821,576.353660644444,704.685468810794,967.455252729816,1608.88565357485,912.380586267814,1097.55217617639,1284.20833202197,304.608942099316,457.196301139139,342.78954034874,384.500710096477,430.998611777699,237.379158239719,380.029879550353,193.80666521296,313.490331498485,331.51537634067,322.094841569916,196.053854508727,319.836285913473,164.52861282014,201.143758701374,259.098165364884,295.963072075116,192.59755321239,255.921104899028
68.3348567751891,134.952079689278,163.204178264464,118.831662270402,121.87722495041,186.458091965284,152.550213833958,190.764794016254,107.520767359189,104.099628401504,140.04384854644,90.1709596941925,47.7811323823655,50.2717141163928,126.356041803499,33.05325987335,37.7551072130809,68.5427635043672,-64.2062361652275,134.945380957801,129.196914017039,85.8345202865736,409.947400812506,430.538087374626,465.502454387311,1024.42569713423,602.551750128825,570.342242715533,1284.54353394944,414.280568030551,864.384412375976,1324.07191132308,748.896099615331,582.859225099015,233.936800594747,1148.23867185936,1195.26014681987,1407.37701005759,574.781733862965,898.953888804998,1088.44242631379,1405.76253448677,939.631163648888,1171.78114417231,1072.98175987329,221.51438834835,376.490319674305,279.989594348502,311.730357368477,357.934767510712,172.725180497932,311.355816078514,138.600409245414,258.166082275976,268.726497949992,255.067035024168,149.418277268962,260.061025879673,128.309589494591,161.814115917794,205.365528603241,236.915388110882,154.920096803544,201.511069741349
46.1598688314916,114.502287442765,152.863031941802,94.5664299056224,101.941576697573,179.985268723432,144.998086714315,157.356229144357,126.318926552232,117.376629486403,118.177368431382,125.113502196956,82.1225686598136,37.2253220681839,225.865771422932,64.4266161164807,79.4661550871002,118.468103394641,-47.459286761993,222.07134917356,176.150790905598,90.3418927202207,518.37092596829,534.011890463995,389.05009662194,1187.55172423319,460.085336208599,457.572054407507,1414.41441251759,484.367532887052,1043.70269036061,1237.30759253289,515.983435585083,449.270792616505,352.520240205123,957.041935559257,1181.80670044709,1224.65834766574,541.380541021771,1026.01719867266,1136.4839037435,1205.60532882044,864.385772479519,1176.36874890788,839.690000254802,140.405311836153,273.533910962218,207.56894295849,223.75258312617,258.39791924055,119.890974428224,221.642898349221,100.588598061794,206.322030865371,197.723872009631,179.926573295683,114.576603548871,188.636788261754,112.739085168059,124.015662954107,152.255707242601,175.929101590136,129.976198304783,146.727341915005
98.0814399474284,177.793402236445,211.039139981629,158.453043865099,171.741569614793,233.872495923299,215.460956022793,224.290526988598,201.978455280113,217.952607689477,210.655031602698,204.917279861688,189.414203829791,148.652707478693,377.027976695167,170.11544327357,252.169225380397,272.064708113075,117.158787299109,422.123225854852,367.141581129411,213.351418439179,747.39934015757,767.897601184762,444.766828808553,1413.16393557225,374.288393980836,526.585654856275,1585.03230785369,473.974131550213,1266.68533159886,1184.05271988188,436.186144435679,431.919331780674,603.699093522162,917.850934448018,1255.34804011885,1113.84806863363,577.955660131667,1187.16918281609,1196.56481249747,1117.39373677706,853.796585456376,1218.3641396986,724.540301838698,148.591271408814,251.467167913456,210.597730486364,213.483903941273,239.952891517771,150.385614058523,210.543805130662,144.101973527445,233.12886377761,205.043683538992,186.112094634267,151.167609231512,201.767586389281,165.362635985033,158.478996955941,177.835919696656,194.590679506897,177.214448047746,176.143658397767
173.7352447049,265.867950136706,285.966600591247,252.939646073729,265.410750737492,307.422078941328,308.269568689341,324.540057548877,288.830642221742,335.60899621361,331.148278910947,305.757038658987,303.037837794506,290.568703500453,566.315500623484,305.333740654954,432.269588470185,447.524993778438,327.088722795552,649.50887434758,634.637834035131,411.78015186361,1041.10013702712,1037.69620661277,635.472097964074,1626.81052626658,407.043851629307,892.122315821702,1752.43793075326,490.791660193982,1516.7285075469,1159.57568137033,538.749252983032,502.626632499338,942.574369728812,1141.62621901151,1374.392307404,1039.49955527478,681.853872926495,1373.51575312296,1318.17679100799,1046.18434041404,914.675256812533,1303.10410513776,693.779384673515,209.124805174207,299.427470424645,270.346639991614,261.780783668587,287.451396921476,219.69557217888,263.715623562924,215.550068778659,300.75244769958,260.649044688144,241.704010004225,216.2911992943,270.401096559746,231.116075412562,227.232759570004,245.99117575363,263.30202482878,244.89477234457,248.800365099417
137.019323574444,236.306859807695,248.243947773431,229.75757712147,240.664578646964,272.161001031107,284.353434975799,283.871187818224,271.824966286696,330.719185475612,314.280094392495,315.415906151392,298.461195684145,293.501055479876,635.736265966244,349.318092005589,486.785451426602,460.535651286275,396.15148627917,732.653348623802,755.191052114327,576.641494117857,1172.68535511171,1133.19960134008,786.641067222303,1650.01730671304,498.104971884419,1312.24412980153,1712.5300170322,606.444834134509,1584.31546390602,1036.7430373003,633.010141364534,513.045057101368,1203.94077458409,1342.70194382401,1405.65115774393,841.361919183774,694.649652218881,1421.62694136382,1363.82299929064,793.770698895609,858.19057961729,1276.38082037886,586.285044526167,175.33434948294,264.466801915073,240.251349653453,226.064074322098,245.208502979184,191.013495037889,228.115659202894,180.34840463679,272.804962593632,221.229364282281,200.05618447945,184.100617579805,244.646395356572,187.536044427609,189.513948677332,213.784596639271,237.171438048447,203.737610710442,213.247658508697
-49.5263748098399,46.5180107981221,65.6328575536151,43.9760689468355,55.790919818119,83.6284939443684,95.6540693187118,51.3099515534371,108.408082545198,163.659023040892,119.165716752102,167.499609045877,142.927689360385,116.595076848845,474.426575956174,249.439995920464,396.358630645549,252.962220955539,265.214401849469,597.64987735043,612.07191150683,642.743248225596,1011.42644518964,948.242574513602,832.071955045312,1374.15347134213,710.363992565906,1453.81801596792,1315.41725820144,754.065697565237,1364.27477932431,615.174608058955,436.181792201586,451.932416558781,1236.427028799,1195.6876330329,1180.92206254675,435.325718744813,536.874225364817,1240.76059128471,1184.21533055523,287.450610985946,588.734848735493,1043.15019759747,321.117935535758,5.87793636213713,79.0507513440739,55.0110055697313,48.9439271361914,48.4963024148423,22.851704396289,33.7121176378412,8.20965410919863,105.787497577758,34.2726620163339,9.28251398132461,17.1091839738814,67.0276285604074,8.78452037136847,2.19810629286268,30.4217468255626,55.620870301432,19.9090730413963,20.6271279022981
-247.354598207778,-159.257973949945,-129.842763392953,-162.496630134694,-149.655142452096,-126.505297623607,-121.667128124175,-206.070687258616,-87.8409751223015,-34.7499257885274,-97.5772481546865,-46.6505042243289,-45.1963468026921,-87.9897999056409,187.950493314455,90.6890417976125,273.61879794276,-8.51422343146658,55.9624431441881,390.946422316311,355.695341546267,687.400563301694,723.760857233199,627.781321932232,931.932486087223,948.144166953415,1139.53276958865,1313.69776650078,714.913450559283,850.465976790676,995.904275589047,-48.1859587951632,-64.8541810475768,459.365006692758,1064.56298974302,765.086715528888,670.684548965508,-14.8388730693339,340.380653772333,914.795931811558,847.747301392161,-288.657699913283,238.158263710535,694.467797547256,19.956155466617,-160.404485110541,-116.497884285403,-145.544983773385,-137.421966359398,-161.351500769634,-151.225781981334,-178.458825845936,-164.769113811937,-68.2851582695485,-168.433592289653,-190.08439354528,-154.795111717147,-127.351384677737,-170.563895348528,-189.336158483166,-164.638814422732,-145.399552734683,-174.138132776269,-182.498242031641
-310.727831868419,-222.857598836437,-195.965512967895,-230.968329514862,-221.609760941764,-201.918979372442,-202.220407113743,-306.410782728274,-166.793105808646,-110.15375574453,-173.084882108184,-162.790589954335,-124.168920954603,-161.496404454319,-16.2478839763971,2.80938158212417,232.89770092181,-136.166518780592,-81.6649096957818,296.167224817707,214.801517350222,778.447878138913,553.310047146305,393.220646148695,1132.14146636882,625.595982925013,1558.12883862457,1109.66735156671,227.455381287457,845.683473222327,654.75286040127,-562.358877117983,-591.122889105788,482.581196945856,861.894178697593,355.740792246918,85.097994242141,-295.467356254868,227.101957255561,524.788353823853,526.086837006632,-648.783885514184,-45.0772705309365,338.089785061627,-181.555272020028,-208.467610270331,-186.147516782077,-215.628875654134,-202.948903955339,-239.694259828844,-202.047897591881,-255.125977177258,-214.841599056619,-123.649299069493,-246.707164799613,-257.240630342931,-202.298069548867,-196.650473175962,-221.026411759188,-241.137529617396,-228.388391411761,-216.778078033764,-239.120365122959,-247.372856660301
-285.649128519121,-196.409418224782,-170.990913156481,-200.932822176067,-206.06302232126,-177.717579458489,-179.199927233427,-292.862341455396,-150.008422712155,-92.8264545596283,-159.88369415571,-168.124189191271,-117.684660340645,-149.573951677717,-110.790630679876,-32.4642347576169,221.186887345567,-172.134585674633,-164.365362799197,255.183904251806,177.188340521635,779.562773575636,461.808789346718,238.696517604837,1166.67696631974,428.976847401739,1531.81170134739,897.420725227053,-70.6720046733955,676.530529125069,355.640070856503,-725.912597223712,-910.516379282477,240.001230761565,722.259420301255,95.5585552398507,-359.449980270533,-467.17220916038,137.069822489258,50.8582337807326,253.251787937619,-725.080869861798,-275.135987128834,-43.1434550724374,-376.492226958888,-216.137910413054,-207.049159001619,-223.52199758209,-216.58210472015,-251.919524982279,-193.505839639534,-263.632200841878,-203.233082276139,-126.377009709169,-252.24270376882,-260.034830222217,-186.476766295667,-201.891009643751,-199.212941479998,-217.780656307362,-223.828587286101,-217.883712982123,-219.425669908016,-234.411411557203
-318.728930607495,-241.561969555188,-199.168676729625,-228.216232779012,-256.106168571142,-205.85509986403,-211.444138378704,-333.338892600921,-181.900592397585,-134.829334811183,-218.072323328095,-196.547008022193,-162.400889714286,-203.105314620381,-239.685001337528,-162.835660490687,100.451102781425,-269.390411962498,-320.360628483667,97.7588718622662,50.9195590430727,550.920347961199,259.395253784433,8.99603235694135,854.10621419909,207.828632828796,993.211909407361,602.4885302807,-367.051743825347,337.322458179671,41.2956163947744,-760.222071289646,-953.569700476488,-293.09329552498,570.126317415449,-89.6498570183887,-660.882831339381,-694.143500378144,-10.9095582413613,-473.282189555579,-17.5725259431429,-699.014455231252,-497.588227574985,-452.847018400356,-714.916826162633,-315.48164464431,-323.182760005606,-318.411313946343,-319.528215330334,-352.177215569398,-268.574088075568,-362.753044938824,-265.338254393148,-214.302882322663,-331.052428320163,-350.745901419501,-250.889045060816,-292.4959647456,-249.256001460533,-276.674637409464,-299.655530159274,-300.935115852909,-259.795854651358,-299.103938341302
-414.426732385629,-352.601324446342,-292.180809784468,-324.016350393668,-365.628600311835,-299.130185162189,-311.45103488963,-434.429646458649,-278.544591332981,-246.19125624267,-335.787613612383,-281.634998543365,-272.812148056321,-318.468181508826,-406.168434628461,-420.051745474432,-98.2247592496552,-409.881430203537,-527.850435831967,-107.576737676282,-175.042898525556,234.969767546108,-2.82119209997,-262.848111116346,410.326628525837,-62.0004353486834,356.738389745858,279.552030382,-751.917353426126,-39.2818277683568,-298.279278986883,-838.912415583173,-729.0327950325,-750.097019439045,361.646795990849,-236.236688777195,-917.378646891993,-897.534406883224,-162.464658136171,-872.584783839777,-223.614783011397,-681.409941016827,-625.619914959847,-734.247534244072,-1061.82416521866,-466.65784364473,-488.882717126234,-470.111146051704,-475.451754021145,-513.347999380086,-405.946290626482,-519.740764453633,-385.806528518643,-357.631803753985,-469.633698161813,-497.995744953805,-378.181786092403,-441.002142452151,-366.951193218299,-403.646764016925,-430.402893304734,-439.620037441162,-364.673423151711,-427.601437139301
