139.120664367125,140.280607373833,137.59823917082,137.888224922497,137.018267667465,131.146056196002,133.683431523178,173.991451006305,132.958467143985,135.785828222837,137.090764105384,134.625885216128,137.743232046658,137.5257427329,138.830678615448,142.962975576847,132.088509888953,146.007825969458,150.430108682535,143.905429269798,163.26197819425,137.235756981223,159.05718479493,168.3367288486,157.969738226141,183.77847012541,136.583289039949,165.944346397263,186.82332051802,109.179635506456,184.79342025628,198.350254147188,110.629564264842,143.035472014767,48.5726134059268,213.067031044804,153.837441264741,114.399379036646,68.0741552062168,150.720094434212,178.051251529785,119.184143939319,186.170852576746,150.792590872131,140.570593125511,143.615443518121,145.572847341942,142.383004073493,141.730536132219,143.905429269798,139.62813943256,146.225315283216,143.76043639396,140.933075315107,153.474959075145,141.803032570139,138.468196425851,141.585543256381,138.395699987932,142.962975576847,142.165514759735,141.803032570139,142.020521883896,142.310507635574
664.184179220076,668.890621508303,656.742817080561,657.68381422938,653.410894024537,625.692377429597,637.22469040709,828.63031619346,635.16218328672,647.925479164711,653.609895092782,642.929051124807,656.560847713697,655.166383691849,661.503267561194,680.820936622287,630.671773768119,694.471221456689,714.222412601166,686.380304464164,772.861951128481,658.575172818188,748.48801965855,792.881726690858,740.79073517012,871.299683872954,646.199683267765,780.15249421563,881.397643249311,515.22751871118,888.222504222647,937.542609117004,526.312190992173,665.940678603319,279.483534569513,1003.09608992875,733.144992614033,547.027237163378,333.159814803283,741.262127400931,849.778884448047,564.801079694389,895.990828604865,708.18526346422,667.656725519543,685.656796629103,693.494704360977,678.79394944881,675.770500389977,686.162815150406,667.82457627329,696.880635609407,685.909805889754,672.784027822168,731.280030017776,676.18699077198,661.015737285404,674.792526750132,660.381757589643,681.980879628996,677.544478302801,675.534522830706,677.798944107585,678.739941256404
1277.05512229062,1284.33402454566,1263.54666202478,1263.10658837304,1253.8496121127,1202.98599447825,1223.45039881267,1588.76227352793,1224.04165133246,1245.73194354316,1254.47380220171,1238.59949070809,1259.72320463672,1255.80661549482,1269.60182347395,1305.17685180308,1212.52025379525,1327.79580404374,1362.2627156226,1317.24557335899,1464.3802756261,1277.03131866742,1403.97351994764,1485.859084427,1379.64569891476,1637.46154752813,1219.23308820625,1451.82554970884,1666.71364239454,969.740559635226,1735.46293787394,1778.99489205096,1011.00601015719,1216.12619204286,698.831936961674,1889.21305405707,1410.03817551932,1058.79919228158,665.451982751438,1500.59472805236,1638.41969285674,1075.6136303095,1755.07776505024,1326.9415028372,1276.11150789858,1315.96276420205,1327.54752423116,1300.72923919156,1295.93330362959,1315.41613070963,1284.83862138838,1334.71589745483,1315.87068855064,1291.66296580241,1400.90439035935,1296.13954679247,1269.97627720626,1292.80292915392,1268.30307358361,1308.360868895,1298.44309163078,1292.46362979236,1302.24806077333,1301.51800136991
1263.5749762809,1269.53908770079,1254.58765250397,1248.5348422324,1236.24536693237,1193.01403078288,1210.17919783703,1568.50159484582,1219.62244083574,1233.22718834197,1238.90159885184,1233.73301699015,1242.96216190369,1237.07995697709,1255.36972253528,1287.01883400984,1196.53358442387,1300.44080052122,1331.41490064092,1294.20411460246,1406.50179896057,1276.80618144063,1321.91200855202,1392.50607624952,1267.89507318552,1499.92120680716,1151.20940008019,1325.65065705075,1613.85786862836,918.391944766974,1784.28090571064,1731.49021899298,1013.21155710529,1052.10259773158,1017.79183261484,1812.71460658701,1406.16673078127,1067.99231725479,708.501291485201,1646.55232528907,1643.01828544687,1054.27698702316,1824.5829761795,1260.03194325162,1257.69216821873,1295.25398589183,1303.39807674113,1277.74682588363,1275.43305386032,1294.3132625813,1267.20526629115,1310.43892636858,1294.77365184175,1271.33155613011,1376.2426975206,1273.91350138504,1253.96883905015,1270.27577294565,1252.96772294952,1287.43634562871,1275.98854422977,1264.71668444377,1286.11879651801,1278.97999622179
741.050421499951,744.909297327558,744.635673503695,732.726897525491,719.459816769396,706.75047269351,712.113485356541,922.7311044017,729.870802988826,721.388875714587,725.887596263894,736.953920085017,726.174417452656,721.034618631064,737.936632920766,751.083421219633,685.383440724932,743.802493894008,767.53873186154,731.297995167638,771.477839363369,731.890427366349,698.287208853923,728.229765803483,591.785555745039,655.853345794909,596.389307888247,622.952203114239,937.147756783308,491.366879797395,1126.0224485209,1002.67018709281,638.036130541638,391.516482108798,1018.63812161763,1028.10226447711,843.671365008044,648.621003684917,502.194181308868,1199.15242682519,1005.66577672382,621.396786732914,1227.63814006448,706.155540036016,746.961622431256,752.354768771156,759.422427880585,739.482989999955,740.124834342873,754.412821852206,731.944380548234,759.102248919927,749.962689379505,734.297475414214,796.889919194335,737.697557533579,731.102191447719,736.369935083625,734.22845782158,745.348570233322,736.694477482357,724.631936514116,749.295493863431,736.776321459212
432.657401164078,432.100613463971,443.22540182347,428.860858498408,412.421523839977,421.486914416032,417.140050567189,546.593231117933,438.630141194536,412.715016047003,421.600190053357,439.209447992284,421.694208634366,416.734613972692,430.886616711653,433.292805834013,363.685769287571,413.924870007272,445.053005203153,377.856048939383,418.725661124316,339.396793347221,388.311932145121,398.02793439127,221.728676619594,175.181793707415,317.318902315499,282.795207889667,573.431009727364,273.719608076414,631.77035404983,585.443716536777,434.798671094225,99.6875212289925,848.907140870922,613.631395602466,473.812462544274,361.50973238995,423.824527880639,880.707312939108,608.550551953336,376.133823374482,879.240744447627,442.104883380317,456.547261443122,436.80191773167,453.719047257833,425.38032316078,426.353642469269,442.769782977154,413.277517929675,440.673241212681,427.639271063001,417.19874575886,460.185128778069,424.261270418664,417.957223280664,425.105832166568,425.119712097425,426.722727323041,418.22932071384,413.386775112263,428.567567196258,416.853962160783
398.105141870683,386.4229281847,411.924913205885,393.573448944216,370.901643282258,396.59703438619,382.854707485038,505.755547455799,406.564771589658,374.76748344353,379.365264960702,406.993845409209,388.746245945123,376.941106875394,397.627282777329,396.06692420557,316.825367985492,377.416844204545,408.274365884003,329.387375392058,396.825602610116,228.781031316892,424.635171612411,404.766047937756,271.662923282431,169.734079615817,383.491644797573,363.959130261888,509.392282837859,298.365113290865,407.623555822124,498.006117399045,417.841404266829,245.821086765368,703.464226145701,565.220577197377,347.628844314685,292.657675707575,519.334688766913,804.68626245541,516.193833814806,352.382009592953,855.4093077823,452.75268962953,429.183435310063,390.81303932682,423.718002206551,375.943123692966,382.676239494677,400.79520342863,365.825486553382,397.197363043532,372.790592573731,369.338077924827,413.362799806099,378.405181003196,366.162768766534,378.811984669492,374.430489614666,380.368318318323,369.600595216679,372.712985419418,383.75294965964,371.764767931006
283.576194534818,261.271238742966,308.495603582525,280.784506488153,253.577779429411,305.385895507915,280.753814934405,362.886902060528,307.711170898905,271.349794139855,258.981740296052,315.365361662107,288.554109132193,262.361232687697,305.013452296433,291.262114563282,249.427053905111,283.284771477527,282.905391052192,263.364562961045,283.723974911212,152.427698581681,359.754073272407,274.680966813202,348.099525944606,112.129839222462,405.568353428568,401.417231474407,266.710075016025,290.092966990753,133.865672113862,228.129653151033,305.911661977109,319.664437914466,586.605022588535,332.078811170067,141.248556632927,232.69602465267,562.548978154788,625.393443259804,314.093841194577,288.748370128988,685.313120209695,323.772313232525,325.668291833984,233.361781725208,279.66699574083,221.128687841235,238.866096112912,251.204502960031,219.493134409806,247.143451095756,215.030441767732,220.498031014609,256.675023269957,233.740986045637,224.146149802221,232.37421605668,236.179005634655,235.222663436692,225.560996681179,230.094281050476,253.280081195119,235.832127075482
113.709867210456,91.7528104400616,153.661854411492,118.084617700834,90.3170520408245,164.642883380673,135.647802074644,148.31920226843,168.185624238646,121.742070698578,96.1076360784484,182.823456729084,147.91738701396,107.147007064293,179.008167664005,144.486526957103,174.86574859649,156.44994698625,114.430395419899,190.996398694214,112.0816030889,137.006242319759,200.215114554701,73.3142185580345,367.240324751969,-11.1079749793999,345.765620578092,361.526692681755,-52.9127445424939,265.100630024879,-76.9208793606659,-184.396140068558,140.829449901563,196.632500358493,478.7341206357,-14.9677817117005,-60.2248848391047,189.197304860901,516.835188476913,338.44697038737,33.4196080165165,236.293457433581,356.343121804367,96.556949106351,169.38728529228,9.05637472753794,57.9953643889967,10.3836206926542,29.1716365274188,34.3520806701712,9.10386191105935,33.5936466870235,3.1843321060229,12.253308363597,36.3559632161424,29.4061918754291,30.7531811727961,29.955666370134,49.3426327112564,34.2579681892594,26.5996540580557,28.3065469134832,66.0288172299036,45.3974675974998
61.6327287586864,51.2971301199006,108.080456900345,76.2194055828804,52.2567998342497,126.120029130003,104.304713700428,74.0795415268951,140.131667437845,89.0912132686467,65.1989023491555,153.068170546451,122.031061525146,76.5562824088196,166.175465965996,117.128575355098,195.515106516889,147.333741763504,86.5768168981508,217.148503236764,72.2080733161353,239.34376479292,141.473247502615,37.7792862291652,382.960657912717,-12.345333859923,333.118584350769,332.501018753865,-181.207982174261,315.506803160655,-85.7264972615643,-449.128839510586,101.319057258589,109.476900748706,406.427917338184,-195.54754463705,-60.7840729801878,234.026149267997,497.618278346378,126.827097496594,-127.438130512797,317.483872750799,116.274434355294,-2.26883708205483,113.312666976877,-55.8771107675715,-16.5356715815151,-44.4034116863813,-34.6290383695045,-32.7460237783131,-52.0657068187013,-29.6825710660105,-54.9702388724358,-44.1226491868505,-24.0742656261869,-32.5307002068687,-20.2010232320268,-25.5072645627802,-6.55951126155894,-18.6606776268229,-26.0695390761173,-26.228770022782,11.8360034347903,-4.96375229171694
77.0222691020856,82.2809969455966,117.49540921075,100.783974311005,88.6790994645856,137.778206262464,131.016467995267,79.3341922536079,159.951371330323,118.265540051013,108.012268753966,161.636570240211,143.373641038343,111.263783089877,191.023081985259,145.951355772686,219.303685419417,178.187289454748,127.388166889728,237.391719486306,93.7721907224242,302.956192311555,136.933399302308,94.8722816687686,310.743535415391,15.8596498147964,314.748651696782,185.685920952222,-169.386581080807,367.454187576856,-56.1380502353585,-488.617559100562,188.683470475315,165.271951268715,358.934645227658,-240.462300775487,82.6218280865795,333.67772491015,513.176973820455,5.60042498326014,-190.570357913918,451.373804884375,4.47379295214039,39.2224860541284,126.90095910302,7.44019322216656,32.9576038847389,13.5306133012794,18.8584477428088,21.7018611481694,3.6120919922291,19.8517370418603,-6.56478813638359,9.59410390976344,26.0863612022459,14.1077987885958,26.8665159286221,23.2865498759923,22.8388316083821,24.6737408795491,22.3449765372233,24.1636732293305,43.4078479757231,38.5944229540283
72.8949629516532,89.5671954280615,99.4547530266989,98.6738193413594,102.248040793448,118.417843521501,126.401768521014,54.4747452626408,142.792480024317,114.481899988487,120.817378641934,128.973158343035,123.510501594358,121.340112289948,162.360710413861,135.738034827753,170.044887767344,155.574520923234,128.717503358098,177.484465585519,79.2467902988661,234.711391754152,96.1417762516668,127.072981812915,131.725991650423,9.36271901221912,237.644363041803,-75.8835206878951,-119.96476429757,355.776080253384,-75.3948676578205,-360.362386300077,309.054790314217,255.218047769017,302.779234244553,-269.795554433071,232.10704483785,436.300690178159,469.807886817748,-90.748172759712,-227.097574719985,508.610880069476,-94.7866982583815,115.269389475133,135.123550096358,58.8380298749513,67.7474724704085,58.5085641737958,61.4815844741727,65.0177875088972,53.6496609936524,57.7082947597555,35.8054966418404,50.8758117269408,53.1567385202817,55.868889621342,62.8455489406658,61.9944566751571,49.4497953106926,51.3601361226202,57.4087921954999,62.3140457611196,58.1467305842816,69.0535281746342
83.8002414585008,105.37427125708,97.8165800097927,106.896468170973,117.04264154531,111.77111372428,124.348426108341,42.258835932462,132.738154809643,115.980190349849,132.160630614293,108.062795228319,112.422070221251,138.145283114665,130.926430997043,123.719000553008,117.874071156959,130.716501214255,127.938439184353,124.460299937145,78.613301839018,143.567731396298,72.5393917278764,168.730131352006,14.7540434031267,77.7919135076903,202.39207129201,-188.244815582279,-19.7902361020485,321.751840699717,-50.5101104127823,-177.434108163049,413.37833423924,281.8672454068,242.224977650407,-294.222891883192,333.951054224543,522.791283621141,348.666246840346,-175.745081176818,-217.982263964333,474.731088129431,-234.195812163333,166.682713114107,134.207270126858,81.0748552887443,67.4801458893665,88.0306015211821,80.9922417358933,78.1914235469413,98.2739973881437,79.4150049660415,85.0912869060025,85.1044975696587,66.8825690417097,87.4659561591772,102.678045411792,97.7980721223367,92.9409629823591,85.1595038302385,89.9780493314974,93.3425675076107,84.2091511837929,100.873600317294
129.819657970204,152.622306603552,136.687069792299,152.193212129402,162.465637247885,147.981473299892,154.583132751194,74.2325839951444,158.684773913682,157.442919040301,173.918615711372,131.877401104238,146.573392037615,180.853117715128,142.524095793188,148.495326491918,121.143882011359,151.432984320816,164.941409028403,140.452854141804,131.373867823664,127.727373137065,125.156107946126,242.453479773653,97.7455992652479,236.943198570695,280.469707509079,5.11435003212593,127.630882987808,325.143879587354,20.8874757034217,-36.8327430339897,492.003079301989,292.004860345711,217.242456415956,-268.943248854633,383.342503362816,590.988393290989,252.577237991702,-218.641560791891,-132.512599885158,422.725376560918,-344.953731982898,205.164134983508,140.301049847817,118.834663867648,88.9386520989045,135.223449394367,118.483376477386,106.168458424209,163.108759846095,120.454375828228,156.257319472819,142.458763940388,111.803979145985,135.969370404687,167.107637206492,155.504452030751,156.513128759101,149.761301843685,147.241461192148,146.479229287306,143.520184784299,155.900803082594
155.825233358558,179.458300746537,153.53934233804,176.164149038753,196.0710402132,166.63621149585,170.447898315244,89.6698854720076,168.673017549726,184.105833611453,203.258291226329,142.752640238438,170.284294700993,205.620205996871,156.667926102131,171.551049634536,138.525826675229,178.61781963614,198.922168806959,174.213377746275,187.803418896605,138.79302389061,211.356486308247,298.328849795725,301.10265089797,374.017793481203,377.964979423421,339.275681360053,299.005169901706,395.861281502866,58.8407808632334,91.3424964669549,550.54765243704,376.499623826292,249.129331955207,-151.249914657069,400.311454870022,635.437516882998,263.950396963995,-183.915308764183,21.1621601301495,411.180588558869,-338.800713167777,275.059151718003,156.167055174582,164.693969984012,138.872026359351,181.587648451594,165.68712980675,150.563973419235,206.322020223792,165.005724542874,197.395450895897,189.285940114979,157.489662823995,183.504517181506,206.684183526736,200.782694286311,186.944996014146,190.095079007442,192.609299215987,193.354334341868,177.112008097036,195.430303265844
129.391493379436,157.094980428206,113.728120866039,144.873382047225,182.548388059743,125.37921290829,137.340609978924,56.6967638163391,129.625316233214,154.423793883994,190.621800594066,100.73888714215,141.017838976471,189.834732991662,129.886374958692,154.325606770472,116.524295792827,166.062593201152,190.322127676614,160.511076932841,196.05764699388,95.0167802166581,246.383620515006,304.205743091231,412.034128109549,437.552436517292,348.065250475229,521.70788341706,472.905783501415,502.895259937546,93.9194383886295,238.910675208517,604.949680621729,522.707033643438,305.621809486432,48.5669427629031,427.837447752392,625.893019888588,352.720666023436,-73.933247184071,211.636962877073,430.015935939169,-201.173609728445,398.530011854047,186.84525790237,190.336084898359,185.230645610855,207.772371353798,200.097921475904,190.39219424629,204.095130613915,192.426196099201,186.384613881124,200.551138082112,169.544218079704,212.030159899688,198.208887685893,213.656674702796,166.729011156299,179.932034339366,200.007168104291,210.520575982342,155.372997793114,198.273336848591
68.7545828191008,102.327828543171,45.6979987838597,82.747698033996,130.199714852418,49.8900138144791,69.9046126104555,-3.4716737162664,60.4489603092784,88.6117181495345,143.766831609689,25.4520428591673,74.7224672995197,139.457762635297,60.5257963078815,93.9707646078804,49.6658310659065,100.794838175835,128.786550935891,80.9293990242282,138.522984448803,-7.69903622647819,174.425548371435,242.912419341874,287.512922990933,433.568934053059,136.66651160046,397.711688533725,509.72191320866,521.693981754941,165.746481769031,295.732313843522,625.664357286281,597.411062120369,310.505621197458,215.283624515626,448.32141238296,494.635836963509,421.090247692155,24.1713425768457,361.931805017837,407.087454762349,-21.399565043091,512.610114136961,211.287866771642,184.238890887145,204.007640378443,206.317588558688,210.375943010428,208.376153489328,173.867475619283,195.424005804821,142.496229290544,179.937260823702,148.56403268255,215.591491597323,159.975939601834,199.615685302636,112.626464535574,140.981642612441,174.078442417597,195.57366429792,102.7326109396,170.439928541972
-22.0155152887873,11.5914230038703,-40.9009124561126,-7.95582682701779,36.4785427004296,-41.034696029349,-25.9220017535004,-103.154435228719,-33.4289869889023,-5.20592349131674,48.1323473422177,-70.0861485179493,-22.0132853942812,40.7761398229727,-50.177103134166,-19.104710956729,-56.3068649023187,-28.5280051313698,-8.05477085777502,-67.8909218546286,-3.92252699782274,-150.464120721589,-15.8538537092648,65.9302129942945,-52.5326683531343,309.295147473735,-186.674956830656,31.6071726619537,164.287025604405,309.41627898494,101.448847759727,161.260046305004,520.650501529928,465.700992939011,158.480832284749,182.492269108485,345.946750650901,186.224249664243,352.377246096301,-36.1854100319263,337.287588720923,243.382978197961,15.9755015390084,473.481882399232,148.332533190913,114.163419065532,146.468996578354,132.056196276942,150.303611635088,150.363746354849,93.7036793510054,128.659430147363,51.5189682410788,99.6499806320997,66.927773717841,150.516213570521,73.7766705309787,124.297538371572,17.79942667325,57.021648302494,91.4786897147364,115.353043742067,15.2374396844848,85.7714592174925
-149.090490768612,-122.970266710965,-158.300235748464,-139.726382152573,-104.153217571901,-152.997192044654,-155.395891875239,-258.747409923924,-158.636156925073,-138.554687101739,-105.042783711357,-188.754260208892,-156.564897261013,-111.104264794906,-198.318756431951,-184.146553923881,-193.426803852623,-208.413709316334,-208.895307307023,-265.807846944246,-220.235633332584,-332.971572019776,-275.420609501581,-224.454168455487,-476.402859374867,13.4834439704629,-495.451481694638,-392.34074390392,-567.275081825223,-131.988194625551,-290.055259938242,-71.5063402193846,260.297067857215,142.065184299062,-197.771996935977,-74.8759076607223,69.6627481219427,-229.167590648952,97.4096674656305,-295.612322804696,93.6849601298134,-93.1453069710503,-192.434132122785,217.589525398666,-38.2718487902062,-41.9428204344258,-24.5266192801421,-38.8357045724955,-15.4465743540237,-19.7966711075685,-59.5873986222702,-40.4215656620569,-95.934016214704,-58.6243402207976,-100.009399309006,-14.5849312801839,-74.3532536323087,-38.2612097614382,-116.15971868361,-91.7403776565766,-64.0711946165197,-47.549588092302,-120.682953613008,-71.7571754701733
-274.948949168304,-258.822728002471,-275.859440068159,-272.041640142428,-247.022842677475,-260.228337305035,-284.051360526053,-412.560237050858,-279.302802357991,-274.592222434108,-259.269077762339,-300.665893970931,-288.87234884209,-265.001693412807,-337.291723133726,-339.776315728865,-315.761560722455,-366.613396438766,-383.2901179413,-434.681927070503,-424.037433632959,-504.166055540629,-500.104330948482,-505.570228525175,-809.299560610634,-385.144921098476,-717.54524533242,-745.101168010998,-1205.82426444064,-592.816266765484,-830.50253036741,-216.45542214328,-64.6985597792615,-204.486591114721,-618.97488620228,-369.575907152316,-262.638688292491,-599.24665729291,-237.036473287066,-605.242136175369,-214.692751185825,-514.774065545648,-513.046654022021,-142.843931984678,-257.034431364669,-228.145259237689,-245.521966024348,-230.519045151186,-223.03196023467,-230.682883663167,-229.458278294827,-243.769981106205,-242.621344970187,-232.318711951326,-289.306176322268,-215.283826295892,-225.152114988895,-222.6514995389,-242.124609537486,-248.071353320434,-233.460656873311,-227.477320955077,-258.714783023655,-241.151677356715
-363.96484835123,-358.784042390621,-358.06276859665,-365.663983633607,-353.348193454667,-335.845453717505,-376.038309039993,-513.169262081706,-361.54845311347,-369.420736390055,-367.053966655933,-377.879581654359,-378.611269667198,-376.780664247894,-425.668327950203,-436.37808219291,-385.793601051478,-460.686785083889,-479.770066703575,-519.480857031821,-552.124727581485,-583.838904168279,-635.337384881028,-678.730980010448,-933.091709735789,-756.055863576462,-854.940155318186,-1031.37386515699,-1270.18190163201,-837.002475409609,-1136.01328532615,-252.09929112787,-384.385058898618,-432.047428079822,-880.620406348806,-553.775025022605,-550.641023753981,-887.290630811391,-498.88305476657,-826.350665765807,-447.794543125736,-914.164628764463,-782.161690213655,-502.17884040115,-438.449849167534,-381.642557969319,-432.238626282147,-371.641476338019,-389.860665244252,-402.258280356375,-358.080918043797,-403.943648977903,-346.757395165705,-360.411061589721,-433.008450405313,-378.42372788291,-331.996649848789,-364.236103078359,-332.143353467331,-358.50808230914,-360.367685331582,-367.10158124474,-354.71732103459,-367.478185175756
-446.374393661376,-454.968543026043,-435.143509024997,-455.745621001276,-456.643297560121,-410.324867708024,-459.041557378668,-605.667077281446,-438.413109756695,-453.799488714555,-467.290847530655,-450.420600617751,-462.219669964029,-477.707576903915,-495.679507503137,-515.401225203839,-439.589980975082,-541.676330191979,-558.702645781722,-569.734348558529,-646.379183514174,-581.939511381741,-730.849190004956,-778.438286580242,-897.760019873411,-998.565276240486,-887.80183004557,-1238.43987653934,-934.539910196138,-830.061819651341,-1124.39861014818,-340.292863544834,-699.57095863545,-549.922822060775,-933.82272836005,-703.169509290394,-823.357062840032,-1127.52666543495,-656.989766534712,-987.844130975662,-648.492718109606,-1219.58115675382,-1009.13492780795,-862.827626814809,-631.088854235207,-513.894434941319,-589.748353850733,-493.361981055736,-527.555481190297,-554.672942717176,-467.742311007701,-541.564255889192,-443.855557197414,-469.780708302579,-558.286767399011,-522.285141375148,-430.223524339783,-493.690894850813,-418.398791276294,-457.775559411225,-473.263895340411,-496.994434990472,-441.55407572833,-482.488151090258
-541.379232877194,-565.735509785009,-532.518831684993,-562.993784867214,-573.049695924448,-500.496030108382,-554.539243717953,-720.77422597292,-534.286075646019,-555.120930729234,-585.87176991087,-537.544931920162,-565.68962728692,-590.561049681807,-577.739855858701,-609.345055598957,-510.565001434908,-637.066547734655,-649.423184806411,-636.509528298668,-734.677658657804,-566.852145517782,-806.041110250978,-830.266765353824,-815.303405618989,-1035.98081201143,-771.237942827567,-1205.34413845971,-718.742381988154,-694.059050184439,-1001.87262724618,-537.659151593956,-948.361406629826,-632.399677346254,-895.1454227337,-891.253136478706,-1055.88293311602,-1234.38445468032,-755.725766354083,-1127.593574381,-845.650595552258,-1333.93865103387,-1194.42266026002,-1158.33382984567,-832.639923855431,-626.493063418743,-720.842024394095,-613.405039956862,-653.305459071368,-696.656749110706,-572.861076486554,-669.57082386102,-547.146877878033,-579.628716622242,-681.597606451113,-656.016808053654,-535.306110721536,-623.615556941507,-509.549210824254,-565.864638338474,-588.502769467312,-625.483111231101,-541.000113766134,-601.741435723885
-598.347643088827,-633.400358324784,-599.920763938314,-628.356638515719,-640.825831993622,-557.242900410123,-613.722380209498,-791.684146165669,-600.549190794099,-620.535209247266,-662.929341833783,-595.581084635542,-631.881422979524,-664.334113476135,-633.665291686667,-669.318989371342,-565.848956427312,-692.363784720564,-695.894855151474,-687.781519443553,-769.414868201438,-555.485071187714,-803.382271041597,-799.508520386014,-707.007930026323,-885.343019328768,-571.892422887671,-875.862593945851,-732.338485199797,-544.913740081332,-893.181190707439,-694.162606414908,-1035.54220695595,-708.050187877913,-847.209356345986,-1007.58147011879,-1135.10529548723,-1135.27681140683,-816.735138031127,-1183.13546883816,-949.494935999814,-1212.96208771142,-1239.33718099742,-1268.40847965848,-924.573017543236,-663.559158259683,-761.938265741647,-664.045732255954,-707.149221941398,-754.792103900269,-622.879933387738,-720.880503867145,-597.84949595194,-633.681629241736,-736.180721772025,-712.401727316692,-589.246273418597,-682.123359536159,-553.70843146816,-620.63321272479,-645.004693010151,-682.683208949456,-595.338859076788,-660.183876785098
-596.419521722045,-630.941485143529,-606.068842083245,-626.718146153431,-635.572734259225,-562.995111210702,-611.938738528973,-785.699872415008,-611.208329931057,-622.902498435136,-669.392932939511,-608.048017139942,-634.495985800115,-676.005961347514,-648.523955472385,-674.867619452286,-595.992608755394,-692.539350283799,-696.05516864452,-702.508079323619,-752.93310871825,-541.714234889423,-736.364361648081,-739.429810624435,-590.249033945089,-712.420671498432,-452.561747206951,-519.221677157932,-749.17865145169,-461.736917493751,-799.444559444785,-714.688968423624,-999.822002107218,-758.316517033527,-808.221727887831,-965.346921400657,-1072.17392838719,-955.95865698804,-846.934232794287,-1127.88087436412,-945.626152424291,-979.825905822523,-1149.34802957681,-1229.72530930865,-865.238363845692,-615.286376542778,-701.62652512147,-621.73108464574,-665.774517261202,-706.75409248323,-597.972930731759,-678.326105809556,-575.504014067304,-608.270171804637,-699.717616230434,-672.641929238359,-569.733691549231,-644.11469194527,-536.520381309547,-594.286697301843,-617.451939197153,-647.842572472031,-576.062473931128,-633.246377476168
-572.015888691922,-601.827874743697,-585.660308556623,-602.970754019781,-604.543429885964,-552.389111369705,-586.140871261638,-754.233915953195,-599.201482850703,-603.411807881396,-646.927085995075,-605.371658862399,-617.215185728241,-663.133949888937,-653.526839976218,-661.645907430986,-624.354517270917,-680.597962213117,-695.016124572906,-695.860581024007,-736.398044363744,-526.514004755282,-677.169234820225,-732.924292535786,-514.145216556358,-637.035813732542,-449.243861756968,-380.144559210356,-687.610111460455,-449.116732616948,-716.260695043603,-667.776995552856,-936.941536199087,-744.866367637903,-764.130782954291,-833.184397845138,-976.853950910747,-812.516230794282,-830.097494802607,-991.035275984009,-909.765547565106,-767.623587305983,-1015.90428800818,-1126.9101511811,-733.898013718301,-532.106027980813,-602.514075392313,-544.040413528651,-584.317891578745,-613.827298875008,-537.578540518713,-602.62074502509,-526.648537134877,-549.203886176839,-628.956038807958,-595.484518924891,-522.544390641692,-567.761496241619,-501.484695778124,-537.758388609432,-557.265940153737,-577.557133432082,-531.665704940168,-575.348326273754
-531.649017422106,-564.250518866746,-554.0644674666,-570.769086443074,-565.524642376909,-525.198372506385,-548.70844465935,-716.522819913598,-570.419626800946,-571.919431476097,-608.489834301057,-581.220790907223,-590.190023856286,-632.468206152345,-639.582452622082,-630.682017194049,-621.535261154572,-660.053788945254,-674.927068762075,-652.633447805258,-709.70691634097,-487.917581981005,-622.814840064449,-728.509899564798,-460.465171583673,-598.484507563595,-451.973942231491,-367.765813774727,-606.320508788798,-433.659518784011,-626.198378436823,-611.887933434333,-853.53655342112,-661.206157821276,-691.080303730559,-687.765877164832,-866.08106859804,-649.686411836146,-755.699241758052,-784.465618460321,-844.741607420427,-573.458515531567,-855.013510756455,-928.708641642818,-581.45036402546,-449.952611887026,-506.408181520864,-471.886055966281,-500.740577170158,-519.484242284886,-474.363285162808,-526.679607514851,-478.260841203469,-488.436725314015,-558.495651812283,-516.662696905537,-479.941234164301,-498.423581131583,-471.575014796891,-490.287916355517,-503.36099137367,-508.745657761626,-495.608882003764,-523.865243852548
-476.67320023647,-516.471043664431,-509.235622911968,-523.596507507828,-516.401906682196,-477.121008644075,-497.013153379599,-660.594572502128,-518.885175809369,-519.443581980107,-553.884685687442,-526.129831367407,-542.817309402151,-579.379996830181,-593.800251115346,-575.833076983784,-567.665303296339,-621.743660688976,-620.581037678783,-577.717504362664,-653.850623779376,-431.488093391286,-552.754678429189,-661.448677887783,-401.383006642214,-533.540136335265,-432.109405061792,-330.449954719112,-530.775804098407,-402.952060071507,-529.992649555743,-553.645041976789,-759.904533303026,-574.533411832388,-632.202687014453,-558.654550454567,-726.716080703702,-460.142933347411,-688.789437227594,-572.750214687415,-734.708303096923,-402.455654840969,-691.996162913558,-664.532952588701,-440.610692147406,-406.042528593653,-445.975848356684,-431.021401890762,-441.155581320029,-455.763740651766,-437.263863118062,-470.958330510369,-443.037679211403,-445.421447769513,-507.012553389265,-459.576898993156,-454.711372034463,-460.62151971895,-451.964895649812,-461.900788064854,-469.658578385989,-461.289342717494,-471.891260380932,-490.80708906927
-446.669909427082,-488.462933574842,-479.206599109271,-492.512525372825,-487.405282159859,-448.670274063274,-461.688927293622,-614.436871441662,-481.190044221396,-480.373504030946,-522.523345165578,-483.750513798849,-508.10865024767,-542.626005455288,-557.940629991493,-534.076570217461,-517.18010456879,-596.780811254605,-583.083079890108,-530.71760840181,-607.308325749242,-408.647428602609,-508.072128616828,-597.599870576088,-374.921011099801,-492.341177414683,-470.507947986779,-300.616058359687,-481.691624179711,-415.986213050146,-479.670630308879,-535.353058072998,-725.575339037242,-548.303298134224,-647.045529971596,-489.37159568172,-630.317541224752,-363.922706351317,-686.493766832191,-461.742651834136,-652.593594821846,-331.88609380172,-622.366378393622,-494.485094605833,-389.046869688235,-439.232581421141,-462.963597471279,-454.702821381268,-449.559860164824,-463.772928228922,-454.148122670404,-475.693532700492,-450.079639619143,-450.443715857938,-508.325613465414,-463.478448251103,-463.409391884592,-474.888643705782,-455.665292924032,-465.645615593053,-473.058728692729,-464.559326032673,-471.717531636005,-493.0872947102
-460.455469826739,-501.203548611541,-486.949838801091,-503.04873773895,-498.777497429014,-465.166883322389,-466.986653369577,-614.074722401845,-489.725034985007,-485.449542601166,-535.50710538273,-489.449252818488,-518.913149710321,-549.975029448607,-564.84392521535,-535.063368622527,-511.23081339796,-610.987164233959,-598.07236039093,-542.458163080456,-603.236012893735,-437.98770329452,-522.219590909016,-613.10097710383,-404.057696277747,-524.808300658605,-589.015999350732,-344.295288534048,-492.262087395304,-470.418079928124,-495.051651000398,-596.047424364258,-759.637763002766,-571.60547774538,-699.223798904793,-506.8929994522,-632.655954806527,-388.965577893579,-712.139086840356,-465.967611785578,-665.98991606801,-366.788762200096,-677.555031929993,-489.080180120856,-449.311431568823,-531.838990396117,-545.811729692224,-532.502394528013,-522.622570747274,-533.788792695036,-512.749856686666,-536.756299072834,-502.497204749947,-501.287517962333,-559.888434418554,-523.986811580975,-504.011724495429,-527.209452466499,-484.620260622513,-504.159550350312,-511.947884628777,-514.504671224173,-498.724341044971,-527.388024808244
-483.776547708566,-522.63473732395,-510.348623202452,-525.831997753717,-517.74499359899,-494.76270433396,-490.372372216432,-636.002402710898,-519.035708308199,-507.412837662926,-550.740695134922,-517.718177076966,-549.503631650417,-564.615567719349,-587.397122115074,-553.161356020493,-517.899235425953,-638.945136694547,-624.343065994708,-566.366975388496,-607.965140641384,-470.607564605928,-552.277786382291,-650.091641331003,-425.724736020119,-577.834852217292,-680.026106422588,-416.138331569267,-509.582900846307,-482.8865833541,-480.29768020108,-661.233373059144,-770.182029716372,-583.683859883477,-697.762586523791,-538.588838682107,-655.513835236653,-411.03651735238,-692.901384448518,-483.265971384594,-700.239397550939,-401.700122320256,-735.314138311593,-522.788975196724,-507.859712327925,-598.130055180347,-601.09757152677,-584.238703208739,-571.150150680564,-577.470563252095,-553.518941297687,-573.553273566588,-546.079719253988,-538.320844014382,-591.681199109611,-560.476649263567,-537.177796053774,-558.770048665675,-512.462226584762,-538.579611954507,-541.489115063096,-547.103334364114,-526.17187194846,-548.251859161545
-461.911226622957,-490.041309876728,-493.696307298949,-497.806645403309,-481.227882800237,-478.663535359572,-474.45524074735,-599.49193261976,-506.152701138002,-483.257263119683,-504.31350053003,-508.157713619957,-532.718049991936,-517.287604534816,-567.623811638354,-517.96192402117,-478.867597718074,-611.174663140597,-578.871687631026,-524.425458068822,-539.706889857875,-426.204319329721,-505.974461690259,-577.468551335143,-345.248583248457,-526.079779199599,-580.470944584596,-426.733410278234,-398.701170342505,-377.514217022898,-301.370707406847,-576.782177575524,-665.534614970558,-505.679078300633,-591.467550967566,-452.573252536145,-557.035546437699,-321.482244148339,-571.925390600888,-388.86314366904,-594.686325584113,-332.844758049318,-618.884106749712,-421.542240003244,-424.002458836253,-542.741373450506,-523.486619202207,-519.974235566847,-498.053627768749,-496.640012078972,-505.353339750969,-499.218122056743,-506.551736459,-487.053885498601,-520.585514100956,-483.121990763397,-503.15998310041,-499.667155852574,-488.215730383178,-501.212475581004,-494.690110537781,-485.789519896359,-500.74094134319,-492.589093393978
-407.369307917954,-418.185218424233,-442.416402327512,-430.758958242453,-403.982160200451,-428.036249818598,-421.123309728841,-507.411873174945,-459.395157875857,-421.864527722701,-419.140420283661,-466.698821062158,-475.388000557802,-426.471831492917,-515.764324418196,-434.873279073474,-414.668024218564,-522.458254718303,-475.593990997385,-434.24647545889,-409.907155820131,-315.561114157795,-392.211774045445,-410.16054945477,-207.999981814998,-366.566824368565,-308.163641799776,-411.824781388863,-177.058616659434,-232.118646009044,-11.1009773111541,-355.854163591219,-480.959690983633,-358.645931825262,-426.358832967989,-286.0718757701,-354.742984694059,-167.186339888913,-382.007854329904,-204.898039430594,-364.668103051998,-191.031595371262,-360.787597170398,-210.509877422919,-239.354967391001,-404.05475570326,-359.66024066057,-383.808759512422,-354.50580393564,-342.139885899286,-398.11816483473,-363.409022618015,-412.459954821683,-380.843080405386,-390.383681315448,-343.355239211334,-420.721613693313,-381.91004896225,-423.984591126948,-412.520153929901,-396.685392196782,-369.854232820445,-433.99898070172,-389.702174279119
-461.19923078316,-463.604302324823,-497.637567542644,-477.750189207912,-443.217026199343,-484.307834516236,-471.491743557113,-548.375511967919,-524.731418231479,-471.26963097396,-452.646480303873,-538.904227895133,-535.254433235818,-457.700637356128,-583.552083016543,-486.677344121623,-477.360799443473,-534.316791947431,-503.876050785136,-474.147446048828,-419.817999264242,-327.896740365909,-413.352278774949,-393.354282339281,-260.157658224063,-346.169246805075,-187.819466752109,-548.299561942323,-127.886220815473,-308.082576099668,100.914466270382,-321.451422522928,-389.955451969969,-358.22815617103,-339.743564058026,-325.687163702006,-298.654464393905,-130.510904825857,-288.770186797589,-157.376654921485,-290.653337822876,-160.770957887155,-274.190786512204,-148.385407239261,-200.155402878846,-398.975592506628,-341.937660188039,-385.880174559977,-355.368169092299,-339.436466760214,-414.402336471188,-373.893177727998,-442.710078432505,-404.578102490598,-408.39727996717,-353.106990056704,-447.886813108759,-392.148771034157,-464.128603039356,-442.47965836191,-421.757121189217,-388.997132461898,-476.037559934268,-414.983014037427
-728.739654533948,-733.291088782694,-765.916286027028,-745.98509270051,-705.959557637486,-749.757237253565,-739.234944086831,-866.848101086668,-807.087217060706,-741.876068843086,-707.228224043519,-837.324295560473,-833.0775450774,-720.843647266381,-894.739330466179,-826.597975026142,-781.553515906914,-794.898319325043,-795.034710763662,-772.902492513848,-720.302456080427,-614.406632501085,-715.977923468459,-702.97137851723,-646.325644031309,-660.540770777255,-471.224624749163,-873.822629224652,-454.539044868242,-723.564975852098,-163.091227701988,-758.141591352337,-518.523981956467,-655.791844479363,-435.341760669177,-743.179298216076,-567.453017194314,-331.821255182927,-404.85560124941,-419.536244154549,-572.198706710545,-371.251674759931,-575.890559365509,-396.043006437597,-459.122985951877,-657.958812196419,-602.93582057103,-646.698352052921,-614.841208582373,-608.025440305858,-668.498743462043,-644.636618534649,-704.053340147879,-667.145005933927,-691.722728972442,-621.423053702442,-695.994050132414,-649.473008889797,-712.951472417634,-702.644816547838,-681.169612182918,-651.844318678174,-734.619322899887,-679.24562736666
-1056.87081870929,-1061.18967591061,-1093.26684376804,-1072.72676007902,-1027.11163053174,-1075.00025673594,-1074.835006958,-1270.38325946577,-1150.48663581051,-1079.68900616639,-1022.90950525372,-1200.70171134775,-1205.85257599796,-1050.075696435,-1287.11057698005,-1286.60397162918,-1180.78740273539,-1158.21212316336,-1164.58240591313,-1152.72758149122,-1117.27621502131,-1005.89617793347,-1098.61498469903,-1122.06860425745,-1113.54405654278,-1082.72042921508,-945.013502175046,-1123.8739833647,-928.906991396002,-1198.31222733716,-616.477699573871,-1431.61470062419,-770.111758939153,-1038.02477941078,-671.614780800936,-1267.72174443355,-972.346419329782,-658.208295721714,-626.059067106987,-855.029763271076,-1015.95292330021,-699.72585180138,-1068.26902670515,-769.955103447623,-843.791937281696,-987.888033529572,-947.450990850326,-977.580465698157,-944.10605333725,-947.691120153603,-984.425998243667,-984.238165473754,-1017.90329035246,-987.818390763596,-1041.14700485123,-955.319600809241,-1007.99800128642,-977.592019630125,-1018.82819426024,-1025.55552211996,-1003.0107020212,-977.299650182622,-1048.995263468,-1007.74912750503
-1174.62388071073,-1174.36503240594,-1213.3484111497,-1187.65019716542,-1139.76167576568,-1201.71377207188,-1204.79768182297,-1411.01747767936,-1285.93466812577,-1210.53140522735,-1137.85510649386,-1345.30844527619,-1357.71668772042,-1173.78121363436,-1446.9277100532,-1519.84465719526,-1376.04193432261,-1311.9275184702,-1311.48593812338,-1294.79160935381,-1269.90419555455,-1173.53880814649,-1226.21231338797,-1275.14897302866,-1269.81732045604,-1210.04335046536,-1205.25355686479,-1054.52648590189,-1173.53452162822,-1386.46292886677,-915.901862796546,-1797.85600346368,-937.747628792917,-1170.51963084257,-908.317368081972,-1481.86913848086,-1173.69593417106,-888.294405496305,-787.337702139782,-1167.82513326037,-1261.58306419158,-913.961898176397,-1375.00727202454,-973.956935894662,-1066.19221768655,-1100.11324713748,-1087.41237610103,-1096.25360819686,-1070.81311958472,-1075.39169252387,-1090.22251307889,-1107.94624105917,-1114.15628204437,-1096.01158136588,-1160.14494975081,-1079.46466452191,-1113.7402496405,-1097.70523717517,-1122.38713567507,-1135.90232023811,-1113.76568732461,-1092.25754115666,-1150.35585897897,-1121.8055433803
-1047.56800903228,-1047.25781642165,-1095.41961896324,-1064.28736529778,-1020.4901837943,-1096.86225324667,-1090.14589991553,-1234.26175227575,-1180.65364312488,-1096.15691215508,-1021.57068480952,-1241.74514731318,-1244.05764883769,-1055.43440990775,-1325.45358952243,-1426.77149624545,-1262.15588742491,-1195.56107016245,-1201.65234240176,-1156.60393574287,-1137.30613681141,-1044.02228631867,-1085.90135455669,-1132.18803280635,-1079.03731260329,-1013.24776363922,-1149.63284356159,-790.252591080633,-1172.44110423046,-1297.24411739827,-1000.02444953247,-1688.03729674482,-962.090335708413,-1053.64443343728,-1021.93486902401,-1341.29470113888,-1105.12733203007,-963.077526839649,-858.466304549013,-1237.363236108,-1209.03609359482,-951.064630804177,-1365.43660086818,-951.509301095238,-1067.33445724116,-985.038346285795,-1001.85778555846,-987.583994383408,-977.337803948246,-976.326358156563,-971.719165572903,-996.826985431851,-978.879818147809,-976.593265067786,-1031.38328394926,-975.547572391126,-987.03938988715,-987.500492933583,-995.515253524068,-1005.85767814275,-990.433344894286,-978.862176473923,-1016.11850651577,-997.21933392816
-894.834636990237,-897.360702243486,-948.468095023147,-915.488027374168,-877.209029590022,-961.638636572515,-942.124055304513,-1012.59277589276,-1044.5903470027,-944.856322885285,-875.98733464811,-1110.13373805259,-1087.58071039124,-894.648363320018,-1168.50698659724,-1231.56184464763,-1021.57097532604,-1057.10469756142,-1049.47785282247,-995.417201069588,-987.131383116786,-853.112447436447,-967.573358464292,-984.825935414653,-867.595797664764,-819.070901151979,-992.004406716494,-650.825855094683,-1163.43762667455,-1171.33089518265,-1078.76071878222,-1393.58076863298,-956.668361236598,-972.528920737869,-986.403961708003,-1136.738726101,-960.288542513834,-1005.34764226737,-896.106127771575,-1173.75468273228,-1041.73418691769,-928.187098969877,-1208.56430400553,-869.735364831797,-1009.78138844465,-860.054229482794,-892.638423881471,-863.06482502604,-860.516818397556,-853.992687707444,-841.580183324219,-865.754719305437,-833.104455560732,-840.962737969381,-883.027774592028,-848.594157463355,-847.867947711547,-857.696084309832,-849.135698370566,-857.386022999777,-848.537041455525,-847.709171567027,-867.827310422298,-853.637425710704
-863.347707246896,-860.631252509285,-908.960042277399,-875.12961644807,-841.537581617721,-926.758782666141,-899.52587788381,-940.000805109401,-1002.88679179122,-891.177598371816,-837.217909404376,-1067.34974931741,-1025.39901317548,-836.063636110636,-1104.60577622245,-1118.15212858327,-851.022609236613,-1049.67477957885,-991.915259648472,-961.622340772742,-987.65659153409,-802.880517952874,-1013.99948209353,-971.168661645993,-873.628567201343,-808.304939261958,-930.627315865715,-747.337654111573,-1169.21443484797,-1111.95670231058,-1254.63667409367,-1119.47493673106,-989.119331212324,-1067.72358851884,-891.103414680641,-1015.31060628524,-855.901362872724,-1091.18915781713,-920.301887168883,-1098.87390406086,-908.324105087788,-938.280013759743,-1085.77002010689,-840.879536707746,-1010.44638839033,-835.948965531347,-869.649498376929,-836.427184202355,-833.571203423517,-823.721967573386,-817.725630015801,-838.164729022964,-810.925679288182,-815.527784361071,-847.768690016549,-820.870733929929,-829.223518883363,-834.18899533167,-823.282153297596,-830.460043247921,-821.023848880601,-822.685079224127,-843.009382017856,-826.92760327699
-867.143426023376,-854.161250556016,-900.037459218923,-863.135096668586,-838.146251690762,-912.331492708234,-881.546609607985,-917.969866389701,-962.933005111158,-860.691557817179,-836.189847419342,-1005.05343978412,-959.602492454978,-826.273156894457,-990.965108717538,-1008.92349597001,-740.348470323885,-1026.9778471228,-954.195992124162,-925.158285988974,-1010.21186041818,-856.717930342773,-1043.27097423523,-927.136080823703,-996.811099850954,-832.941992670696,-941.851158416647,-907.912764108084,-1006.32258938126,-1031.71675155273,-1362.26555603281,-775.199010271412,-985.204777388217,-1169.53578789406,-840.782717030417,-835.11351358833,-738.30348185781,-1145.26180744071,-903.688933192818,-1001.40539428161,-769.962286494092,-958.237235699838,-977.407463380366,-801.33014183191,-1019.60940998227,-824.808794437835,-851.192199724399,-826.347512353556,-826.295104563891,-814.519178091297,-815.260369726476,-833.502687632518,-824.305229436591,-821.502452283127,-840.791217399447,-818.745143409042,-840.390518933662,-838.293964355627,-836.927757244689,-836.093793004788,-825.610573045692,-823.465575051592,-852.326761755949,-833.742112570068
-782.56779615403,-771.349269638491,-811.375877134304,-772.684164357944,-763.155002913713,-814.156993532339,-782.15645627794,-795.850144182912,-829.756302911624,-757.528121770773,-767.206522015683,-830.902553066669,-789.99313215918,-761.189601247015,-735.03051084451,-796.371427147592,-595.962997379597,-852.33491959249,-832.768396571121,-771.84213968246,-888.235470431469,-888.444606795564,-875.808467620844,-729.867194071735,-1023.12037610286,-729.994898945541,-897.283509346864,-928.266110621436,-655.077725565367,-878.381311341623,-1179.34798309036,-332.068531889723,-890.484029212034,-1068.78979775633,-824.803396813086,-506.907131102353,-579.44695226351,-1086.63096423963,-834.382043251668,-818.469685876599,-564.761117463898,-941.817293810261,-773.264350820413,-673.817631170561,-954.601886699508,-739.673056535495,-754.992479038199,-747.380646746498,-752.929294487671,-738.464666046146,-739.139221917072,-757.558011762606,-755.804543561411,-755.158487655369,-758.543518561138,-747.095873381436,-770.60133726609,-768.372647500733,-768.963215254091,-761.831864467766,-755.89963154167,-750.582443258366,-777.833456962405,-764.179997766897
-646.65686159089,-651.569234075064,-674.867487315266,-640.957058592983,-653.780313718769,-676.579340162438,-646.53963045514,-623.983986229059,-667.404594502504,-625.524823747241,-662.742361173777,-631.015603926587,-595.66469796326,-660.235918569196,-479.42415753603,-577.158395020915,-437.43097637554,-641.117277437357,-681.949695908443,-594.942732517783,-682.388759209677,-848.782484708485,-607.825536326445,-526.510285182989,-903.907094827212,-556.341222051243,-782.953630707578,-772.990754679974,-321.543366141205,-723.706804543456,-734.718865181596,-11.3651954801846,-789.395364167437,-818.629161832518,-759.067663983362,-199.843334870927,-474.121234470344,-965.918133188376,-753.380616817141,-579.816296524406,-366.087836682489,-906.461297292026,-506.385897640717,-535.225500026005,-852.479139762173,-633.584708115679,-639.974656671742,-644.604011863421,-650.700090502145,-635.144751139222,-631.459034408244,-652.817778380279,-640.601826103462,-648.517644489656,-644.788957212344,-642.512325602861,-659.325353266393,-659.373016436309,-647.792578417114,-649.066744208121,-648.163619897149,-645.281894166578,-654.589011051343,-654.115417280161
-574.334910958504,-593.969280810181,-593.770239435696,-570.826261776655,-608.380168788005,-603.303418892581,-578.893503004946,-543.544247940601,-581.829904994762,-565.658633141101,-624.862831464713,-526.4899776051,-499.897638131333,-622.665786294186,-374.919871375776,-497.145107940743,-348.066623135277,-546.748642933615,-628.559651883515,-497.772482712008,-552.735689488443,-752.84827417921,-431.903460588588,-502.391528290956,-726.269503852181,-451.928810650085,-689.913639527866,-544.19141248853,-190.563839482357,-639.167130997298,-348.265095569158,7.50012061671821,-795.393919429929,-655.012970863486,-647.953411320313,-115.305686009478,-518.658052387895,-900.054019640213,-721.238184614521,-407.075690753591,-299.552592470476,-902.403918907278,-339.637515101942,-533.642556479116,-820.651005536131,-602.976025862768,-608.475743316868,-609.884798396901,-613.794026843865,-604.370751248868,-586.792971438422,-615.977718946134,-585.43512257723,-598.82906791672,-601.673829061343,-605.418632788137,-606.356173989907,-611.106755905158,-581.274416622901,-595.948917229697,-598.633943028503,-607.919022275627,-587.143199909535,-603.872119155582
-572.874076437662,-596.980482436995,-578.55006290773,-567.829595567637,-620.281479876215,-593.164759551153,-574.014996240359,-549.117925500814,-564.880449178773,-574.390751576874,-649.351180095829,-501.809791495146,-485.014381098528,-652.952714138759,-378.116512994065,-512.324273905749,-318.042285626212,-530.853222698746,-659.859792542823,-435.20203509173,-504.203739107847,-620.458846611502,-361.849870867025,-589.414037402352,-545.978185887778,-435.307225056513,-636.523632028772,-335.31037611036,-246.404099032791,-604.433006450841,-246.166412026958,-173.769091614848,-903.67229798276,-648.807977119407,-575.564710335896,-212.58818795763,-677.213656663456,-911.988101523982,-734.466773927553,-345.403317306576,-362.067963568224,-927.637308025648,-311.655822329354,-665.314958780665,-858.997918962718,-622.974687665858,-636.246871386503,-628.764519432045,-636.311515540084,-636.636965927522,-599.147680289611,-635.091344919514,-591.557517394627,-607.827225987303,-613.997153517369,-630.705272862132,-608.20944917626,-623.870690946411,-578.012784610879,-594.438272630196,-604.987952138745,-627.45637668179,-579.111374343311,-610.648087679851
-537.368618870551,-561.122884757375,-536.983111068055,-534.890923775533,-585.764123625084,-552.97885638096,-530.740223418242,-504.870706487729,-517.282010180929,-543.051165889933,-622.891996785301,-446.91040887435,-430.837702992656,-635.018850602449,-341.216817497563,-458.786831566871,-244.100976682911,-459.873259868517,-635.178959418375,-318.799909162975,-414.747874699345,-459.453065872601,-280.917025828242,-577.799541691935,-363.770546899031,-413.629898852852,-552.425775089676,-179.037880667078,-309.645829782357,-545.856415635401,-280.980186345532,-312.723855325116,-1006.03385015537,-629.551980111059,-534.82382322416,-270.612060801834,-797.360071809483,-915.670041642391,-706.082519326889,-279.39352347865,-414.259891159931,-916.304846297565,-263.53603799932,-745.091267971402,-833.797137147095,-568.12667059639,-588.736765340646,-583.855142182171,-597.059764027899,-601.783624812607,-563.475035643786,-589.732132573499,-555.246842543204,-568.576554717745,-560.23411993041,-596.63728425149,-565.590881217343,-587.997809216037,-539.992344747002,-548.818418281181,-566.745775054799,-586.899195982137,-534.715363416075,-570.569653417313
-411.325029976991,-436.26612665231,-412.449580856881,-413.305051016157,-458.529483831692,-433.72670114718,-400.085162046223,-354.727381211564,-380.759527323285,-412.117041818092,-492.663248425492,-303.857891034721,-282.093114870507,-506.499733438831,-199.622339739007,-283.146867490102,-75.8252201329065,-295.52335213585,-498.236864130638,-151.972901490632,-246.740930890251,-288.971583321742,-163.880989055601,-427.415188861058,-220.162044098485,-345.810749592864,-436.704397059856,-120.959910017267,-269.272880036841,-440.800139254447,-236.272930938363,-296.212444149614,-1027.88355601653,-505.08008518676,-450.921809925477,-195.728233442914,-768.068161358866,-881.760179317175,-595.487044086543,-131.362305447538,-378.62241474797,-844.910474904241,-111.206074177644,-666.082180457688,-683.152532785046,-413.543057273646,-431.586693268664,-439.171781574013,-447.410781792072,-449.561171582954,-435.948205529765,-438.930894283452,-431.592996847188,-432.454715980173,-403.950642871899,-456.76470975431,-440.119392820217,-455.335721929859,-420.743719027941,-423.684348081608,-438.539200682639,-446.008662460125,-409.491197751128,-439.959465897185
-257.376919485778,-282.641389627105,-251.556916513996,-253.066304287162,-305.067225755466,-271.6807228672,-234.417098920559,-180.616715517662,-195.18002596929,-240.003912824209,-332.599572530876,-105.962634780347,-93.3755897187262,-340.899218095512,-5.93544116311729,-69.5103316759227,113.371044221293,-107.634085686437,-322.933475186297,-10.3381192167613,-90.5375374543451,-140.586318466528,-97.4031355166191,-274.352366397663,-180.962416227834,-299.835379292149,-357.756831321624,-205.925272109882,-226.604181761144,-358.321512462402,-154.637190702734,-223.957662376502,-994.381085044204,-410.674984864291,-365.695254236458,-125.432040566206,-642.73865117541,-876.582124625051,-502.620637718513,-13.9483488025194,-338.0981784727,-779.497476154991,2.12526723074808,-559.236845548339,-527.325250523073,-291.995437398723,-302.003182031602,-312.789551579192,-308.829060972323,-306.348719806884,-308.674783461053,-301.142989469849,-301.201257268503,-298.013831965906,-261.4561778666,-324.407222810824,-312.647463187997,-322.527570840402,-290.089742948619,-292.773890264188,-303.847258132101,-308.621624966714,-270.465351335869,-303.146775879869
-138.454249806738,-161.40099447999,-111.543840041726,-118.30735951082,-186.630853064566,-111.007572679978,-86.8667689922157,-46.7902612791436,-20.8218829280248,-89.9850230781956,-209.274284408088,98.3736235190275,82.0895644048438,-203.360474934188,193.824060739685,117.03066461714,231.139711247247,64.8650017243864,-159.386169048429,80.8759063101226,-5.67821653475764,-10.9930934945915,-95.8223716417025,-184.453272566089,-201.318385891492,-313.660145257339,-287.113476562271,-336.4344990479,-296.714546185369,-353.895790080504,-159.282400169349,-220.888089273273,-938.068512019322,-436.83854243454,-374.476965316505,-171.032467068135,-542.543366127825,-877.682760035935,-515.098084494688,-27.1267946359528,-366.24593733313,-748.548085500522,-33.3702291768338,-559.014797363234,-468.755265391886,-278.565878155569,-285.597019818765,-284.712029915907,-276.333404372433,-272.670793732529,-258.551393333852,-261.215186871618,-234.74772395554,-247.581523369929,-213.873405882064,-284.393744362095,-245.491399648339,-268.978565686529,-208.632075202634,-218.305609484123,-237.23427208551,-251.613028778743,-180.013688530625,-231.040860712815
-24.8953344485011,-49.6160068953252,20.3746678354787,6.9887546360189,-72.1705764365761,42.9741502481453,56.5550723281192,87.8131118039573,141.793954669496,59.0203252315097,-82.6314313626917,291.152389173874,259.328138225063,-50.8555062103191,421.855112016726,291.9448235509,287.453986104426,273.254180210765,10.686435737633,189.709485040978,66.6063447856688,144.709136514765,-52.2938544038063,-81.1473087173495,-126.440802880599,-306.10006256013,-107.578991698003,-301.268499489815,-357.530067447219,-343.428756632876,-196.802599862951,-225.628541705282,-816.471357012227,-439.731165297392,-401.263490157116,-221.13035318879,-461.166584373306,-751.333343684301,-528.269859216681,-58.3856789365355,-377.620539948641,-670.887077256915,-81.0430679667325,-567.693348089308,-426.77467817061,-258.793638927202,-267.758120938688,-258.226140390347,-253.42943174194,-252.550716413358,-214.888547304227,-225.10196781497,-177.624243894128,-202.668032021658,-170.924326994837,-248.427130709252,-180.518507980239,-220.734737780574,-131.353938179012,-152.05740147683,-178.287215029015,-199.473288753412,-100.83148016728,-164.025187251114
127.071677178986,98.3433917829384,173.725862863267,165.654545709779,86.4049096579142,196.307505118168,220.251500584273,268.735291331223,316.717783070013,240.166391948536,100.571577968559,464.438967105786,453.343463056977,158.590221438001,667.497481086863,469.502374171261,361.998635064446,541.483536995237,182.182988945552,367.499253634884,191.788745557294,349.321416366593,90.5694891168981,96.7430231550258,119.795827791523,-194.078529769238,203.867286161365,-30.3877895886113,-168.022513129934,-163.935285922105,-119.132992075731,-90.6128588092197,-587.669177665406,-254.088001100781,-259.572554321796,-119.610945493411,-290.371125979197,-473.640808537356,-375.662677902608,51.5943426788322,-248.359275444267,-490.002030560209,31.8972087378518,-433.443398326799,-297.294175646415,-111.094458876236,-119.329370094602,-116.325750129663,-112.844137569691,-113.396072268227,-78.0383219442589,-78.0580726752395,-44.4988413967945,-59.5343384035921,-21.7920482059212,-104.321342657065,-41.8959735176301,-78.2499334512374,2.56926827581052,-18.9049330729024,-37.1129030699095,-54.9412727397023,28.7855429135981,-20.2974959209412
277.39694694075,256.314298530442,314.838460615755,324.31521277735,252.954706227927,324.040536287882,368.843269713532,447.187374587425,470.492748000773,405.138050248731,289.095509259412,593.568316425786,608.855634482867,358.963945777186,819.194590398138,615.056566589166,430.678177465895,793.604928013823,312.520452432897,559.730203403556,333.168614880821,559.874919338765,256.01239812101,287.228133608622,434.996109543818,-3.15943955500139,524.491977841816,312.628438174938,280.737165121032,201.515434707037,110.367292213564,142.124099237857,-308.873416705405,60.9557434126605,66.2320212026365,81.3467016172472,-41.4749917625685,-171.817293136978,-88.020424113988,263.303570785972,-10.7794513528812,-267.626436154557,252.350416981647,-203.840987660751,-127.681929383463,106.335007950289,103.289907938296,93.526185338676,100.508290905879,102.137554115645,114.357767240949,130.846415815061,132.938688853084,134.628370113339,184.892290664009,101.404696479786,132.453236648275,116.677013469597,156.527385503064,151.400577800901,149.239428115616,138.930792090916,181.7606428562,160.950989795329
365.388872318724,360.771848115158,394.272121958437,417.873827398638,360.350543959223,396.319751052796,454.390880600757,554.590108066859,547.223305464322,491.02710689602,401.576673532494,659.573216233613,671.246506052017,473.193356088504,814.307483347424,722.792911106069,350.136389965574,966.892274556809,413.82490903243,693.886388326292,441.968002230446,723.231507991537,373.566300655674,404.890015397295,685.039442258494,217.688449057454,746.207076172807,578.733298415621,713.210961392645,571.411964845538,403.239240102605,288.270203128739,-67.8421581998408,332.911207300189,400.009520580585,224.873983939668,148.605566166477,85.6363901856446,166.202843820089,427.618753101721,200.649916815906,-53.2148793143219,429.688045244914,3.05052674399875,2.80695244843326,271.092677781576,277.601227682719,255.499017367144,268.813575689868,272.725371969665,263.156249661207,292.2275123144,264.553909940442,274.297926501208,338.855066258399,259.973853742652,257.940301838636,264.270817096281,261.356842754956,279.523257064706,285.975932952781,281.883414551923,290.125117383149,294.032053141815
419.401551169088,421.264435243761,441.144157274201,469.840569439627,424.762645850333,443.411076552314,503.563248187975,618.213376954593,572.226751570928,533.82067988393,463.620727582681,695.625972014933,682.725009323504,540.6589973088,768.052287736959,833.859941920765,163.267607088881,1061.46071269765,555.007421801524,769.929699108555,548.672873037851,837.806278824461,467.708803243966,458.165759296098,838.724472282416,463.780432744718,878.976059769903,792.538222072533,884.222532184745,782.981989578548,646.748117792915,323.246777558916,146.442778063147,510.971285201859,619.477291515904,309.182847402135,243.483406449797,353.716992109131,341.992763160442,527.395646191602,347.725351740129,203.724965012717,563.008219591211,209.922579410902,138.160948705553,381.303045555627,407.548022504816,365.054216314082,388.347723945738,394.923853942346,365.31029499807,410.058126050175,351.715456284469,364.743552303543,444.486952390143,374.31467979239,341.331166434239,367.833736400149,330.591064631782,369.295966658209,375.765326693092,378.377583819978,362.235125266895,386.027757136653
486.013148762476,487.978839167767,499.356894644127,535.479603571934,496.778321580363,500.497586429307,556.856158936121,688.670004612649,596.309019064824,587.277513215805,539.09614962224,726.81274104282,688.879135269405,622.778644588856,771.341393477761,889.315993462513,141.61528329636,1021.39535397832,718.350979014603,773.72410814484,649.768458272996,891.476824392917,541.331985590854,477.978843766046,875.559601198096,661.441132182654,921.232750996348,942.076203541385,782.42232475271,807.383317231131,732.172703867443,369.636658933021,401.524304150924,630.286133976723,726.145074669283,420.698340500375,316.854286155101,644.042446463565,500.731287229209,638.220794408086,477.227325293062,504.674192698208,718.022260451502,455.994201307908,338.938297913521,484.047732152619,542.601038807864,468.764836461604,504.483145306032,519.294545274918,457.970826453556,527.910164404471,436.732657580358,454.9644278053,551.870092677915,491.00748294903,426.606401962593,473.59175820323,402.751506624369,454.629103881905,465.560552668617,479.497159372629,437.110691729988,478.537278779261
524.608583387656,540.524574085833,530.868488914947,577.814855610326,551.861665356501,523.037422997188,573.139458768742,726.843121493802,580.469813345991,600.63825420892,598.471769942039,688.983834436268,625.42955483979,675.237688782043,692.27215664688,751.399150741256,319.20442026324,780.356272563236,792.859268566632,641.176508577326,667.510937612282,824.332415740794,539.905862973313,453.757905588745,750.177084810095,680.327476457195,803.798393104641,877.912276881668,544.912061810846,678.108123049166,622.036222634393,441.887864540261,698.30878645731,682.314720181282,729.275283023258,535.40252797556,371.526466924127,872.280050488871,625.424631165833,748.660604233238,586.868838786936,739.733781669624,853.970685237737,662.093252433583,555.38796581009,549.352472602129,643.842899396772,541.854034547157,587.0779907929,614.973954888106,512.759947419185,612.106761280467,490.86459546194,517.313052268724,631.077616965107,579.031974708519,485.313669068607,552.906813036922,450.057514560461,505.062635555985,530.872780353319,559.525890075262,487.433831544803,544.307364571929
484.245862874515,522.536582324184,487.306930122196,532.534423307973,530.74444010391,463.352947114375,500.677290952418,676.282171976009,469.147887064598,501.916727895221,573.325635359595,532.732569185452,429.740635137261,619.685850637162,414.982213928342,455.861380380282,401.186567053462,445.451922348157,756.381199589671,389.610150243117,601.617049705151,625.5976815562,476.162145071725,409.517496372303,514.655515017543,526.061890788934,555.777346627098,568.395550000229,267.559107482154,470.365258086137,422.51381667116,439.953714564567,980.93885284212,659.601148959128,631.350333348601,584.528732865821,362.19596495682,1000.2253636974,656.709188454443,788.582444507219,641.132744066869,859.767730798952,902.075542295449,770.866843682488,717.171577072436,540.947756213743,660.557371060636,545.896596346249,596.121563532657,633.682166756065,498.778397012777,620.252731941904,477.833363797026,513.48098543446,638.401009966902,594.104784713653,474.34558683187,560.504563927462,438.189186460603,490.333877411111,529.930405370554,568.216075613836,474.544661198025,541.448428052685
393.879904860482,438.848213718076,393.986948884365,421.369210991961,433.825929809656,360.887392872901,370.980412575911,558.497608927012,311.367857776905,321.88012580976,458.783206931074,352.280084210394,183.927382743009,449.080664901374,136.789085754657,230.973814921185,272.164736710766,225.238730585378,708.466950366717,151.902298385389,543.727404310829,365.244122296313,427.728004077882,417.391059442883,277.915831355031,333.824411093033,323.343053894692,199.702609476589,-77.1525650775428,288.803923627673,253.167286344876,321.84096126643,1209.7894544503,604.028850455496,461.891060559358,568.775988437595,345.040242894688,1078.80432926867,612.78328155072,738.758385005342,640.403579253868,933.443338704074,871.829114394381,822.972435278807,818.575864731091,487.37859532753,612.624835993706,496.922998605798,552.341806887727,591.774513366215,444.347267733804,570.075801513243,424.256997128954,465.492129466051,590.933053288396,550.798532709092,414.165135290036,511.69125505154,388.396199356671,435.700491235131,475.883064504383,513.30912273623,417.98232688219,482.742579827809
312.44160857588,345.741466338118,309.212908801559,315.384109082697,321.505377557748,285.212475777874,258.530542780664,436.658912654751,210.336758478016,164.388744305653,312.856870005597,283.388443796819,45.6365161203007,244.258007601231,153.00977463685,226.419102775981,143.957753656751,222.510733392044,726.158172714478,48.7888082546188,544.361107672605,113.645436784289,420.669926023752,505.643889133466,78.9413682309151,183.839529914113,182.566045893862,-64.7007971513473,-454.16151379278,177.204647203807,124.520418578865,115.534101248844,1356.62343612852,543.012327574508,238.394698851204,499.141819758353,451.216731806585,1144.41732973984,548.22109670625,623.455676037815,596.35723870546,1002.55032270777,800.279164238832,831.393920041009,863.075032447435,420.529608847647,535.891788248245,425.141690391524,485.877512381845,523.77745744953,383.912659364713,497.2142168227,365.028337541223,404.159750113736,519.725473352845,479.160977932932,348.979517762012,442.709892112748,332.636560251092,371.64363971527,403.344098461724,432.772806776071,354.483935291938,408.923777859029
268.836975479045,292.739548139888,271.415463552833,262.260331670386,258.789911207012,263.99323217873,212.97887838088,364.536775384447,209.140805152482,108.918129124065,219.480397407028,329.544703845988,75.8526124742455,133.621923122975,424.920584306,363.5559357047,164.541304926287,372.754773944513,794.939035750015,76.7992101358583,578.105930651811,-75.1486168699636,420.18465555126,606.805306139807,-63.1442377655992,54.5871086372933,92.2379962479221,-204.546773482584,-623.272109368072,110.933435730093,32.8196864645732,-175.537665907313,1379.93804230907,468.742567975092,-6.15554263483805,376.770931260882,725.456396781902,1190.07104201808,486.525514600694,489.140355398197,504.72551882548,1032.90100800252,713.423403183555,750.754507732363,841.963179539756,354.422018900349,455.296561242026,359.332726097183,415.102703724899,451.0170756855,332.766246794559,429.52484174524,316.057758438022,346.468096914812,448.282190714899,405.027035252355,305.855118338572,379.908497815041,290.325849308732,319.630159335115,344.759271848643,364.846210891229,308.835632611504,357.134175123826
280.527779910545,308.789330893989,300.527155990721,284.846727421489,277.748268374398,300.237158892323,248.860835670396,379.749250316876,282.266811900664,162.09836424239,236.317676014699,397.972599548345,200.199330938442,177.979165781076,641.290035153734,461.47665813194,264.441558335579,495.401986813487,836.885652036258,136.488192938021,581.60074796492,-135.407729380615,394.538934838963,624.639904742374,-96.1080002736855,-62.236634945669,35.4653491776917,-203.968784798449,-420.802742149448,106.317366693725,52.7494907159767,-463.490301938381,1257.06181942155,413.571117175031,-132.205040386328,275.737758400662,1038.61014880147,1219.12664054218,456.158852123782,414.57065450374,394.747387146515,1016.49756575488,661.927590006787,600.301878215842,791.706535584902,334.284154922315,422.686646337997,349.973850084416,386.084583234734,416.454406816076,325.777844068544,409.314326742704,314.356270881775,332.935340608939,426.014919792882,379.241982610756,315.343603178132,366.981193745226,299.340066006194,323.893750415038,342.181998591145,357.180260591238,317.179164103372,362.667566624822
349.171895200716,386.338557366046,384.611142239684,368.235927940928,356.903691524395,378.60604633089,335.670776266792,467.549834129721,377.867817899543,263.134407795456,331.671354835917,435.733089549067,310.855044707495,295.595091873713,645.485611678212,441.62029250941,355.961356157375,461.953737717938,777.96759874065,176.84111724532,520.858202408759,-53.6776086079805,343.608354499229,571.251872073654,-31.5277815129699,-90.3658791317799,76.451118524931,-45.6210650549227,-7.67237754628115,196.437263644843,268.486202491176,-443.320449691376,1020.45635189643,453.339089044654,-31.4437743329693,304.183133825792,1178.08203175116,1247.07570136543,497.959488141185,444.818525973459,345.063815681054,1004.59714333306,691.748326154219,489.633788531748,777.934606862537,396.060309157982,471.849959945915,419.402257507633,434.569142645054,455.520000595422,387.728167037131,459.047890191864,383.611990151585,390.485171987863,482.429137622593,431.242299722163,387.745547451839,429.243497520758,376.163608744891,401.632553319567,408.41123056413,422.73387599986,391.104042158577,431.013195549651
421.816827336682,463.798717027067,458.367116847455,444.299582250856,432.325361106481,441.506327854992,402.737619790914,545.486228666252,435.228451311889,331.436552014431,411.526468703269,435.874118160388,351.58345991848,364.896825237356,531.576509781068,376.729283824387,401.397304316746,347.934394774121,653.732729475291,236.625616818988,473.400677822547,81.0904281148474,311.26241457621,581.650953927409,40.2155561672377,49.3515735377075,249.341768780369,186.190407308139,387.613778156658,323.876610548109,658.854181796064,42.777481827311,804.033293988564,586.673537352853,174.270954855447,452.291097738518,1071.63353323909,1285.01742098117,600.187306365038,532.474526857711,396.226310185081,1042.0766170516,767.88175041307,503.683970407658,819.204084329997,490.777353900909,551.359097415535,511.755736290501,516.178880005932,528.481543924861,471.385318066247,529.518111826863,469.253807870052,471.142923330316,560.713018132654,509.85785149082,467.099813421585,513.826830805658,460.177627573869,487.365893523623,489.082994894555,502.365246784927,471.477669351436,508.449286180323
454.553648588559,500.57887751878,479.368726724645,473.916039537341,474.519755445982,451.806303170924,424.055588670541,568.245825152516,438.894031987748,351.595949784539,440.660160553436,407.286922443477,348.010919166236,374.180644900351,428.445770063181,376.12380830418,354.140136255368,322.528153506635,618.021064982324,335.399426561317,562.37702132146,178.081886968415,376.944925530406,748.516048905619,109.159502496932,344.306932764969,492.41938769383,432.70816339191,735.537425845455,439.64078975157,1087.95898645725,659.132405957233,840.628452843088,711.652144167003,315.860579375381,602.622915411726,901.020528183725,1340.63468940448,700.652223591613,618.811145795161,501.876993381166,1152.60383571474,809.121478472342,648.391322562967,899.344027110467,555.18613826289,604.718181330156,574.809044159073,571.499639851649,579.63980750605,525.392654193539,573.410792570088,516.455647103415,522.887995060726,602.126016012447,560.957747085375,508.238049305135,565.392282248653,502.39452808293,529.497793163776,536.197269238624,551.806488790954,511.813613312457,551.865648435136
502.802338245526,553.958413967414,516.466897247861,520.447790634728,537.819970620389,473.580152071309,472.146988685653,611.323084716828,467.543249236341,406.364965858767,492.379448790607,412.722885616752,395.021269721356,425.585522925027,426.029846751146,494.732524309405,241.146727570609,460.370929093412,761.950624806671,453.754707617001,800.740484743389,232.039829736186,577.401790917304,1016.62537733649,266.881769220451,713.482746396601,698.066218293942,726.146062527243,1049.8877036315,580.735458196048,1383.82509180874,1032.82821537325,1218.17357592706,769.125900198229,411.425657754962,712.626207037013,924.274260798173,1394.54856631549,754.142996051148,707.508255575477,605.264830579721,1346.44552817867,793.600944078671,894.506019518376,1020.71679620921,620.647775149595,666.996136458167,644.836548708214,630.498164772463,638.01994014655,590.075462195238,634.478182908972,574.050567869345,584.489102430994,653.689604557461,619.867458477093,566.661982341622,625.564698275182,561.117760250849,586.210752396125,595.442539666578,617.2609716291,566.227444466639,607.697829398573
629.474065316061,681.519830829296,643.562385991272,647.913464536275,668.589823915094,583.639159696497,606.924552775607,747.32795660128,593.315385685955,559.879627562335,629.743119702869,519.549726562103,550.084985551081,590.865345299609,568.099292098817,706.797866155887,228.153906216897,711.065034024215,958.602220575537,598.043464189899,1055.74726656235,268.926933758534,820.199481967131,1242.3722126537,491.315069879491,1049.42060246553,770.033762961674,945.445944327862,1233.93078117711,718.198148961397,1390.53708571974,1205.22525748551,1670.60174248474,800.071478008379,549.269787184399,832.414557056689,1196.22721549387,1395.14886706311,750.884297527341,797.175986522596,718.457526935857,1551.7563366949,758.904811360549,1186.20299026294,1163.72344268173,737.100818220466,774.366416386805,760.675084015027,742.026830116347,747.253836738273,711.603545945973,754.809022505365,698.988669323004,703.93321258879,771.693299712286,729.977715339454,694.732994501802,743.823288575241,689.883854393919,712.327771537304,719.265201443883,737.332284087802,690.00086097589,724.026013132838
749.479488382912,796.420702305154,772.11681835012,772.9956918367,784.013539803276,711.789459582482,740.63294558292,874.662364563948,734.95222141365,721.904730754489,768.177573052493,656.723703131455,720.714652178291,780.646850185552,748.770748602232,889.614616819431,419.650074876067,903.961940485075,986.479727677061,736.163094311344,1131.10931894747,256.323070958279,919.483540599978,1283.30431334264,570.694272580324,1230.54090757701,652.602857854598,813.000187257843,1237.06147904668,712.912443087239,1045.39304526463,1333.46593598543,1829.78296159088,799.284806460496,741.855884350767,927.033817519326,1501.40761187219,1284.02398023208,686.642630781068,793.773940288346,875.534109869295,1580.26409519409,692.750275576586,1398.40955863783,1221.33192334008,818.884679984939,832.471790639464,835.798451069693,823.317673395728,822.161820225526,799.01222559495,837.29147662746,798.871803821181,794.876397633542,860.264138584577,806.848602184008,794.594357226085,828.913454327577,788.917613788369,809.070143091084,815.088228316044,817.75853352548,794.200524275431,812.055014709083
706.630785947227,747.265050295761,737.979167669923,739.493134297563,742.335168473732,700.715636026204,722.007231672677,814.211474828448,733.903043544762,737.21473998747,757.617414845237,659.462689160265,756.11877380531,828.996820321017,765.024828120523,923.474930952599,668.732714144332,844.532394903433,808.304039969891,748.977383615799,946.819497340213,137.91178236973,780.882360870433,1113.42711338208,392.905650447785,1218.55915943335,376.164478634422,368.481014685749,1159.36696152596,519.977444156976,510.373153946716,1419.70788131993,1586.67971757225,663.813089532007,946.759240510471,889.124150780299,1559.65107884589,1025.07245258979,570.47730709455,586.19760256778,1014.29223915622,1295.24301559985,527.80465011661,1385.07507918706,1081.21156502034,713.712268650835,709.376305742463,735.0563800378,723.968262950243,715.778241525364,706.929382431002,732.973458654051,713.968302914801,708.571479055571,755.689816036,708.284435488658,715.54654910311,731.203016177305,708.803022645968,722.21921094398,728.374510921909,720.253722155135,726.723388712057,727.453583318685
516.020520540932,551.466541570361,553.925216390445,558.871274387346,560.870413259485,547.827846720232,564.969410021969,592.542067628896,594.614373490114,620.184610016887,617.316058089266,518.823927371534,672.893783781388,737.845411046732,566.594654276433,849.891723109092,782.382751194896,583.835131166617,645.990406247407,625.485987635938,688.630324037723,12.354022142372,564.780990705209,912.367915610694,205.022333830987,1159.88354190264,138.823411783619,133.937165746626,1122.97639694787,339.660994182788,140.822989828914,1468.64098157433,1094.65843263488,418.171800998442,1120.61924669222,764.061800162777,1304.47546814161,647.869819532432,482.281658216753,281.776745867491,1026.88965305374,824.318815450781,318.14652406992,1150.39751401353,796.950078381761,455.008527214064,458.355225235775,493.341128719832,473.447192443569,459.419569803026,466.786841984143,477.471495829699,468.742938523627,470.707718254428,488.794825123662,463.280829236165,490.857826408179,486.809668516789,484.149626136014,485.23438258067,489.824253138507,484.018814322947,505.925553740057,499.623499316182
391.304093668814,423.578371167231,434.052504775559,446.024645309757,451.412093244628,447.906292523656,473.805273832112,469.344410581872,518.182766816277,576.982935980062,560.317682225652,434.125500490178,671.4372263888,716.351442545821,309.966201463385,815.107226508536,800.616102096001,407.987331222126,748.319579576448,571.734382477954,641.886391057275,118.962826455882,565.824547936788,904.512030513783,348.930943051286,1264.02446550563,202.776573887199,500.362603349462,1206.72802930496,442.317240544463,215.278736677654,1565.97478150842,612.826422871994,289.618465180629,1268.79047865952,769.988473449138,966.902451537717,277.319668836333,548.300993177119,203.936220040235,978.376895513699,465.171064613463,282.399542101209,895.111436723016,575.886573844634,285.947509447298,310.303720040119,332.14367683228,309.793893884966,290.368359948211,302.561407663488,308.21526377828,297.78227452196,307.232533346811,310.038187751741,299.074537830137,339.339461620567,329.805120342061,331.678590438651,327.645788038593,329.586655340619,333.165427368683,347.478883338356,347.62367464789
474.953232179659,512.638081603036,520.90440122296,548.659407390555,562.351323007383,535.824751526879,586.667766947607,613.419009749303,640.905743161161,740.968035966218,723.459484130008,538.84564489277,880.76505634817,904.845246795781,143.818506064094,862.125153415704,853.121269355831,451.465648288942,1090.24664730737,725.109661736526,850.755868036709,499.455700898707,855.575694679884,1072.94064534841,810.96182256564,1533.84069521773,559.950948817453,1201.91488914843,1443.22047827286,835.788145369915,681.090338803678,1720.10665543528,372.076811462625,401.298749216809,1409.81203782217,1011.39381733893,824.666138846733,110.086180412598,772.738769735395,453.605547269934,1058.25223266089,378.406820302203,529.351643308941,797.347229224396,567.659899559305,356.773347068585,394.920278179799,394.861071178103,381.834627587552,360.355006036992,363.780199010448,376.08944811651,356.635305108083,366.825293175267,380.11155009062,366.287101608146,396.978269784407,399.940448886099,386.735227584798,392.848068837129,395.009255724152,405.597993533247,403.50186168438,414.049894836241
662.450846745264,715.995634009021,709.318326960854,759.057579099927,786.481753263875,711.723901322113,800.192124509323,887.751335142983,853.852918257537,994.47372886208,989.487040119636,713.687277434643,1184.76788425589,1184.1554676785,99.6384955264089,905.439026572371,905.814342358094,592.797029098221,1363.12114616281,934.988747429731,1087.86174017609,889.925552250741,1166.32229289135,1179.32824438795,1263.61546098461,1710.07367165723,886.299458912263,1673.4037848578,1696.50919513886,1239.36877685481,1227.26613029222,1729.40677249329,390.460567867631,605.727912304864,1487.69403243734,1289.31392024009,858.99679609646,275.451486306322,965.705755240173,724.798561003078,1240.28080737081,493.633548663307,863.782797825922,806.552924703519,726.948211058014,542.182779288678,580.293975052233,570.834401490059,561.501481795443,542.554328888181,543.098773566083,557.930707129716,535.49003718801,540.957747238473,570.483710465558,550.951528349099,561.552869439844,575.367111714355,547.96034361652,568.450850563298,574.805856896256,586.049042001507,577.831552663121,591.060422821632
772.123337478198,840.777675036286,817.695160456041,883.192826605606,923.600681254894,802.478353594967,927.603497871567,1051.48531773527,967.47870901633,1139.85365891551,1157.58608713276,769.04938710204,1366.2682916259,1351.21078376301,172.310035544663,904.682944018601,865.102516812467,717.672440011891,1350.07439968363,1010.77886976838,1164.20461943503,1079.62186534428,1240.31116551198,1079.86181439549,1465.35653622218,1579.30976622163,940.888991231836,1699.86226705384,1696.58286556754,1402.60633923887,1603.08971445123,1367.51195202878,470.375256646515,723.24750126443,1436.39364777536,1326.70611640711,818.331385687204,640.936294348934,960.134256422597,782.891847927997,1269.84305148889,655.553540898357,1012.91025859687,751.006808123346,873.718427596875,642.29953924296,659.088453605255,664.331060940115,643.931491963012,624.678493176953,644.703929973404,646.782659671275,644.750318727096,643.012653731129,666.689812886059,648.608350364121,662.214122675281,668.734334395863,644.895635243069,670.647777555639,677.852275658477,683.693387377591,683.170172768665,691.419002706058
772.666631394348,842.743435266735,816.069294188913,880.965396379488,926.598394748283,787.721931392558,930.140368645316,1049.392824236,953.264195431707,1136.8081872443,1172.81130868131,722.779486043064,1347.7481748089,1357.40152497955,364.966467665403,927.403718989892,780.747309581363,832.51201976634,1173.52143814015,992.974824268867,1110.72072644111,1134.34704498864,1139.34891381525,856.010080570796,1448.29659725365,1228.41745513019,803.196069596937,1466.83290598369,1353.39760321745,1311.99988977632,1684.60125418475,745.847495444183,479.399324195361,741.691380854533,1266.23451889597,1094.1934795109,638.640886068938,859.000893035294,792.430163158345,762.723908441447,1045.02159670015,733.223281801695,929.627005550758,598.716193792535,854.656152767629,632.353408469251,601.460222054541,641.858073335291,604.060501840408,578.811977119202,638.733224291349,609.590604819466,655.572777314065,644.289708396268,637.982784682913,617.879298788633,672.71171208312,653.041136510993,652.742187441975,673.688822622514,670.067727617565,664.101487621038,684.176156446487,682.141107616064
736.889226257928,790.132493096767,781.34466991031,826.479703257383,861.437045070894,758.078395884701,882.864046302571,973.954696942207,907.968697145367,1060.11926247117,1088.01485963479,744.150603887058,1211.04654782101,1263.6820030335,655.974821723045,1019.64816075057,766.409308853052,969.360884501833,1035.40494351584,996.25423743148,1027.4535642672,1156.68257958081,1053.92314888652,630.049578636036,1347.47052543805,854.338310872056,665.504836061589,1157.11166313784,864.261337973944,1081.45510730327,1344.95149248375,227.455401634853,452.869272718273,718.538780449683,993.314246399159,763.35338157592,513.829000864479,708.326299369254,565.428809122106,789.095841533986,727.522897308195,650.906348882063,736.145799716334,460.231611943322,662.612434211409,602.896828699063,516.054684188091,594.303563024135,539.646289612803,512.697504470421,613.416317702378,542.028342251421,643.674786748076,618.23707798866,580.09384216989,546.64034851141,656.380867573229,599.519411827518,637.530096754893,650.105565324957,624.65307758966,604.13501477144,660.659085275927,633.070194284647
681.828893351455,706.494950014118,736.322255184898,745.353912124364,749.604074248798,739.153214604444,811.666335088672,868.73608318664,867.296339740766,943.668228669978,935.261679567422,850.357814305405,1048.7616617348,1101.43315993275,957.463540491815,1115.93650117541,818.27832578362,1082.86491174818,933.661152057566,969.867697135159,912.983417909096,1091.34256060742,984.018976610897,428.969443286725,1188.8917546774,505.158309303567,596.032516169648,784.708642264742,439.425364680995,798.143896935364,632.203984592541,-39.1944792311549,411.567886690667,647.597382878155,640.101353856244,461.998577194318,512.946967375753,309.579359041624,326.391871705057,714.53205151081,477.310055478094,430.412538280383,516.301961445381,376.110070346453,413.850154206453,568.405654358358,443.651339645569,545.215163272012,477.559608923037,457.064362826568,580.043024664129,477.638267695156,617.376734353495,570.006712431589,517.573269005821,470.182280254582,614.086433274677,523.107896694943,603.798473871254,605.78253411281,557.488353101551,526.890223910117,626.056192794729,556.596595485595
584.517341967573,581.21103436163,653.23185403742,624.168317501626,594.897466641902,685.64731987794,695.114936031016,728.230750253544,788.154679579668,787.967752766916,751.348641219729,877.86779569825,888.160405485686,903.151880973571,1115.4169385297,1103.47211167658,844.749366118964,1060.18429069706,778.257684849658,825.833501620628,720.093529506152,907.856511398487,813.889847259315,243.742598627713,953.845950217251,181.458314885085,554.335289729747,370.817405096974,120.67972001012,493.697524666974,-87.7852735536569,-175.155122459054,325.632655656854,489.729101868105,309.515140701361,212.98509370471,488.510955610914,-49.6955186575687,127.975121587323,429.044716121699,335.263503373339,181.938467848174,313.209903376802,292.633018057193,226.583389765239,481.363687509056,346.143590974351,451.872924244787,380.430048472537,364.781188659739,492.510381440228,381.41075614798,537.019431571293,466.461884161516,416.483884094083,366.190173994548,517.372443411496,407.15370149763,522.644882150142,508.431165024315,446.994351977136,411.229753712042,539.042767091954,436.351404943878
473.838668537554,453.686029205921,544.681726076721,496.850354758874,459.293604871227,592.136495784763,555.876195146241,593.80172382874,659.353961358682,628.376273026727,610.622395879992,751.656389546448,721.268513904518,740.766775256293,1031.18697687679,947.650519463574,797.926864432244,873.005345236415,585.198172433122,646.165986568223,480.678291600513,733.083488980427,562.805993153955,100.986006402031,743.794899192915,-14.833457011754,508.233578010279,63.6616712868625,-76.3684250563276,178.641570343719,-497.754603438719,-203.396972802419,259.582959343444,272.90669064139,97.9092166393604,54.8824756899662,405.206861095556,-183.999131140556,16.0574850768126,120.56068661083,335.651946033842,30.4804330255778,217.130592958036,219.256232706231,166.398105728714,366.498545828596,246.000248819095,337.178370017225,272.464155576963,256.924514938245,376.03457715751,272.479823136422,425.914677854893,349.61542363034,306.850570108538,262.35084756014,404.095990880741,293.952334043145,421.752998760853,393.948213311986,333.050816802026,295.566078858681,426.42895078004,320.926702376187
407.102641905292,390.23731756709,460.118707021593,418.711619765739,406.581989905108,505.057619472869,450.247376948668,522.392041522052,523.919377073259,505.968802352934,551.057641933558,564.527687674108,545.22241136311,641.915506377661,791.524980000321,728.128329675304,678.181617383242,641.699349265775,440.67376453355,559.052810652731,291.854294414554,669.38412089632,379.311057508948,65.5025998556614,688.216877481911,5.65027992531036,479.959830016046,11.691422080635,-60.3203581995798,-50.1357580150862,-584.731701359429,25.9806405704165,360.900522853791,131.31532636402,40.4296107008677,120.107195022286,428.368026515733,-56.7167804006901,13.2066580060026,69.9814846460327,514.396604778321,78.5536246709886,323.760637106998,255.662475726036,284.178503272675,316.02332262999,230.151504345584,289.644743977528,238.251407641466,227.549761684477,314.787258239486,237.346012174919,359.505938087103,303.851467721279,271.716467478243,236.674820093033,345.613403627859,260.831588990851,361.664006319566,337.277564304367,294.381079886858,263.679848210235,365.568931488043,285.66300039592
385.532746703099,390.81565784267,410.885483710944,385.617544702835,413.757059262903,438.27340903358,385.320250437004,496.93698535868,404.543931520521,409.626218633934,527.99959412175,396.745244420002,362.637249611727,550.746168382619,552.682801743449,520.28295638939,479.324044712576,468.927341531552,363.324213449001,531.93079518465,193.719844345325,644.569354277683,339.063674807862,176.970697589516,698.931067506331,177.39143187774,477.783161803699,122.746753873202,141.726683491233,-28.6284104246826,-401.933537646461,495.187563587411,632.640573495142,184.630744409695,167.178049472576,438.43696983472,613.048811392423,250.216778689256,162.816719973101,310.299845775737,771.116693623669,322.390703545669,584.060679588207,414.964364330736,559.842511052095,356.042369339525,315.20664743542,334.126233693716,302.774532780575,305.410942673589,336.625272196109,307.914432587778,361.312655021936,338.496097696953,328.823866885607,310.525170179226,352.743613411582,319.672426747596,353.890597105983,347.744393384216,340.613121210477,327.623784458781,366.183856603898,329.911650461862
344.98591357545,372.088730707089,348.847064055313,333.226935726566,389.786407470157,344.917979001744,303.976476389294,433.656348105423,273.200224401847,290.710466577922,459.952616132615,229.132257615133,167.443755454589,403.215058633799,331.799355169071,298.382858030559,217.578845365463,308.069493812019,270.933000498958,433.896836470388,112.524368730715,526.787978417397,340.002419431391,353.559188708662,511.607997361959,319.401186309999,428.653815414107,87.0398883559868,286.597532605094,183.68880904687,-8.09876462092558,880.157810992918,817.457986483761,341.372522428208,411.269451218586,728.259014693101,735.022992587627,520.976446387753,409.659909678124,576.27444562251,870.117651451281,540.691043543498,767.88434707955,517.931704726664,791.782368002053,395.72930735554,395.014194061999,379.029519061395,374.708116131365,391.428586327963,363.52784975257,389.388103875091,363.602322984328,365.92393276707,382.508888800372,391.173533928516,357.804243684577,379.707220204124,342.206907565547,354.44373156163,379.044800616025,385.819086391641,352.794979099834,365.455558518005
252.876467488861,283.883297664769,246.995122841125,230.674742430003,294.561312932969,209.658178213319,180.474579701681,300.825059771906,122.22762959598,139.781954135284,318.750297238847,52.8136828795524,-25.893281362822,211.021119484599,76.1802093092503,24.3671891432351,-21.1772027243788,89.772538343722,100.97798563082,238.778420069279,-28.672606980503,331.044489666511,243.53084676686,435.738737990363,106.623575145645,292.604088255468,296.052006689511,-176.891620351988,230.789331392586,295.774532323636,363.738682870055,917.510674180628,656.457558916117,378.83057999787,564.434261660486,699.653713449195,573.819939036975,546.488127114177,543.719834560412,606.409188690172,697.033571899704,461.951564057443,706.087765122782,411.306473292241,744.034292910206,352.937332570097,367.391281373481,340.286487221632,353.152303897231,375.786814336984,317.766896454496,371.828976772726,308.274188064375,318.5921765738,343.580002636156,374.88170031976,306.595270786818,351.482402651149,287.470076639401,305.373079689823,333.794578255572,347.591020668165,284.888010361175,325.559356126079
156.092774409397,176.713902537628,149.733896409177,121.711244985853,179.190102897055,96.591026449617,66.0718145576564,165.449875096634,0.0705303675180087,7.63362850361531,158.239339983498,-76.3898657347367,-173.870619012149,42.4977505104675,-171.747248506467,-249.661523476435,-150.957331412191,-133.338880922977,-84.9718478056719,67.6248909853049,-178.38093243969,225.374190225784,97.1408579732571,368.009270090288,-137.863174337465,142.831363033742,209.59401864111,-329.575873665338,132.738257502778,228.943458576856,508.774615221257,705.093228177922,225.073203350284,264.117876226681,517.167325421029,460.043076106942,202.129714893406,354.687643544747,463.480801016239,424.741259439187,407.060595828308,100.309022824214,492.107754695428,179.764397840573,436.303690071445,256.430157263448,252.012452704918,245.955422144898,246.888341159236,262.423324707861,228.832815715646,260.983650025716,231.524385686558,228.927984732114,241.767391426043,267.049364356194,226.826739294946,249.698104940096,222.260380830984,226.09248237465,237.862308691122,240.508322445183,210.623061532871,233.875365830975
96.1289841471212,105.23572946045,97.7409713887149,47.7829973573133,90.4472813340342,49.3524939127669,0.897740762028281,79.5500185210662,-64.0924902951401,-70.2153241308584,34.3259232082151,-134.858165502278,-260.032664663181,-71.45667089602,-343.120282947263,-429.941478772986,-183.660318375528,-274.585748152593,-176.106177563113,26.1650138983115,-210.683454465699,296.384744654471,86.9475669262648,259.165650710844,36.7594355960457,65.0097475041553,296.16426231338,-124.819774239839,176.578670119747,203.954736480822,495.504322381618,470.957676278052,-147.934350569471,167.814453342949,384.498180221322,289.468313509664,-165.064124178883,169.497161899284,306.619850918686,230.816555059475,188.17875724748,-237.184995849502,301.983229283479,-16.5387677029111,117.713719961517,172.921532642645,131.703364174053,161.154466063064,132.627484547636,131.818758717675,164.4911564712,136.027668473747,188.547376341148,155.059595809853,149.113404982957,143.986709899792,169.160515861133,143.857864253439,184.835774559951,162.75402334684,152.611189873377,136.673000534003,169.728569306125,143.261578962839
57.9739284086489,54.4654129923826,68.7803581811519,-0.934572001647325,21.6477268582504,30.9137619553625,-36.2185729193082,19.2184059828069,-97.7003279191686,-113.808910055967,-50.2944059619325,-165.814562903632,-304.968969252235,-152.692335192665,-427.129240156483,-466.524629669362,-173.669188060377,-331.747301761678,-150.326104470605,78.300332519967,-89.8079666187413,422.333089941095,260.144977805375,249.893680172368,394.456634777227,176.702434870563,469.450735638418,224.903012188717,343.515584974964,332.847530688434,477.2152584402,281.38955883423,-264.110399979731,172.207458994386,289.448426426855,233.678093519554,-427.953759890844,124.375406914913,212.384588004509,113.938110755924,37.974815129708,-309.282446262827,166.330688051634,-138.274804124657,-36.1893551074445,118.037779910532,50.7929831791421,102.028747133654,54.8836497317566,40.4838688930183,130.232315265391,48.093399370991,167.06563462032,105.180328770942,81.0538780813236,56.1219718404421,136.296103881432,68.756134694083,164.273788649024,122.003172974322,86.7286921168001,57.2547783591851,139.83958150537,72.3735282048401
25.3191599362552,0.797479287799838,34.8924405589412,-41.5437490694904,-36.1362137555126,2.89843073482293,-67.8652700244659,-34.8555879437594,-123.073291338771,-147.472718159799,-107.359498422013,-194.178440298256,-321.590845330399,-213.418260810318,-401.519235513673,-389.426800177518,-108.802049394027,-339.489570707098,-92.7305160748637,123.443568240073,87.3280030845886,434.758641010394,469.07493260601,360.029860488484,595.958912119658,403.76333070249,568.394381364196,446.281583394951,523.6361082792,500.845159685132,496.086159578295,118.598059409183,-201.258995978823,233.068331568899,218.686504065452,195.446179121722,-573.093311061358,135.736492285607,182.319360820604,30.0667240593189,-100.590953300767,-173.068336994277,54.5721005164127,-199.248126833428,-62.5548427375852,80.7629054265163,13.3727689459149,63.3569056489967,16.1722329524255,-1.32013306632148,101.667495887762,7.51558420276185,135.93771279308,70.9063857109891,32.2808757614449,10.3451270539071,108.646393226408,24.7855317336832,139.805340045318,87.5061315090105,37.1123713813839,0.943819595223481,104.086736641813,21.6929097809741
11.0772036999024,-33.9155180061732,11.5729477085122,-64.6534331582671,-69.4875298278152,-20.004132925842,-83.9625412906602,-61.7274905360493,-129.641051168047,-168.139759668768,-135.371465137841,-203.66205123614,-314.830640847866,-246.792343438747,-258.042932582699,-299.488886213166,27.9717977769924,-308.761011403023,-96.5099324857756,117.21970643678,193.750200364035,301.985838701986,575.944467479799,479.747463707165,600.514932241056,603.264717605301,567.800781890688,560.944479734394,617.883660542686,607.464578661255,527.863758827207,9.15507573118844,-117.751518527203,325.619625647072,131.291372256861,133.867701982551,-575.758893809192,86.0902089723418,187.428568550293,-38.5410469014435,-192.610105879816,-13.0326834378598,5.33631524354072,-196.246370009757,-78.3950018493616,63.4480102296667,12.1091570014188,48.9505772554544,9.18832950527905,-3.65128305332615,80.7802094588465,4.52744103896922,108.064939630093,59.9669307522356,15.1182516510762,-2.17439918363717,87.7489169038901,8.24583361655176,120.352048514089,62.2195125914852,20.357241787505,-18.5797505276841,85.5514287015421,-0.00534207285978638
14.1481200782792,-32.7422020227531,9.472830061909,-65.9920250061516,-79.3725578889701,-26.3423730650874,-82.5480492841404,-63.5163911001139,-121.020712866188,-178.486951711429,-148.815207257736,-199.511334012852,-303.259102034881,-267.89411759417,-105.079958105917,-271.122161101642,134.202731153883,-252.649000032489,-178.908146600565,76.4336895128659,165.798177061176,130.027477279536,534.149370323241,501.560940075197,504.517623062793,670.999734153272,516.632494946325,638.670594162339,548.178263093149,625.544432465285,503.871616422613,-31.1929811706659,-97.3656740719134,412.196629183232,18.8107631452454,-1.98768581583391,-447.173524221846,-5.32146198646757,203.541873490556,-62.2840528344825,-219.892376742676,90.1523876883181,43.3777920373017,-159.523111015495,-130.418975456831,64.2643085748804,25.2627270222914,50.474250027885,18.4913170317173,9.19845220444665,73.7873096905934,10.5770759769983,100.321759832868,64.7266924166605,22.1351329745366,1.44015807775,79.2676725422378,9.11009248748529,116.130526626901,58.5839721993189,32.2983579257805,-4.48489897982792,91.8278170647292,9.31916799627079
11.7480228318617,-21.7571117253639,6.39972854467267,-64.8985654506997,-84.7558092944184,-38.3612202793916,-82.18834320357,-73.2642458447421,-119.869808677136,-191.769218554367,-175.703706615429,-204.750112143866,-294.135438552032,-304.08768676328,-49.4849508040041,-267.291620475666,83.5870525044212,-192.738097730063,-298.064646638469,36.8557644771293,33.7578483045018,23.9704194666454,352.398908397539,409.872198689542,347.373739055979,572.750431386065,418.30940163979,598.983097936645,357.572762346424,531.063373353925,362.395081479254,-34.4034044833645,-174.032116089458,435.261506295733,-124.847324361435,-232.655087084934,-266.956356520237,-65.8221770007212,190.67144657362,-38.3557133297018,-246.349254701583,138.746738991163,106.844646416253,-131.71376392367,-181.998910962162,73.8559989041345,33.0625289861998,54.5433695431159,28.1976168879685,16.2270604773682,77.234500519794,8.93937526454317,102.342626416813,67.2377086723459,28.3727994282629,4.93998194239523,80.4612571002303,16.8810322005918,117.988718200553,72.1642790287126,47.5387012561043,17.6892664261705,99.7994848813444,33.5358647322241
14.9339946984398,-9.97756641134329,6.75309360490881,-58.1291918241711,-75.281392003757,-49.7192219628013,-73.9656396373041,-80.5996237510601,-111.748307192528,-186.671500457281,-199.304951655393,-199.203608197975,-258.661993110501,-330.982216790207,-34.5014558152875,-225.29281386189,-69.9413704578632,-138.219585567157,-407.170466446928,15.0404924872032,-105.78630497383,-28.7712736104167,123.356651893185,243.637351155387,190.455367320633,383.769196567751,268.251162788645,430.381478064751,223.54954778732,371.530751832529,202.944500099882,-5.55306323907358,-301.068775215255,423.296925149616,-243.665950304065,-374.37904238767,-94.0287343895621,-82.7982206533917,168.022996874401,28.6023387945071,-288.117325089583,144.147665850146,156.072172978677,-94.3160062554379,-175.681672672402,105.293891088066,53.5718793134425,80.7555831320637,53.1948329306549,38.6955717657256,107.624824864854,30.7411941906649,122.163691393766,89.3234315943612,48.5841668302547,26.2038803462614,104.894473436446,43.0171235503625,131.58153418186,103.094571055857,71.5954954234191,45.6338475650136,113.331962758058,65.3108085419796
65.3237167443608,40.0098524138458,53.7911751393004,-5.66539748276481,-15.9116503299976,-10.7547458288923,-17.8372054027532,-30.7300909946823,-51.2200027632428,-115.01479859968,-160.823564607718,-141.978180677265,-168.281344623865,-275.523732843593,25.0512011390904,-167.990937998461,-142.57252201487,-102.853420642326,-475.064574445391,-11.0354769830161,-180.929890774989,-91.8653420738659,-19.1439422780716,52.834684857608,111.910742678647,236.719637527355,139.990599854758,280.988662123375,223.758505746841,269.95470453925,209.343843058299,123.899170729113,-313.282687227493,449.612014557142,-209.575674549956,-200.676686915661,105.008987697512,-58.3414402935806,214.672284209796,164.253224780073,-269.774792488492,144.287427455827,238.162485851577,-8.12065976243508,-87.713730361482,179.215785476329,123.167296965782,156.642684725509,127.566543105014,117.920438816743,186.131728099058,114.847385130675,188.559609150624,166.013221572518,121.824833516319,104.809992909704,171.803862084739,110.172567165432,180.499130724439,164.999963941898,134.097911730911,105.489044948436,164.157589434312,121.418059350126
147.924616478518,122.414761096596,134.604157271369,84.6736244661305,74.4697646059952,72.1759780508214,73.3984147162659,65.1274026480901,43.2092796919618,3.23818340624928,-65.4804203639138,-61.165222625273,-63.9527417513036,-141.169297999915,56.3140473092643,-169.225800278367,-82.8313885529675,-122.17246670924,-512.629038040804,-72.6084610390735,-211.717480790379,-169.990503080581,-55.7591033229577,-109.204209886389,41.1572949666876,185.630240588887,105.267918155014,206.838094815757,218.385200195236,230.578394604093,341.996193389177,390.310226217094,-160.69562147101,491.328185787249,0.555761182486651,187.824416770084,336.404167136263,7.13129936374618,313.420883345827,343.510378443273,-179.479369080835,159.624523695911,354.966535391887,87.8583515102607,35.0892708124777,257.486800274624,213.826805081642,241.182370463577,224.741507962948,221.868015275644,271.594222837986,221.962364057355,271.062625018047,258.155290857609,216.375375995734,213.702404062968,248.25450044411,194.920342692417,244.103896789304,232.82001325536,213.940838689156,185.070367602742,231.172481332172,192.305183508324
181.615466050669,157.37333534929,162.657384068236,128.566348154259,115.562126739102,110.244468401289,113.682986097892,109.531449208484,77.3106634094615,62.8461924417122,-9.36842074803896,-38.7478420964252,-41.0174475609526,-52.5874721488502,-44.4676576416265,-253.198193215551,-18.3168032373641,-207.109122152367,-569.223971507117,-150.569829911535,-260.471421512429,-222.92158824464,-98.4390047208957,-206.750036490753,-155.86881611485,163.069389118622,86.6058759089158,111.719399160851,133.925484134714,101.566036274921,380.596386664761,671.150309905288,-73.4994307719519,442.951417631519,240.941902870472,449.955257398126,426.87985401862,48.2266403415729,332.909155552336,455.237327631822,-120.099362708851,130.001811206359,402.999876250199,105.791507935262,95.7437411102523,258.442662531972,234.562969696005,251.921548552106,254.448473391532,252.075383801573,280.724955473209,256.03496147323,282.980133732774,277.094946040123,241.021773098623,257.573137908332,261.676468003455,226.390804872055,256.935389192783,243.471141682163,238.330423809763,217.643192999611,242.923053040957,219.550551740009
143.793875059809,122.845217412424,116.118166701622,95.8159466026062,87.1047588481003,71.888546838987,72.8803083048029,71.6942554774038,25.9469638761744,27.5980023486631,-32.1853401496084,-76.8860470151569,-106.88193687479,-76.3074108068656,-187.655332579071,-335.803911616478,-12.7769835620101,-276.384176595931,-627.957143631509,-150.239525475092,-316.696032285512,-175.994267760382,-185.602207035534,-217.706612124072,-338.821373401139,105.310828919292,42.1501808849925,23.5049169565945,162.202953232467,-127.868391717212,347.700873278239,779.241680598097,-212.018100667724,307.305714309066,410.418280049155,483.05743514418,209.727589059906,3.23422853344318,263.750958056859,477.132116021821,-125.057058972284,16.8886332208216,352.752919731985,57.2924184283657,64.933953728769,192.186756847021,180.616884902285,199.326164667078,206.949332441875,203.542532236826,220.98538908092,212.187761481654,221.552123702824,226.490915775818,195.661424216014,223.870096581231,213.349475639219,197.547100237905,214.681296503696,199.147232419741,201.136623436425,192.05284372975,198.81843785753,191.942841554557
117.227909319682,105.102745029081,85.4677140691956,72.9519902480893,72.6158146838103,43.4050065823022,39.085335311948,45.9851586530461,-8.82254225554022,0.834408505783646,-46.4448972521979,-75.717441239555,-135.905889176729,-109.958192657753,-177.590320770313,-292.486575553299,33.3599780345409,-206.128243733711,-570.861075667571,11.2037181893877,-278.545947701906,56.1551141726291,-179.133316067374,-113.598390560038,-179.342173028944,123.192681342795,145.07567805491,122.516594532713,421.349572627013,-209.654402055357,485.493990111861,650.669184553441,-332.782577370117,239.334908124087,562.785374779635,468.81888206391,-143.870521289691,-64.8609651082644,279.909403091684,559.219070141323,-106.959359322683,-75.9305174671067,320.678417889945,67.9235944033289,39.8119686081201,178.694347130506,174.019272339976,190.321871512093,193.493649160074,197.733026127556,203.882928425895,202.249012204677,194.452543348512,212.330788224088,189.510786968317,219.415845854438,197.5704893286,197.06447221593,197.22047476911,186.087729964202,193.545179316041,193.788545670115,184.30205553011,187.913100681485
159.640245586548,155.995309078157,129.840246123281,120.843395967365,126.490028250794,92.9158546654204,83.7598955465693,92.8870289179269,47.670537321268,59.7014560539086,15.2749523985522,19.4524567552994,-47.6511550744329,-53.3350007505335,10.0184247588319,-123.822294912704,194.447859078839,2.22889547382431,-357.259470884662,277.724648018533,-113.669290836931,432.783621504668,10.5428594623124,70.6009334231863,285.219458602057,387.839220547309,388.493375170876,390.865854596328,677.073183102341,-34.3879752501819,710.451534901184,388.724126805485,-93.1858279055772,274.327369259394,732.105387035482,465.928368998425,-244.588608287189,-64.742423451069,444.484684670378,777.446965059653,-32.5515648279044,-20.6588237578333,363.375442299633,207.933634059695,98.9354533686104,268.619852989423,277.328162764668,266.14239649643,274.103136851914,292.924076951009,276.115923756934,282.278105003808,252.726474624897,277.206019814087,267.45493387424,297.695901910699,260.403328501099,271.073702392504,242.948414608851,243.738584497771,260.315866525016,268.011253212619,233.674453042699,252.318267246747
209.385754421321,205.439494117725,184.348521898759,171.726823618669,181.16318467819,169.193649027173,148.316965280491,135.943571424094,125.976556723818,128.665389286513,84.8319263625776,132.853220945113,63.327837630093,29.2497225289218,189.525703000812,2.55307549228619,392.277983258023,161.057824345191,-163.607188895212,461.74508224511,3.79588713536222,744.092032213493,209.101274605917,168.577591269218,594.839479562645,748.152914421049,394.971473560852,531.500788965904,655.891837009051,115.912816616192,619.847989739895,188.56210831948,435.534030842013,212.824827216157,816.406327811196,373.206794630604,16.2909799414977,-36.3554280155345,572.299182317442,947.197939572156,77.9687385466821,116.4322863738,370.132469678947,396.481223695419,157.523997778853,355.655387215798,381.054811269312,334.691487802175,356.28982794075,383.561911348918,340.565969897476,357.824229536985,311.342751128067,332.318608224874,333.377671191745,367.765323703295,322.135870141705,339.342418300634,283.547531978766,297.051714803779,317.06044174109,331.105225837537,275.322632781393,309.314433186175
178.573749688087,165.96128517552,159.467648048769,135.783886233092,143.449134087884,180.371177312742,128.890330440171,80.8048690501685,116.936885079883,95.5987447974831,59.0971904560497,157.317538420575,60.8914390980137,11.3504914661055,198.331097376095,-60.1681704776836,496.289290845979,91.3412307091416,-195.808014522964,409.315979633674,-113.069667388141,799.680842684693,177.833320223723,32.7406084801859,494.311595568745,792.188471759611,26.9078166030604,390.554448702883,363.672095373034,-5.40096350747078,145.502545123084,140.103815611967,799.522502675313,-51.2755923039667,684.920366856185,227.489577789861,335.082246488562,-88.8406401244797,479.7143852676,827.102551576892,251.983460059618,127.286599634791,227.087499304601,478.767295497734,78.9912090676841,321.866726298828,349.295065038682,295.16185793211,322.231819620439,345.132837187609,294.694345065395,314.954545090325,277.736946066973,287.952482116322,284.777586652314,323.47734955136,289.140738940684,302.39341853073,245.990326030992,261.325620465888,272.276663025363,284.423235293951,239.134455891465,264.301929610372
78.422738932462,53.3517460290608,63.401768037794,26.6033186105197,24.0272830051725,111.522239134313,17.2395888190019,-52.7340211966996,18.5487301440687,-34.0325902098524,-58.1824376298597,80.3603804133987,-57.7312862412998,-118.740076860828,50.9409076769944,-266.622632402746,447.872311342173,-166.333148318755,-411.51852073523,146.044106852575,-380.981099127552,605.108799905907,-59.8891127393315,-290.047352363012,214.597186716467,376.73647474123,-335.95168084031,203.040966628359,-40.2803117484081,-207.405669440266,-340.952106770867,61.5000646431656,699.043541199042,-325.466317145652,328.017184559805,134.612162453353,427.373212101061,-272.315903471711,190.558331995213,399.66375950876,441.143188368009,-65.0264977826473,-24.9713059571527,358.603290288108,-140.607744531249,187.152190446383,194.644627963232,162.681632536957,180.884610631606,193.962101112904,166.843861377383,171.743802049384,171.479065682939,167.257927315294,145.586440385914,181.992626560388,177.494664475119,171.476507465171,150.428111518982,153.735270902014,153.994821010623,150.236476376654,146.97513296023,137.689451993705
-39.5155195931363,-77.7482668167328,-56.4416070195247,-105.05113445074,-118.788790077549,-4.49755960818526,-132.379220089604,-210.205067596177,-116.540039491642,-198.192510941894,-211.728778738014,-57.238955124788,-233.211086708215,-301.924496749483,-172.396778715248,-504.552202176602,238.649045788092,-466.05566188843,-633.688227542635,-200.590747374488,-626.426912484701,293.219312082339,-342.208748827776,-701.753554835435,35.2419158453442,-336.286414991267,-418.191178693059,191.226494331907,-487.448705642937,-189.394324568917,-612.595972339965,-304.715932130464,280.529871852544,-425.007642500876,-102.630428761125,6.88149417467243,271.876765738921,-632.045761589636,-146.261798140577,-137.281345677212,447.938520012724,-389.387923360103,-267.45347542302,29.6967784926618,-466.630260768938,31.3671277117021,9.72374821181191,3.63362542429509,11.4754805022639,15.5380149495024,28.8367006437246,6.84067537506772,46.2918339076715,27.6023574905338,-11.9529300488142,17.7138507577633,43.9518844645063,11.2311779608735,37.780986498043,27.5939272389702,21.6579463982835,0.415392886991788,37.1032718666637,-2.47835971015531
-206.855011426016,-257.062076604273,-229.544719429268,-286.074852064026,-306.818866486628,-182.210200786209,-326.263423127625,-427.69649277014,-304.556395531172,-411.499392527693,-423.034929044166,-262.310692453151,-478.915379216839,-551.102441637973,-453.782755338443,-781.327058106829,-138.178828502408,-776.752059032189,-858.23331869673,-574.920311836292,-902.939135420763,-38.3905119475787,-693.589022852045,-1209.63564346778,-73.6557845873908,-1230.42929679084,-407.549209978171,158.170250539049,-1061.8387743058,-13.8503319411912,-828.550580385816,-960.265021957534,-163.222637164092,-455.774414654769,-423.756065476173,-335.138049995471,-84.6848722839704,-1225.22126106581,-424.666576626445,-572.408151392516,136.033052269996,-816.200862262749,-492.007172191659,-481.251120606204,-966.570046185873,-158.386758729601,-202.55923472914,-193.917713036836,-187.080945281349,-192.29611418723,-147.394430219051,-191.888933685081,-129.920059751413,-155.969991759474,-208.992909621811,-176.029990319635,-136.081051224338,-188.216695119101,-129.665340286414,-147.392731180845,-160.78668323267,-185.093578465781,-134.57166700145,-181.108909605454
-437.174147746377,-494.212240799136,-462.725899082524,-519.855023960463,-545.683791635601,-410.431092023603,-557.892460638662,-708.995916709569,-538.13319112455,-669.790883975705,-687.251439154392,-506.549092920826,-763.465951162182,-852.189618800231,-721.327585999998,-1078.03431984232,-577.993764943065,-1071.54168256787,-1147.81941630957,-938.244691998451,-1259.59227076626,-327.519003350737,-1172.90162723156,-1713.09856597363,-245.958525253602,-2130.02015302513,-469.028167803858,-212.655014820929,-1829.67822725123,44.3696852511537,-1199.71585201079,-1684.06155321012,-473.567575028453,-569.297690811447,-593.742469726069,-893.363010053866,-529.566301633013,-1868.91149934109,-606.544487906714,-817.557895105645,-371.013595947212,-1243.89591054824,-744.908827423188,-1028.0542014121,-1549.7540968375,-394.721766510682,-448.52476017593,-434.881117066714,-422.328966184172,-432.996250718122,-381.098194299893,-432.311910338847,-370.201863091405,-390.893494527907,-457.659341161894,-403.918481098858,-370.164083314733,-425.921866030316,-362.519081135569,-385.702810263596,-402.345270739364,-420.29634653653,-378.432089201245,-414.202215289067
-581.06680005231,-635.371507947926,-605.44407304044,-655.381947610144,-683.483805673044,-546.211995031291,-682.544333563868,-880.480926112906,-666.917984366529,-817.755336169767,-838.996123042992,-632.481191563549,-903.675796877347,-1025.75838174767,-763.936033540585,-1186.83056390632,-816.626973999614,-1166.64796237659,-1358.64420235628,-1138.96016140257,-1453.6007481627,-487.829897198554,-1558.46449724143,-1918.29215192295,-430.571099121977,-2661.81212586723,-398.532401930758,-842.804749679493,-2612.29910313088,-91.1323009324918,-1710.4723452814,-2266.24242707667,-524.5694850955,-636.530542547847,-702.023678188243,-1451.67163350302,-766.584448200622,-2105.33630368623,-638.677331072234,-903.044981732698,-768.364033550542,-1387.85637530134,-917.032201123801,-1303.7374324055,-1802.3061489841,-534.275668379258,-583.669155970955,-575.230134059851,-553.68239246491,-560.277737706238,-527.284208641847,-565.941533157543,-527.183838794527,-531.066017409352,-602.903742596807,-526.962913128262,-513.431232846755,-555.990011986017,-516.833732767002,-537.79816509649,-545.248388213522,-557.712525171272,-538.085571381917,-554.005582665277
-504.160295820667,-549.265179647391,-527.902843245868,-567.893537256188,-593.838467888338,-472.83213045082,-587.084017856722,-799.547392022468,-578.020139639329,-732.007185058505,-759.625522647406,-529.462947713702,-794.518496679371,-943.984406514929,-477.318120327823,-965.413885793378,-708.785832316831,-942.897410263729,-1313.9282093362,-1066.84135660537,-1287.12633195535,-478.231166267401,-1587.76724755255,-1708.85870832163,-511.584297337436,-2629.04082668309,-61.1465749082442,-1331.83892178012,-2999.02893109349,-296.367881877888,-2146.54412688495,-2506.00519677985,-291.027502965627,-458.262351653158,-823.639387440768,-1742.25205101334,-594.373288379295,-1730.44293840535,-484.459544557238,-878.882629898038,-842.997125687356,-1155.78502960079,-860.666036826058,-1156.81697683981,-1489.5635835908,-444.585958826878,-477.131516312393,-480.492365114615,-449.727351108787,-448.58078785899,-446.68536495593,-461.35257735888,-460.060841603418,-442.140837959213,-502.612334431099,-422.76360436691,-433.963425609232,-454.290315007799,-455.888584561086,-459.89697780692,-455.449059466629,-460.85985664676,-471.621755265076,-463.83208257742
-303.491602705686,-340.910336488984,-328.062685381433,-364.411810538518,-386.704645557424,-279.464609799294,-381.20271678317,-581.466181721549,-375.968617122695,-521.32592128534,-576.360729421427,-295.457580594261,-580.205616335616,-741.555130140577,-54.7272384782522,-569.972461107477,-423.490422127202,-554.826235905175,-1064.23059402624,-829.872892047323,-918.476777714801,-350.945116227655,-1321.62852840677,-1287.15969188576,-530.039878705387,-2193.90358244075,263.354308765787,-1422.41200939617,-2687.51693260592,-476.235314059148,-2227.66635613826,-2177.82883227457,-117.456751733437,-143.032458827025,-921.529475627948,-1643.89165001543,-175.591940679642,-1093.51696146354,-222.804234886349,-727.57138540855,-637.64320606703,-853.656246122456,-640.877818319682,-790.164271489188,-916.962191265781,-217.820300428914,-229.869545168442,-240.552457701406,-206.757659373406,-203.608088718028,-224.556369045245,-218.402557624017,-250.237237570993,-215.994920626326,-260.86240911196,-190.00951832981,-220.563388810415,-221.717557917004,-252.970892666526,-239.069887106247,-230.868886835604,-229.094328577922,-264.843505977851,-238.502597764077
-144.650359375145,-178.279666054657,-171.269118789351,-209.91301627763,-229.796325866135,-118.167030393189,-225.936181285551,-408.339146191033,-211.191285532298,-352.701930957979,-441.715709198135,-82.2067610731785,-420.895515633262,-587.260755453283,242.011809396424,-228.942301650197,-187.562852052215,-209.896081658666,-730.104776198219,-601.728909452279,-554.494652034227,-191.004306685288,-950.908996502248,-816.898284886903,-586.749054458319,-1522.6010649315,331.997391521809,-1195.16989227393,-1842.0829191614,-544.488999702618,-1774.1938878339,-1301.41943020461,-374.611901257019,67.156940354238,-839.29925362134,-1237.93808309401,186.148295354556,-557.988827386926,30.3181262463319,-431.634104811715,-327.350933206474,-745.539806084097,-417.882264449813,-461.254794403166,-447.663173210063,-23.9158098117968,-18.7399772843956,-31.6755496347866,1.55487766283738,4.10718255227559,-32.5465316617778,-12.1024680583525,-67.703693481601,-29.2512293910135,-62.1296186526158,6.76051684146653,-43.135148579157,-25.2957046177666,-68.9566979024275,-52.017047489916,-40.9818507026029,-36.6760940719754,-87.5917530026605,-49.7873192369762
-33.9395234780429,-62.8556740458105,-70.547134070563,-100.871812553252,-115.17658049083,-12.441663174316,-122.42069158455,-281.757225758744,-90.9661487324901,-227.843214865827,-313.6166862839,65.1790867211039,-288.314353237239,-446.117298693875,337.046554228651,3.49084841837898,-56.8667019089325,55.5805345693266,-340.497752519249,-455.437903355075,-186.892369492568,-118.073928909398,-536.876216244728,-272.76604522038,-679.250162357941,-676.975785429095,321.82781774196,-874.081187013053,-962.552297677527,-352.798897627655,-906.011656542174,-299.979686683284,-808.570669715114,193.862811807376,-489.072517114011,-696.522907951094,343.068524831002,-26.765099186813,246.925013749187,-114.024420708461,-37.9905719903242,-742.499576345497,-231.060940529921,-207.559505673234,-46.2657465517165,109.423244601298,137.342876988304,115.291089719536,153.434263267384,162.186104603318,96.7651340732648,137.104225761393,55.1965955601773,94.385698036693,79.8355554350453,157.212830668895,70.6817460924115,124.631972335281,54.9756264614865,68.5164951909609,93.8897532934813,104.687806686371,28.4287058439076,84.7567166311328
83.2948640615376,66.1008662151161,28.1077226398186,23.8775196620137,27.8268119576647,69.0060809552666,-12.4434898280381,-134.075325929502,15.8989929050635,-85.4429457692099,-123.54075290381,134.450563369736,-124.286341830479,-242.898768421323,267.982197677792,146.806402600781,-75.4849037320146,252.279910556216,31.5462651867946,-416.12804516797,182.151295402351,-246.4719955265,-166.403635133873,275.356207689342,-737.391833560337,73.6674452594638,445.786535394209,-589.862000237575,-382.367171314308,74.7964941010241,-62.9662644905389,366.086255418084,-860.288755277483,380.612255110628,-119.504919888082,-191.107064419898,239.448267253421,599.497711630008,401.366429404135,37.2785426860603,133.830772134189,-692.122892954363,-85.1783431275771,3.17884688056195,389.398110227784,228.928878254478,289.956800643215,248.714391777593,295.485517881225,314.70279856571,211.208919903435,282.328668142663,167.662598714101,216.249977862551,226.337236201772,307.892712322047,173.808380015048,277.243215250244,155.583059457319,176.198540101345,223.684834389246,250.951256429485,130.903353322576,219.634267500764
