57.4171788320807,42.3379197448676,56.4747251391298,42.8453948103026,25.0837675200756,60.0270505971752,44.4403164445271,25.3737532717528,49.8775492884741,35.2332688287768,-4.27728983723833,45.5277630133165,32.4059077499243,54.3723284394703,-38.1331263455485,25.66373902343,-22.4013993170618,-1.88490738590164,-30.9559789915384,-33.3483614428751,35.8857367700504,22.9088743824968,23.7063351996091,13.7018267667465,30.0135252985876,27.8386321610088,36.9731833388398,39.9455372935309,30.8834825536191,47.1951810854602,44.0778342549306,38.8580907247415,32.4059077499243,55.532271446179,55.0972928186632,51.9074495502143,48.0651383404918,41.1054803002396,65.6092763169608,73.0764094226481,67.131701513266,58.4321289629508,92.3604619091802,86.2707611239596,66.3342406961538,-94.6803479225977,-11.3819407533291,-64.7393190619293,-108.309678251425,54.0098462498738,-108.81715331686,-32.6958935016015,-74.8163239327111,-67.2041979511853,-40.5255087968852,94.9703336742748,24.8662782063178,64.5943261860908,90.6930438370365,117.081747239659,106.78725305512,183.198498622055,92.3604619091802,95.4053123017906
272.878182341796,201.762420599905,264.636446296905,201.415513567557,119.746869032149,274.604987954673,204.416104748483,119.817908925936,224.705921272893,161.23634891529,-15.728367112022,192.394358122866,141.730884310805,253.573175349688,-202.109774460453,123.151288526092,-198.509597755201,28.3193265443411,-150.292746705941,-145.622834080539,174.91677434826,101.597435414354,115.820855859653,70.5245847136832,139.078656706359,132.093674528136,172.754543279667,188.453216621322,146.033945114216,220.170242826677,207.045921303222,182.495846642955,150.285463985282,259.729546396301,258.53553998683,243.18231713339,226.545559731179,193.159658909549,307.834690375611,345.223470440051,317.160959901028,275.664197297227,438.610766952214,411.382693721328,314.536969522816,-446.71871564612,23.1291607249897,-262.963764935963,-448.245179706148,328.771926261641,-477.259330031115,-80.0349590973545,-320.855928034378,-235.728971872148,-117.838772999666,502.322026986087,200.6358620487,359.638493173408,476.80664075496,595.568253426605,542.951298594918,915.597920529906,461.157159145114,498.296289865368
525.714255110085,390.993509933307,497.292935727112,382.322220995722,236.411880329644,492.807005837237,372.916833732921,231.843879348898,393.424185596784,294.151488546328,-6.44930439130544,294.181268607611,240.46975953585,472.928939086616,-423.239900294827,256.094950429068,-652.57514940949,212.437833130662,-291.339221291771,-211.568244686638,351.471937712424,181.354140677278,239.088532713264,152.641147484892,260.268587392617,253.836128853979,325.464256891877,360.515213761449,278.556021250161,409.481151583881,389.895438008807,342.558340000675,275.913797845455,484.840330647827,485.082494199305,455.385752976713,427.916491405529,361.849408107104,578.278483604927,653.994028597368,600.295807789432,520.098621648258,837.623279877873,789.467029634281,598.615396937704,-791.761857830809,355.158024966316,-332.162071526957,-569.335920388694,893.257581856577,-750.657188910591,136.347192012066,-468.269592163549,-167.257593009784,12.8499777280044,1136.60149695253,652.216978642124,845.531428726861,1050.00216647746,1262.20352672741,1161.29399291031,1915.2454982346,953.014983286537,1117.89895952601
537.635488833597,403.161674470064,484.273964119267,383.291153173013,264.536034249723,431.39764736095,348.461747700288,251.001682174772,330.514509187166,288.031590267976,70.6376862997409,149.990721588101,214.306248866954,466.719437212674,-401.926276425022,314.572447522742,-1048.39621783274,597.384670569223,-269.909286964183,-5.37912587662757,385.011143992897,185.264535011199,291.946594005667,184.18684425045,264.07720012235,260.976644865907,324.549699482664,368.205691911257,279.244951517127,386.677645567277,377.866047138148,327.965116462682,251.634253856035,457.814791983462,462.6819747771,435.170165821315,412.429871137804,340.887549261907,554.8017614795,631.568528981988,577.500150205074,496.054958403562,818.186969101771,774.493118369414,579.157711911256,-508.300527191154,1094.76884263483,68.3700867526956,185.851599789287,1455.28113049933,-337.145479199556,797.041987775808,-76.5911923643483,404.238179952755,458.446119240574,1481.10328153498,1139.51111188578,1102.55537698031,1253.42535120314,1457.04056741739,1393.91219611922,2242.31103042821,1066.30493817537,1465.189128704
364.562108947892,266.042416160775,302.433514397272,253.396720616234,225.925658185292,206.184373181332,219.181940144827,211.251586532712,152.560684387763,232.788464692923,210.300121769183,-96.8420171732304,180.45734054956,351.86935112473,-81.9757666896523,233.861155894934,-784.573166417382,915.474246288347,-79.3559170711587,376.06210866625,274.504058550822,174.447550535783,282.880505026563,142.207947161817,200.36191905205,186.911636706756,218.368178767916,253.930955846212,185.421163865262,217.079283363439,224.958756265461,189.723944518294,129.375695398455,247.69391051899,257.327482027614,251.189801423548,232.190066414275,181.063961401818,314.460770823568,352.079426718558,317.961502556757,266.401666940931,457.703752754012,430.636688581114,313.347492549277,294.050901383879,1766.48981634686,640.973982991245,1350.96289192408,1632.26967124612,455.492827260834,1425.74903936116,630.205737386018,955.517193046217,806.776089853401,1336.67624532828,1196.60376312612,942.085519416603,889.202359732727,1054.14866087481,1136.20099156669,1805.39875814418,754.844895107595,1380.83912015821
269.473836126095,162.098303876323,221.395440620512,180.528572718349,208.867478920793,123.124530316789,196.272021490341,211.543457418026,111.901171594215,283.623469594684,349.130168743221,-185.994930171864,257.725647613106,396.078425704344,171.750533759763,20.0351659553295,34.0877788314676,842.137164408063,113.061499082305,576.748581480333,158.498927730595,205.31809192399,278.069630870196,76.6978870402574,184.5911381081,154.446369009627,164.983771686913,189.019519779527,144.171240520776,131.815044736403,144.569048580207,122.039161299565,75.8789878240179,132.728490936581,144.319701108876,160.108318341936,126.661740978367,94.2811281198369,179.910266740251,186.444560561616,164.541335629406,132.070602506638,226.230884174802,201.996759359972,138.038297863853,765.849802734564,1814.85174125876,867.580667725986,1848.02893833748,1382.81289307644,830.08469369455,1461.84909054985,994.289746921981,963.127931824221,811.033668897747,1031.90419476371,828.601088756544,748.698785318467,429.821649978752,626.667719185087,834.621884961168,1362.08734915899,463.969617187123,1177.27140980402
243.05392002719,109.257508337257,219.597017518647,155.498708296326,201.364881784331,146.809016809269,233.199420683969,231.058797612682,166.576325743671,355.731507553171,442.230845717376,-100.50144564102,325.51122916305,483.61238321357,229.414810084344,-133.321080833647,657.913011828973,502.670285883962,284.019173072056,532.336930303141,65.7853504522505,209.049130681587,257.288121369421,30.1347722957513,178.371661626707,142.475829130403,146.004388181774,158.092796549693,138.874558571767,120.189202681362,126.402566028999,107.906940041532,70.96339487829,116.922421296668,121.895642124057,141.432959205225,94.1998768053737,71.3883774392153,151.927941702124,148.342647310517,125.326904592303,94.4967723779148,160.239193892786,130.752292061133,69.6760156302548,645.130064512554,1312.96706266535,808.61862789714,1562.8642441021,902.568544203077,754.539849795616,1024.04652106232,872.376332009434,710.890076677024,723.81885448887,741.97417974274,459.77838931995,757.870903821922,226.8258427033,441.282891306148,624.734783335264,1070.20017687847,339.249308803465,964.474816805597
162.796348540039,58.485747460317,165.995813220862,108.813867054362,178.833113202854,120.110637687216,214.155208573766,228.49029601142,186.100642476019,332.968031456399,485.608323397409,75.1098249211717,298.689003615572,378.060436272278,410.465887194249,113.996960184048,799.145610224277,334.959228996014,522.263256844012,508.635669416528,6.96303692271385,175.519563693816,207.251320458499,37.1042400837835,136.554726004044,94.6818539276828,98.7246015398858,86.1866655697675,86.1717591970253,70.4151239848818,61.6725243758082,36.8125628734125,12.706558922806,66.0342880964287,50.010092706809,51.5936340299238,8.18311027252546,-10.0094863416602,71.4839624287626,46.008284117648,16.0860969442478,-13.3612507269245,20.7937002508206,-10.0830947725544,-70.3698026440793,445.558235238183,648.194966293689,706.278723353754,1036.12230372645,323.896854982112,637.022278472858,503.950563491041,579.691553643683,541.078615414713,613.308232340925,356.126527438222,218.121062139883,651.585576381407,116.368246581615,264.657392827053,280.309928456649,553.777624334781,192.355345015045,568.728149837953
67.3815911774315,29.8119043132839,97.1971532507183,73.4857615553213,164.422548750124,71.5434107056921,169.267672929702,223.874900531087,178.895840142614,260.78813139915,483.503420393378,257.67995649307,248.623590342369,136.079465070381,786.636003998049,721.072583781298,818.205095272601,479.115911064636,780.02161206094,632.70314540127,80.2879184904054,191.491918068955,195.91310962433,130.928337101925,124.257920038982,70.0699809712255,66.8394985530935,25.1589322807684,28.0677000887865,16.374040331372,-11.9787023066554,-47.6304706742126,-64.4127934306035,-1.81294159663078,-40.6655335483422,-61.8278344279677,-97.6636365338255,-115.431062927693,-35.5420234705726,-97.7497283144249,-136.097275603611,-159.858782607446,-177.378066861397,-207.521523777685,-250.46478382897,405.272544076274,-18.2938021436065,499.642687478005,448.955985805686,-267.860734006723,518.2390092554,48.1133198338618,293.965069515316,366.062459238619,323.754077154184,-120.016589273956,-70.0971929276337,197.040700404129,-136.366244037114,-32.5926470866723,-222.835285319863,-189.065769956024,-30.9196034590259,-27.3254907081424
-0.548089148195583,8.8941403804877,50.7552639000577,51.1196530833221,139.250301430451,44.4697616407587,121.756084848092,204.903541783783,153.571246619989,178.628286536535,439.921897670441,348.56512478577,206.140730778392,-75.6887975952147,985.344534459969,1137.76405238292,938.508517022676,656.949222484234,922.565110541169,749.576969300279,299.285699860867,276.599558559982,262.743355092078,292.319127448795,181.584313913138,133.69476059398,86.3658880380195,42.1299367104766,50.2030690179158,25.825043997745,-8.16221692883926,-42.2999188994636,-58.760559657519,-16.6730516246959,-54.5954489110205,-80.0578646215606,-112.227046869104,-126.130203396381,-78.267745876132,-154.575341447991,-189.459316384229,-204.14812059205,-274.430940687294,-296.434338689728,-311.778006753418,303.884975074958,-607.250437301073,193.634734743518,-157.525406906461,-722.4107993864,326.366326512201,-293.582767284772,53.6712813970994,196.422845876336,5.44075477791275,-542.950092267538,-339.217177563325,-348.516455772393,-458.953514034227,-331.216049369316,-686.64671219052,-876.364017479246,-249.858409136094,-628.702090781329
-95.9259372079471,-56.6247845465669,-29.6673122010235,-16.5857303676663,51.3803838473083,-9.64228661814675,28.4090374026028,124.307963920631,86.6012703083137,54.8781528859856,344.689081982692,350.573562465988,163.547517255797,-222.185013334782,831.615324393492,1054.58049293844,956.849848101255,581.023575292312,884.903491975546,690.2669646735,490.414256100315,350.69088199223,335.310073993081,434.51776768271,245.224523115194,235.624044750203,118.487379304921,103.788171972519,133.969969555533,67.1057972844392,55.7393582662496,40.2224532889884,36.3215316092641,2.0618457785253,-8.42815750128639,-16.038053911531,-34.9016786494812,-32.2237967735181,-71.7007485830605,-123.931447322704,-131.000682249696,-127.529344079819,-252.215979128491,-250.68838320368,-228.426796212012,172.527188226553,-895.972213240041,54.3657109511818,-466.634157558391,-917.524256646325,261.170966010316,-446.142903198835,10.9100556453262,252.591926730426,-40.8795110946616,-843.30936198908,-320.089595742137,-669.14978792801,-588.029790410071,-522.525996015368,-978.597245073302,-1446.02309952298,-439.922816720134,-1073.64210570217
-224.256901745179,-152.080379852028,-144.841278932942,-119.997547812487,-90.1559363814826,-94.0472558347716,-92.6112140890852,-6.01681892222657,22.8443123162401,-86.8684876943738,176.241733837516,365.804560338113,174.495095622345,-321.228885492863,588.202686311371,784.866385321069,727.077810061918,232.998266230745,673.609904285151,456.060171090369,463.001215527148,330.578690124889,302.934422291976,464.758200952015,232.937572904284,268.425538793982,115.734682455998,128.795157099298,182.80855615495,73.972100459944,93.7668097153994,102.543652342269,125.916297506254,1.35622796911012,16.8752170865972,31.2750519864363,34.3566412950966,59.7057529234648,-74.6510869787973,-94.282817331742,-63.8099511932422,-34.0332168581191,-210.623004656532,-179.41983773854,-118.511272689483,249.526083677676,-822.3925467879,183.390086339443,-328.033985648387,-955.347147596488,444.08226165447,-448.771946902043,229.122667840509,487.905703062732,176.706115295621,-1044.36894970472,-37.4145128521117,-738.139521424143,-442.268376685271,-596.919656571003,-1081.50664626475,-2055.87468198366,-612.494025450793,-1370.5743526252
-320.544448763353,-225.283798308353,-224.088222464706,-193.490334941644,-215.83070565424,-146.015742331034,-170.018925223791,-119.52936290868,12.3848864124244,-174.230004508785,-33.393162927341,420.481970554558,254.206691352717,-345.93174310482,509.726667947709,626.20021582986,471.633258055776,-139.329711006246,358.030979309359,186.384285661048,222.877896219608,215.649489468061,158.360462601359,379.007198964457,143.401507218291,201.916737517153,69.0136034454826,84.0119557861768,154.189812499853,34.4034333611352,67.2565744104207,97.5036523350184,145.427832730669,-33.0897150754028,-10.9632802451334,16.3882522975624,37.3603913763098,77.7937322847285,-106.665456881453,-113.051809251003,-59.2673833757223,-7.61347718786957,-222.846573469571,-165.01046639184,-76.2717384092235,393.158433863058,-758.195645060321,331.582223435249,-140.250258088086,-1126.80399640101,605.465675943301,-481.506492597402,405.247956140669,584.658433550436,388.493297980163,-1186.97855294993,163.716762129256,-669.915986860435,-274.34818061874,-599.397591863977,-1065.78196075717,-2759.80239499996,-771.255377245776,-1648.68264701768
-363.248587329449,-259.709643909964,-244.384494184576,-216.093722705943,-260.177489982816,-147.528670296669,-183.496876647308,-165.350264138279,24.6341147888315,-180.369971196404,-173.273443376023,443.085940469661,314.569669016209,-258.447050820664,563.511566546668,437.640040198172,438.284467154734,-252.498188812045,91.1728418867441,26.0315995231262,-19.6392053923176,85.4426805594862,12.6605712710916,285.465695087068,46.6164816175241,116.192855890508,-4.52996307476718,9.15769496247503,104.515352561523,-26.4520295821307,17.5706505301279,70.1342150615378,143.720853427924,-94.6516645949204,-67.9078222459936,-25.9803427960457,19.2206901623506,72.7350790350409,-166.358686392184,-165.456817455275,-96.8173536590831,-24.9959580467398,-284.662571859424,-199.398086527602,-78.8309816079244,302.573982018227,-1057.18951243044,281.676461932855,-343.534106840501,-1473.77373203578,462.204284776428,-665.276310871279,227.505123355686,386.775570819064,399.287485366219,-1278.28204889256,48.2936322591611,-565.7058782817,-370.145717136996,-644.810146223898,-1035.36717530107,-3285.39367918571,-928.390378590546,-1929.73116984551
-362.33332560209,-248.124131682616,-229.32697351475,-198.50389238685,-194.276342430131,-127.240979636534,-148.015992252607,-127.066215368188,27.9764911598349,-111.4273765088,-152.464150615279,403.612603242481,308.415570029059,-52.4557416922979,576.811387554613,73.9236354777018,532.70696708629,-140.267857205428,45.3795520032487,-7.03411091523033,-55.6711087207973,6.86640563708569,-38.2006825360842,292.107071214936,-2.35154506027839,98.6089575701243,-77.8092053072996,-32.7643006097704,103.542227070644,-84.2868329726953,-2.29474519916578,84.0089021071712,198.404584228465,-171.19318783114,-120.746542791386,-46.2789290037791,42.6719414784071,124.766772914929,-242.339796150442,-215.527853419943,-117.704778944697,-10.4379707868458,-344.499103179866,-231.976064551371,-56.9999202388049,61.6477131871214,-1491.35622634891,91.3172565647208,-832.46082225582,-1612.638232617,86.6756126755888,-910.072572939433,-140.159456826577,-9.64334099548606,217.793450070549,-1269.9775565929,-324.746048129975,-513.497847731153,-704.070289298317,-853.653622694422,-993.70610014056,-3231.85628565152,-1074.24542153758,-2016.99012570461
-333.222445513851,-206.168886730813,-214.418685140262,-162.18979088298,-75.2648086128293,-118.266726541435,-94.6514473721145,-51.5401599462133,18.8508256212944,-12.079753695434,-36.8693835639537,314.774987855779,262.576880199187,205.50310437402,411.419699472703,-366.481962270473,480.203500101921,-123.318993467208,247.811045457294,-29.7981579879471,82.7175831687852,-41.7611697799466,-26.975707497963,356.030472682457,-24.7506523386483,124.126894468941,-135.629872122577,-38.9768333170159,128.509716732196,-132.068340627407,-7.90388478969155,121.823402246998,277.338143441298,-243.452943972096,-163.215420489871,-49.872685856503,82.1127587118957,204.847894327333,-311.490142600774,-251.164541638922,-116.959830061798,34.3312780342497,-378.686278669476,-244.944326889328,-12.3237247442603,-70.0410070734941,-1542.49453974691,-115.323608502547,-1175.9699563937,-1344.35407418211,-290.642025441306,-1047.42688363213,-330.995235034994,-417.051939690684,-43.679897123174,-1167.34754844437,-718.405184210369,-579.070362467206,-1033.56110747768,-1171.06767461182,-961.332331781513,-2582.38641189571,-1166.19916953768,-1800.42864664617
-348.724191766778,-224.84088905382,-268.694084978881,-186.093410847182,-58.6462189228667,-171.767716985032,-111.713139653696,-65.6111428949191,-53.2567056958403,-4.2332319881698,-21.5338805862311,147.252703677509,145.974942200954,361.727007894597,47.9718987999194,-818.244584107669,180.324711765366,-380.66573357672,484.367972311125,-182.128407611603,144.548100355398,-145.467020582572,-92.8181483628888,297.147299083228,-110.94170683677,58.2074108190277,-211.543921649085,-97.9325999148225,63.3524470285686,-208.698837910367,-86.6149121425593,69.0418040993597,241.275051968337,-319.354250562026,-238.538927610913,-116.244681513603,29.0424660735621,180.924058551147,-384.209538393443,-316.70321190423,-174.136272784544,1.79715281577797,-434.844688819374,-290.884212748479,-30.7445205344066,-53.1420946829319,-1062.30370510059,-266.965211286602,-1115.99958288617,-983.006687287279,-492.09322307819,-1011.671599347,-285.594283111608,-606.082520532592,-318.121952645473,-1133.89438071868,-872.192248904324,-804.471296557787,-1228.9770860253,-1399.48280702451,-1184.15093581372,-1776.39675829702,-1183.24567596073,-1475.43719259159
-473.172201542836,-370.230422638303,-421.058587584465,-339.418333727202,-237.377898043058,-301.936757540738,-253.191985969897,-236.694848018602,-217.75842937276,-147.956705729787,-205.895259918319,-97.275447760701,-66.0472243081733,318.949605703614,-379.160740144277,-1212.45317912852,-221.785327451193,-787.923272095037,466.317502234737,-503.385386106726,-33.2519595984474,-353.974640639097,-327.682300500412,7.34010771238996,-323.039743781172,-183.968474559117,-351.571877750746,-284.863497789951,-163.225007389569,-363.731298852568,-292.184440479017,-155.105657551709,9.71530609555814,-429.303200180285,-393.440081467676,-309.308455675675,-180.924570151708,-27.4799501696051,-500.339187614639,-464.874083937715,-353.089000043397,-184.721725647368,-563.282758148324,-430.414803359878,-176.51523473923,34.3460567214451,-382.483949925833,-237.4780797193,-675.440499739843,-829.415839663849,-369.144628130184,-879.39223545609,-158.944700977171,-467.660369475966,-679.907716107033,-1328.26629290989,-752.632411616964,-1235.84303165974,-1387.71787939507,-1511.70346239264,-1847.14405497068,-1214.63257462148,-1176.29234469029,-1262.69913729655
-642.299592126269,-545.868513854516,-580.196709453788,-544.464001253618,-487.112942718575,-432.082830051508,-425.532928952202,-445.278260678968,-391.25899672247,-319.347964455655,-461.404019011217,-328.695629646588,-272.29150870784,166.032401382924,-706.399854659496,-1308.19614217773,-521.862732730916,-1145.50388084776,128.125881482335,-872.566728990424,-361.746536989977,-611.972829349111,-650.498738063184,-412.698899703653,-590.361356226049,-509.317928094072,-520.616360542138,-541.00955560123,-462.409399622266,-557.131200989151,-547.821067146228,-462.793697805632,-314.68474698475,-555.881749875012,-588.101160768741,-562.88611282703,-464.679440738725,-333.330538728738,-644.439792838435,-660.897985799583,-592.559948778283,-450.362585265227,-733.71108949244,-631.417144836906,-398.814113880803,159.011404460191,-80.0164199763084,52.26035647761,-146.570540352611,-943.597502145447,27.7618951606418,-844.04366985967,-62.1534725851094,-265.886204432032,-1221.09833267693,-1675.30576468789,-706.733043302056,-1856.94536824595,-1681.89083090337,-1761.79394130459,-2656.3334060352,-982.780639462011,-1250.92940957903,-1164.83391191071
-736.458665216328,-592.187774304253,-654.804091541936,-647.703952235532,-595.910095758662,-504.461872956468,-515.042320218387,-527.041689958405,-505.997486660822,-397.445440935981,-585.639408543345,-501.991191972609,-404.264276789368,22.0958605088891,-888.444145294281,-1054.38940018157,-624.360931529313,-1321.76772936182,-308.346478366613,-1086.30272698521,-651.178571359385,-809.084140682135,-883.003992733983,-758.351995612262,-765.46810316004,-739.602240255364,-624.746275446346,-726.996902874732,-669.429665896874,-677.957281821598,-714.387676199411,-670.750023427202,-541.095634481865,-632.623858316013,-714.532001661953,-729.522300224125,-660.646615874473,-557.141570351429,-735.905916752608,-796.396679746553,-758.431712415836,-638.331441853635,-859.622073089017,-782.765754398831,-568.637724274533,300.399284284626,-616.042609145041,395.02822014146,-8.85609186847402,-1322.96199818709,324.161954169427,-1004.60736015213,-123.074078236894,-495.869830014833,-1853.05910619122,-1969.38990887581,-1168.64641509654,-2486.36050215711,-2123.39613910657,-2381.44057288324,-3072.17067168574,-981.324285694646,-1450.9868503081,-1090.1839328998
-746.200703274889,-514.51053820815,-689.590981956688,-629.827309316757,-538.239421878543,-567.608857243196,-552.614658829973,-490.914196574566,-610.760044881314,-441.154170442607,-544.746592685618,-665.339136334415,-540.795436002588,-145.136915845994,-947.729014694017,-769.592264899326,-579.59702406467,-1252.5396189382,-600.584146612457,-1074.1947798467,-795.294579551296,-891.303879466364,-943.221664488963,-914.84147519579,-797.474836613126,-805.34486243419,-637.587061263726,-782.72361633315,-725.793439404208,-691.321148687205,-746.07466530361,-706.735801686141,-594.599740722888,-635.801624042771,-728.011968322963,-752.11591892839,-697.597492916341,-612.613855142123,-738.98584962965,-819.409816430093,-789.8416730977,-677.83478261355,-891.04563059017,-817.266856292128,-605.429908212689,471.848428716791,-1703.26302594522,443.536996691581,-412.763226910959,-1706.95245080767,256.076532737305,-1161.40096500903,-421.577035789994,-1347.27906106976,-2399.45559073143,-2104.50269978437,-2077.41362732513,-2828.14167675398,-2511.70030206872,-3175.42464726978,-2864.18014640027,-1050.7583927487,-1668.92463643574,-990.558379653639
-748.429886613729,-465.618759183811,-760.287584744246,-602.07866754788,-485.218900692803,-670.134167393939,-628.842388805808,-480.786593211822,-741.65861647136,-551.020217986064,-495.541145439504,-830.502983563467,-743.513718226767,-412.661684021545,-916.142161371913,-688.849152821702,-532.725651680701,-1045.18850390237,-748.566600266368,-992.561320071355,-831.550363871296,-873.566716809249,-905.603492476301,-935.745726131777,-771.129475084201,-789.746500453394,-615.818426052163,-764.095834855169,-713.134030463327,-668.391790045894,-716.317679696204,-667.927208759549,-571.02329474059,-611.37099058989,-692.021459571371,-710.656616431394,-652.531692597147,-577.656985912622,-705.741008195845,-782.149675511133,-744.250076253533,-633.656520710416,-855.974983016844,-770.756029709558,-549.8350950597,763.02717139022,-2263.26239356649,232.445136941385,-752.896848097612,-1572.99743785967,106.982425423545,-967.565297642994,-702.85110972806,-2301.96897931483,-2571.77150693259,-1955.75953827217,-2597.97924266824,-2531.35137830328,-2659.69038933118,-3408.32089331175,-2168.3468205719,-1046.38559698196,-1718.89928445821,-850.302468811042
-748.461414901571,-505.52000317031,-814.240049772881,-607.509098227751,-539.057827324011,-758.631261287791,-735.750236911461,-567.770437696752,-836.80429875714,-710.663073287037,-575.088319650351,-940.09265622213,-963.27980517823,-744.510634812237,-886.159685519074,-755.935473170859,-597.738252604036,-939.500398199879,-913.445552177939,-994.078411687251,-868.320139496929,-773.553857322972,-863.439465853201,-937.744773228898,-755.899623349904,-785.661981352313,-590.682631036343,-727.210071164164,-711.908048542087,-652.262663336515,-694.252460464412,-661.326559598659,-590.432255234265,-585.609736623745,-660.654708456133,-684.34904733792,-630.192600360269,-573.813001617352,-666.453453279369,-733.703574975357,-697.538077005822,-600.133316293996,-793.842890442553,-706.205066308991,-503.031914859719,1182.63110737889,-1617.97763516451,220.462572477727,-286.833023862385,-735.30933275461,304.302981802888,-221.439135716048,-570.474016994249,-2405.56855795049,-1863.26201165617,-1297.63596533574,-1858.07154627609,-1422.90962732433,-2515.86670845436,-2433.77835039114,-1259.93538128128,-915.344180157697,-1468.37195907758,-686.271323057008
-680.413585097,-541.977366146441,-752.710673037372,-583.698043828497,-619.651091191408,-753.50002258721,-789.737286230097,-680.353461665913,-842.459571021068,-838.251218672251,-744.948848649902,-961.193503871162,-1125.34874361874,-1022.70442293532,-927.830269526423,-849.95955307705,-748.382271917875,-973.300864524265,-1130.51086253856,-1005.79996731417,-922.392003273479,-614.185578410998,-812.129230712016,-941.751719632692,-714.23927128529,-777.45109890553,-539.50540870244,-661.664188450609,-706.386527079511,-603.318939547508,-663.546664031903,-671.600656993251,-653.299997682071,-522.805290409979,-604.168845523191,-653.842458918787,-634.191535912723,-618.877451201311,-580.42965505953,-654.60665964032,-653.588278965689,-596.671181723417,-699.095638112656,-641.409468376245,-509.470327165998,1462.76367784532,-342.877724285575,533.031676602971,802.639377963953,322.321459380276,724.980164816519,874.362351804795,-101.988285609428,-1282.52800713567,-315.323937639004,-259.353535082933,-186.520023539325,-110.28439973464,-1994.54297657657,-674.498169435091,-514.178517670575,-691.956526833782,-938.584302723237,-572.040846569717
-534.486587511375,-487.571641206361,-592.528869495485,-494.249312024557,-609.655852199169,-653.820537064399,-740.637036707343,-703.575634006136,-781.836571771135,-867.413498007518,-847.740040221531,-912.045313090644,-1174.5971152404,-1141.12460478472,-958.383338107422,-875.731706875242,-851.196602274367,-933.580028878049,-1240.1857049514,-875.729355765968,-887.69338526096,-448.46644449123,-698.83589140815,-867.435062738247,-591.512953125768,-693.992780112753,-445.392534460289,-544.694594288071,-640.171028514017,-485.681907169559,-573.117499177149,-618.587986566711,-657.734272110815,-399.065486155481,-486.015147327863,-564.928019880358,-589.448750057182,-619.085419450495,-429.612339712177,-520.234681264931,-567.935419099562,-564.634699275817,-556.303199624162,-555.777266042559,-507.569855256282,1316.19754857731,537.067838298581,664.628292354388,1552.65046464373,877.430381281371,898.339598241922,1673.54708974698,208.107378062647,205.536065840296,906.094137393543,503.33873420009,1058.92160862151,295.966236925524,-1036.50277900909,556.309239998575,-168.131626594089,-433.03492457692,-355.924660763861,-540.194707762368
-351.652613800839,-327.943416255236,-414.037709295989,-351.58078625468,-465.217646555051,-497.363376808476,-589.12819223644,-579.244742708513,-678.615242021227,-760.447688341485,-767.197143361818,-798.809722624574,-1084.98266317761,-1065.34993131915,-862.577952900327,-774.346005945693,-786.769727885081,-739.484691104344,-1120.97660488176,-620.097597852296,-704.878607640902,-315.837673753803,-512.619670525275,-671.719698194536,-399.909994015729,-515.061473353878,-306.286595623063,-383.659526766292,-492.844584072565,-311.237883017917,-406.313537445264,-468.422276351252,-532.149975263455,-233.85308362352,-313.608177502211,-403.609750623884,-448.393882831371,-495.346128150605,-240.889628852991,-333.413414437558,-407.595089295222,-441.667965306978,-356.838221321992,-413.044274292643,-408.836559598956,863.726077839554,554.423801694684,248.965147072107,1307.92730831184,613.661154426447,702.333394754063,1537.8856841322,174.078890601199,762.771988964441,732.998749757249,527.211259870735,1015.86229955717,-332.331773904112,53.6129350891106,478.73356897276,30.5661806073948,-138.532578969379,14.5693370671276,-457.335085630252
-121.647210351539,-63.4183568169716,-219.538034695532,-139.672150696579,-194.507396662672,-272.218228835801,-338.033700761649,-323.151584427456,-492.841423926409,-519.251016110572,-520.630363415372,-582.401371093716,-868.188215185086,-845.620164206712,-636.373309181914,-577.314657392059,-544.946866286264,-533.897401706318,-855.206548057898,-371.221732708741,-446.819606903384,-198.431416158915,-280.888426353552,-408.284092310812,-171.381620620018,-274.157452238407,-115.193880042961,-188.479360639443,-278.160166368113,-91.0808160405322,-170.796043780484,-234.172930748548,-297.225238660937,-28.2316802131456,-86.3348484758993,-169.842869272892,-216.620729962974,-261.691931348154,-5.72073235860321,-79.3292546142221,-157.08158047568,-214.261745503489,-66.9808805673118,-172.553812448195,-192.166081029135,417.666707043851,-243.21111351683,-495.953211799473,69.6777061097182,-213.061277089357,306.472087758368,313.94858235348,-27.978346989217,-2.54397707647446,-529.314496642993,78.1234560358199,-16.2715455421579,-882.850919060762,848.478618792576,-342.689009629251,526.959339692285,307.36315229001,216.308069129383,-130.54537380808
210.449560867016,313.119089370339,56.1461831645833,185.503650738047,182.872611138785,65.0323524885932,21.3615106148045,26.9206308597751,-165.050447970552,-172.016763619253,-194.228316323439,-228.03590325269,-526.090212027741,-534.280647783804,-300.922899800311,-317.48870788869,-219.698701595933,-352.340540178351,-576.077231491293,-156.968381828714,-182.482979158108,-27.906870616433,-7.78133949193334,-120.687853229534,103.328907090955,16.9392938803681,134.636237902171,67.1725116309598,3.87222234692569,195.127419167194,147.023404384312,92.1212565153344,25.1805678016215,249.755471795335,229.14425262751,165.548162122058,112.759944097745,63.1148518458012,320.528549489337,284.891139441442,210.970887380102,127.072222031379,363.539990955577,212.366923713941,147.444046650437,-3.64303573207179,-1381.97679247644,-1323.95455691195,-1807.28184186702,-1049.75300275585,-320.155975913228,-1581.68509833817,-430.874908154264,-1349.13609202442,-1826.07955853027,-190.537691077891,-1131.20703024907,-594.414015774102,1429.43583033233,-648.984597072419,1382.37040680293,1071.82704855601,621.779603785091,485.121896701052
629.143940164073,748.071459860217,421.753401372066,594.118324016189,606.891437527175,485.7505072279,445.554496181297,413.413756596811,277.291101919456,229.490183675489,139.458428807798,209.668273764169,-81.5565944263175,-148.820365503784,111.825079929402,8.08189897640239,77.9939913269721,-91.6683661235885,-314.917789441179,80.2529428172051,73.9666485922003,229.499459036816,299.210472794164,188.776037148992,416.012849083017,348.874320275669,420.590915320294,397.046966020133,341.803223533423,536.156728144375,532.597204601404,494.365289100453,418.458747135366,583.155310787693,618.851975721322,588.728195001439,527.202429326215,469.384763668132,716.557918922986,741.970274733342,677.609773057872,569.019541580065,907.353335725107,726.662814789691,600.973262840713,-529.672070157895,-1918.20442500972,-2240.11762672587,-3494.56622731368,-1248.80341037159,-1270.78230073724,-3112.27423945399,-1087.59265179856,-2238.84332264513,-2441.80175387831,258.782754795942,-1497.91212941616,224.294678733212,2219.92161747724,280.066692717635,2289.13839344852,2135.45446662313,1435.71935040609,1248.68216426067
1014.81178881954,1092.13278512004,781.259995085852,941.291597136143,938.582352391966,845.494229868364,796.797985927508,711.858439224593,675.779031114557,574.173933671617,400.264595532057,564.006503968514,316.905419466721,224.7095542779,402.323309845655,279.712678364566,241.822925675434,171.634755555585,-131.95797063384,263.893083196371,213.552804579936,456.750950584513,527.430833456798,423.317837751171,648.818410038862,605.671121828589,647.422492797167,691.75097222309,620.715969419207,813.228607643193,846.292381867291,823.050409285256,742.227048155998,851.29134875266,943.708970156915,943.906612504489,878.66651470901,815.492016199192,1042.48698348817,1132.52001903683,1077.96435207682,955.591471260324,1381.59253819646,1188.53352606426,1004.0911271773,-1055.99386808154,-1266.43408656995,-3009.21549833501,-3799.74397318532,-317.876252801747,-2178.45589668794,-2938.93416956584,-1543.58010996195,-2111.01967271964,-1989.85822212248,1481.14504963343,-942.316956849687,1135.83209956181,3263.9587851808,2002.37635243645,2991.27426018822,3162.03011501341,2387.22914472861,1945.18026428064
1251.892726705,1220.77716616107,1018.31212050339,1101.10812233883,1048.28624062219,998.209164669008,947.41825288557,809.729747735917,861.46777890248,740.426007763976,508.7348836345,678.545000428805,483.665838636153,429.223758825219,304.329093140068,267.364558871905,156.669555100292,158.436207424799,-182.161806608896,197.807794933839,58.973903749272,459.184391641448,514.401363051366,420.967846617213,653.613893412616,629.290794845095,689.702388807285,781.321485289657,688.841839968968,881.318404605367,921.282502943139,903.144517376676,817.422477228821,924.672215864343,1041.4465551185,1051.01478873156,983.954131194849,911.49428225906,1148.54870429325,1272.04451886698,1222.67573318256,1088.38316200825,1582.36613976449,1382.55883192131,1144.57546134601,-1491.00797976445,172.957109600832,-3153.59526158857,-2312.60278358704,1456.27202379197,-2363.8328486797,-864.2273541729,-1337.71941160098,-1071.02772568718,-398.423282185371,2789.28015811551,-49.8350180371577,2088.02116489397,4133.6425764587,3502.49443873947,3515.0407880256,3797.16126021489,3075.83884574157,2469.10593818751
1279.40019107075,1123.11015157408,1064.10678980307,1049.46671563409,910.508940477231,917.715673236255,875.939541425851,698.422387876921,787.042734147731,675.895137946601,427.403274651839,544.733803336213,369.563095722338,366.490911014054,-158.397902964793,-116.300634369364,-194.405385020728,-299.652516023503,-558.236560335449,-166.083387619459,-403.150155795893,201.587144507866,231.331276968233,157.571029767627,423.144558066234,404.493188430493,519.390759925365,630.725298880763,530.540974514434,726.269373873735,751.905066613841,731.800857115,637.376328952091,798.698743209449,897.98821889943,902.053831791069,831.847562365403,748.723732075536,1021.00424632133,1143.36126323501,1103.81242503055,955.514236945434,1491.30180639359,1294.07975259412,1017.62419815803,-2102.43751041833,1655.97121059559,-2556.01212195927,-114.793712519014,2913.7353940101,-1699.31011221196,1338.76174394818,-682.085892211096,259.546499906693,1447.9597570836,3317.25660149522,573.030338077477,2902.48533332808,4444.03998331032,4153.23109669111,3958.42315528377,3990.17694127086,3326.82852718475,2848.88143377017
1065.44931430854,828.437802062649,893.165532035133,790.857752396806,574.366657960443,661.927847350327,618.035860051732,414.998339670143,508.057992098724,392.152586845289,155.846465215341,263.00068605959,48.9079869278132,33.9130002624098,-624.031894086498,-674.931095453712,-643.440194534258,-979.695315961877,-1208.7405660478,-607.202632047685,-975.041914015742,-137.329532365088,-183.282648435112,-250.598440924047,84.2571589104599,43.2366043254261,227.872399327342,334.668463008513,236.137844901727,442.175730685808,445.243939079314,411.050259533316,303.973856474889,555.416986784907,609.833962107587,599.231211578793,521.272551923595,429.35436808488,750.003070760875,848.914374537306,815.963213040951,659.72621659612,1207.18383148116,1023.55549128412,725.670097065049,-2998.228523683,2636.69974070185,-1542.05978422467,1256.62142025727,3215.1523733864,-910.756859574646,1927.05486202069,-56.124645782307,1137.21449244011,2265.11709738539,3067.09256689765,940.853519420502,3174.18756760395,4181.96746962687,3972.06223861382,4136.37069574713,3821.25314638667,3134.45921330338,3015.08328578855
665.045679621077,394.952849492885,551.139855412979,378.016667425197,146.35392797626,306.158046567305,238.380164472226,25.9700050900472,125.66623354224,-24.6046288953337,-222.457334408197,-73.6426635323072,-355.910684490917,-477.866631762001,-760.788731572566,-1094.76138025837,-938.564964475895,-1381.63427014614,-1893.40964891112,-835.251354461024,-1396.96916129154,-380.50134349109,-556.954966510273,-678.924364730737,-248.310055852886,-347.609285629535,-80.9829263951328,-24.0237613667202,-131.438396039755,97.4177623066469,63.7054341715808,-3.54990136376177,-127.354435246456,238.131140900853,236.183027690244,195.840064257151,103.102719629775,-1.89803643412614,391.32197269648,438.152960477979,388.847121557642,231.262116550246,751.21394388206,583.462852483176,280.080794977,-3549.75248047041,2887.34643820877,-574.2085076115,1364.95871472185,2759.75175934242,-670.965329526411,1323.40848542639,400.925500397297,1328.63109672275,2032.78894767364,2674.15234849411,1337.24389651338,2884.31653047191,3594.88111926817,3388.68639424417,3790.49032873603,3265.83495115543,2611.00515273736,2812.31451469918
237.994731960637,-32.8805648711045,173.227877771281,-31.6314548000602,-219.54196181716,-47.3011215861862,-135.732311859662,-325.275540063839,-229.739397895961,-404.115510229324,-529.01668251381,-388.863721392225,-687.997243234074,-970.230430967254,-567.868550785649,-1264.27136925392,-890.228930048159,-1332.05643986644,-2219.87188523541,-777.056611224597,-1512.84591565565,-515.009041703847,-791.354831864508,-1018.88628184087,-518.475093417918,-680.595328423834,-344.358526784168,-378.494634674541,-511.872283859857,-261.915727569736,-347.498986992024,-446.935027592194,-588.157594346395,-127.963859607573,-180.896357072629,-256.529955398044,-367.846075110197,-482.696538216135,-30.075559295061,-61.7036765827321,-136.859019910064,-292.632106709111,133.951871026365,-13.2447254325602,-281.500038345783,-3071.86181975103,2685.23912728351,-61.6099411580039,1018.58062670682,2321.49788390562,-815.691876107678,882.387958472574,728.982277087458,1209.37133764985,1733.93395075435,2237.74654712424,1629.07637701507,2459.78466713792,2887.17606443236,2834.78299067292,3080.29857933316,2361.22934738252,1983.56856432446,2301.01812825833
-58.9811295015997,-300.252739088392,-90.0690737256044,-281.905985299413,-413.773724388046,-275.116343213535,-360.859071579467,-504.981753615378,-431.601158358451,-600.264877293129,-649.130834059399,-573.531809518456,-808.822438002115,-1242.9550940844,-295.136866382006,-1328.32540574319,-484.906773028094,-1201.14057100939,-2020.47099394223,-604.554370353893,-1380.43013627763,-574.412478824307,-861.615275498801,-1183.30586354862,-667.527911125207,-864.347337871125,-503.134381030266,-625.987545940796,-785.272843990482,-529.046535344602,-661.643832865184,-771.243024059687,-924.561376451177,-430.052364188065,-515.566971392414,-613.048283759131,-742.978756989391,-849.023528406053,-400.601977269051,-505.307934799006,-590.140784126947,-733.92655748578,-452.731126736912,-573.279967843751,-760.425763564247,-1916.0289896601,2362.37515752988,-190.510000173704,911.47369879055,1953.22255651609,-912.708004738943,853.914142026375,779.178158008393,1069.37675586157,1675.33863453429,1485.99522868339,1467.19475691351,2149.73962521781,2100.46769148417,2379.79833473404,2370.00605059568,1380.01060941602,1416.05967457683,1722.54689768926
-162.321484842647,-364.953612953491,-171.657105205688,-337.925642699779,-438.103700195408,-312.700704292254,-390.526835521055,-512.304253739666,-431.65704670816,-609.508031947017,-640.774786523278,-541.096984233292,-711.725884781721,-1252.71909796559,-148.201931999881,-1370.98815416876,15.406479734359,-1277.88314523773,-1560.65704065355,-503.155413777387,-1158.70185000899,-511.622383464579,-784.382206340531,-1143.42767835906,-645.680610471358,-851.001569483252,-509.632476638922,-683.897031194088,-846.867462928336,-593.56591154795,-747.229803406394,-854.700467581457,-1008.46091891596,-526.262520974983,-630.040153861693,-733.991272894385,-873.454015651461,-958.81109446038,-558.778319132187,-700.090123391203,-780.03274381039,-899.189026972958,-743.06419213483,-840.52778228321,-951.971518905327,-1102.40084996903,1832.89896471855,-755.655054614052,820.00470580436,1373.0775981932,-986.86444175854,802.185880955729,398.361989948839,885.148063568895,1555.32315061194,763.162218554956,1049.49201304611,1866.78073270297,1319.76175488178,1927.51755958399,1742.88910519371,639.132056055032,942.736052829248,1210.02139867735
-136.475911339635,-309.557105671757,-132.94395808065,-284.913002628757,-381.931746397768,-229.564824339156,-316.353166407463,-450.596898597726,-317.426902446702,-549.187588548723,-627.343100794388,-357.409633297911,-546.175798663077,-1120.39219691137,-132.638213261598,-1204.47379274287,214.801057796093,-1365.44921113983,-1134.14639636895,-485.095752193333,-887.646208196089,-323.904119032423,-615.449944249861,-929.490492395156,-494.391567984085,-684.937654732862,-393.042011663736,-575.399612714163,-714.017522458644,-479.47871388939,-626.776025334014,-730.802744078055,-866.648830442159,-425.894240260354,-539.162906775514,-641.426027188116,-766.02414947774,-833.641647904253,-494.576158703937,-630.601198232323,-701.317826814487,-797.138024376485,-710.213232436281,-785.497223624306,-861.683071316745,-914.986780736244,1053.48372039178,-1156.98833914411,413.101527881793,688.592667398683,-1071.9453000446,674.03165418303,-125.656958327145,783.842484007269,1395.25693617273,563.636384083049,941.108080677558,1503.40554020483,756.607325722728,1525.49290717899,1096.05429281613,202.273223855093,584.78037462628,746.940697213704
-122.191928040789,-255.78110750512,-110.778660867294,-245.206213568919,-338.624716140821,-172.746759909828,-269.592106897394,-403.627018496004,-238.131931941957,-522.916331837986,-640.221334892503,-209.789502299107,-452.761178990764,-978.983411649518,-135.736241421116,-663.469552418044,-0.579358212735457,-1134.95014292819,-745.38267442657,-407.28620180981,-529.83153664409,-128.960189093636,-415.987063146863,-618.266727025845,-313.533278841316,-465.629261418822,-244.144159768513,-402.697642168,-500.489784948116,-319.517809143543,-445.844516048406,-535.050959363667,-636.087315867112,-282.459520027887,-388.524780877252,-481.080849603247,-563.80762772064,-614.825713588116,-365.021761518604,-472.265916785581,-529.414337743653,-607.042569683918,-577.583824450009,-616.218773596553,-663.932614906985,-762.670645699335,377.706252168517,-933.009490605462,-44.9877586765822,195.829086448963,-860.711721710622,632.26313595289,-284.784822312389,888.02116724356,1248.62293419118,581.81656197404,1129.84463573694,994.347850619761,427.793049553752,1148.89783986457,390.249677068696,-109.054603229821,319.258086319951,300.06947297014
-166.683828607789,-236.093277844611,-158.88163051347,-246.903549750362,-298.507761264635,-194.012403246731,-269.583370686058,-352.378931694347,-231.703582604211,-502.832105664491,-587.20061923283,-188.28843324014,-391.180893476561,-818.666982303998,-61.715433121777,33.1551842187223,-287.670511047941,-480.253855002422,-289.651086252374,-116.023637894126,-90.5093979928538,30.2327028476949,-165.423718495614,-274.930659062724,-121.478407214778,-227.716839988475,-103.769848584329,-214.503066029559,-269.604073227216,-177.297470205318,-270.725199541421,-328.290665672708,-391.990607178649,-180.442615412097,-254.840355595033,-323.332199478563,-350.576637385741,-381.569679519668,-265.328715845368,-340.794001540667,-374.895281433796,-421.812745917251,-484.145721989653,-466.526843788583,-457.496642459674,-344.375884697002,167.739935098799,-333.212793138955,-145.691264658685,1.9689730415997,-346.518774327481,706.145065127362,-43.7983754185431,894.191760448622,934.03194700882,343.439523950826,1079.24554742071,329.64488156207,44.6779957831805,623.499946598148,-290.739497669009,-393.810707797475,46.1705062766147,-74.7060594733894
-154.453662933971,-153.523913096627,-165.658428643362,-179.43335449636,-151.180317436784,-186.401293928732,-203.089811666834,-200.253472363157,-187.008387023608,-359.851770373995,-359.271030040455,-194.410674713844,-211.424644957042,-501.361934270467,62.4421843321134,549.696802578472,-266.018378042956,495.381830210502,299.187511159797,415.988836306069,467.688841222247,269.674012647427,234.280939070336,133.10549745375,158.075752163434,103.69190007399,72.8280985556613,46.1860635595029,32.2241983710859,6.9270445772523,-27.2853435875256,-44.6430231601124,-77.5666281688732,-57.4334256097431,-72.6997856778925,-95.2040780500877,-64.8562428622189,-74.1753001917922,-127.667137620846,-162.711277942353,-158.894266647783,-156.918581311695,-329.268561734653,-245.932919563854,-171.476549757914,39.9678922701606,419.288102275404,131.320426348779,152.711317615828,86.4710825543966,30.3224278907716,884.720543449171,180.129867329295,568.384905791409,576.116186877323,90.7066629917064,679.498408951962,-209.131019928297,-542.793764496339,30.1604757785491,-698.789531062191,-534.049265647701,-224.654197403474,-227.275347743288
9.17748010725815,65.7326412719295,-20.7491939247258,41.4747500608967,144.968963561554,-55.0533768678037,8.84216594479105,94.6970330625325,-18.2907698454663,-40.0238148238784,30.6747900277979,-115.839467229909,124.516908374398,32.8569851260785,108.707608042372,876.576654171573,10.6759908921778,1533.4864116251,1028.80250135637,1041.56987734448,1177.55069887966,626.60412039473,778.581242336639,653.718261950178,528.653174304902,555.404672473433,302.028914767019,399.843648923698,434.900001503644,262.735262558528,315.568829427103,346.090745980756,343.936858371756,132.048796752918,198.503289403063,242.37201014272,326.205924295713,339.685619199482,98.5368924410182,129.658666515122,180.603572883993,231.163014324171,-23.0290025199995,118.861021831949,234.51979087694,213.900240132776,819.693574791707,435.48287113705,602.721132034762,313.958679462948,103.038219484152,1097.49359504071,178.967570874155,238.296584837686,565.847082440935,185.963263664679,348.201281638984,-192.394365595881,-1081.81698478609,-328.094234994988,-616.271959938842,-471.63585525937,-346.007051197763,-104.248260557115
250.147061415901,347.758545758091,217.743766096334,338.454248075092,481.424742226493,140.956789597331,299.552129289599,450.955506742805,221.629362652058,357.172081783644,458.362415029711,36.945361000857,511.646936993949,638.805153738866,106.748443292398,1201.64935293419,304.273058597295,2343.15326722736,1752.47487540763,1542.34875093452,1880.96243019182,938.170129708737,1275.30159348288,1196.69018752426,854.426074769588,988.553240349514,507.400518139202,728.352748439412,828.239524658556,500.478339315809,640.681252641683,726.56135801603,759.202727007543,316.33766831312,460.561440891398,575.274960931681,698.34538394696,734.239208502045,323.347272395805,432.390923875291,523.290490658249,606.638444204665,311.91673155852,490.940952691366,621.429136897398,378.908884501738,1028.84592382953,822.566962163207,951.139667897243,373.885148309823,142.904266838113,1136.12311240532,126.664558030148,236.8624123785,852.471922809554,366.266068224194,258.463118785504,324.087453522694,-1312.30975877299,-445.08248021478,-195.235036457662,-359.994013781066,-292.951841756866,112.718923898547
452.800581426387,583.775277572224,434.159282772945,596.782301187762,758.213322168559,308.327301479367,571.78736238308,778.13841768172,450.471870803486,724.863697223228,845.657899487092,213.41410355603,862.000489362934,1132.92453133097,310.415802017727,1592.96156129,680.067483521133,2861.91454065074,2294.87322456676,1823.67688604577,2369.9427564071,1067.88590996462,1549.5522756267,1600.18378108812,1022.28003841324,1245.63768088351,619.311157502528,905.00061278561,1075.00992233252,627.171790873936,825.004905127106,952.953461664891,1013.29202335707,411.748115626624,601.056699451268,769.10079684945,908.545757738137,961.403326788116,441.978418174128,605.228515353727,718.10141286869,816.565211681853,502.782127779423,692.900351014274,826.809097541059,706.94311777962,868.856227945277,1266.1309235591,1078.89004869592,76.7644677766077,314.539006236198,865.875379883832,147.890303308732,350.354938738182,924.184821702103,218.091251413565,102.430800770622,728.997220429522,-1386.48568310284,-566.984392151712,146.168847203455,-290.184102938375,-221.272085613871,217.684445313102
597.50314025022,750.154980948617,600.275071552864,793.793313645286,985.977081396408,444.417393276369,797.022940910078,1055.94095613673,637.585895807676,1038.90401887563,1196.84787302516,381.713421051606,1108.24804078993,1475.10945879804,769.560930932228,1914.83196617562,1263.47391731944,3138.80778342544,2707.79694380177,1936.23715807931,2635.2592886756,1070.05249564529,1610.39578116085,1789.05586873972,1052.21657697671,1309.7017134516,652.093259641773,928.297584986246,1141.41678249687,645.698341427871,858.851853524028,990.560688211483,1055.10824162097,421.123015691197,618.270076225629,802.888418607205,933.484586317119,990.43318197311,452.773266848252,630.433760708652,742.670801737511,840.600161225054,525.926851768131,704.401613461206,831.723133216879,1083.98375030826,329.591353015504,1566.63585145536,971.156610806589,-331.534012667823,487.484497819214,419.373689457745,144.356805448733,252.740068920636,578.908397399573,-175.374186827961,-326.848405774041,637.189443264294,-1599.93284238025,-702.557827616125,177.616240688208,-126.432114765207,-226.468134801461,229.164183151833
685.38460023136,843.571029546789,707.231452255006,920.325689447182,1162.72402361786,550.036061023532,943.645261309263,1247.61146236343,741.548453264909,1258.83917010312,1466.8118387417,473.540911646721,1140.86689881254,1675.55830744446,1120.63420293182,1954.69742928263,1774.41571650449,3032.63947961343,3091.91088012798,1888.15108693486,2755.38949278998,1038.34404712637,1552.96832983912,1790.30450770659,1008.90104413443,1254.88740014798,651.646177950598,871.520904947193,1073.286946168,610.44190584542,798.043729620493,895.734195444097,936.803771277541,400.474386336453,573.748036278575,732.263566822194,827.309152584938,870.742415529855,410.898466051283,567.780727547094,656.348849961366,739.749250140604,459.706814104527,608.226532633645,705.673352313095,1285.76066529754,-403.52828524245,1670.14714833491,742.265925526033,-447.193093410632,591.753392406287,55.3527812723151,111.996810407303,61.8907959490091,206.526836307689,-485.392183248517,-728.874639307445,279.391442081865,-1844.40812031865,-692.429798498328,-3.63148363024671,226.841299802105,-262.078233504704,283.12188528548
662.657689973571,813.96246390157,697.047370393254,912.105910750204,1187.8414817171,564.143855250467,944.434772394556,1264.01685539348,719.9929866633,1297.46910174917,1533.51063215116,446.340185022904,972.591125643181,1669.07818449927,1136.45557825031,1780.40841492313,1808.37247075934,2573.94833583953,3289.63004583601,1644.85516019879,2662.91439134985,957.551697973607,1431.61846506165,1659.78898310652,913.905262874547,1132.65029126617,625.905610076199,781.802412658838,928.035024261484,551.21643295689,685.563811928559,735.752444390258,742.023707139008,375.084410683491,500.258887441407,603.877966784324,647.563150149919,663.108024898782,346.200108517298,455.179135188756,509.419521194841,565.54847545565,348.419622976115,458.697096981967,506.236656346409,1221.62368271447,-890.982045117612,1642.05312702736,672.456846544506,-247.565418204592,752.81330664935,-44.6690702369922,220.590455799675,90.9401136601296,143.585867571484,-624.968036876603,-706.319599174038,-62.7641100929792,-1751.86190304354,-634.210424456897,-278.447980965577,534.231581730818,-317.960396787137,349.461934530002
490.194892898688,608.118617459463,542.384727423423,721.683313407171,957.710398312636,459.181271867158,779.140822699156,1053.733475817,608.471266754271,1129.71755626301,1322.43368435152,396.560075964056,797.129569564975,1421.10027699286,1132.92484448642,1783.72923518055,1447.96930458943,2253.10803727926,3127.60727889051,1343.36183590814,2274.65806279085,817.244789793023,1255.87381554414,1454.30017716577,775.665196049877,952.671046581342,553.306245900361,663.999168740175,741.84443556959,460.635154360952,531.683283272821,539.470542178973,518.836364222472,318.118857425203,387.994163340388,430.168149619033,429.904856263813,406.646896454766,251.255755270567,296.729572893299,318.305686071507,337.439140530837,180.965332771353,258.816600520263,258.755214493938,909.208585998884,-725.46644695144,1523.2377683769,940.173523580105,-43.9875999521345,983.320809926921,141.365161540258,429.472848672935,329.686492864175,188.927314712644,-721.393768619294,-344.010834120652,-492.643838152025,-1326.02946830558,-743.424815639785,-708.102354754816,378.872798883673,-469.488512846984,194.373610385812
216.510098374163,242.736224119667,310.109611842857,391.391045013334,493.868075588586,306.692904029494,519.704381323476,675.748616384183,492.323153717252,852.810644625587,902.220613976482,449.111199024971,730.567678335473,1068.94283983542,1432.72813047451,2133.20823996736,1181.13418678266,2343.47351268698,2753.67207702653,1198.91500480248,1818.99753004212,714.606616335938,1053.43543787567,1270.4952091505,640.427653597719,756.418565517065,449.174257293388,534.125817428424,547.806621663518,349.734531322743,359.150435866807,328.341245804642,285.054731877706,226.999798059667,247.087024246368,236.359762356955,204.440954783112,134.516384583702,137.509191010772,120.875077864208,105.817043660698,84.7866249362572,-20.2942797446458,28.5237587966556,-10.5262930723297,385.266494438362,-80.7145829024336,1378.92643344799,1312.63854662528,32.2238770427934,1088.06683319604,415.334394115086,413.133262825336,445.777857722537,-33.5651681254739,-862.739578721145,-58.6783650564179,-1103.86766267852,-961.621080536799,-900.763419019003,-1268.11762414607,-341.701868533525,-700.722110401998,-314.033045392986
-40.7977771541362,-142.454727280458,109.800324858189,56.8325835644648,-3.92066549521415,197.250442275181,280.120720328211,299.546031166797,411.278453659412,608.226495562324,491.711870874953,570.34735631475,692.621048684782,815.058546522581,1815.84394686404,2516.76513029249,1204.18003058091,2496.0242489444,2368.57995470608,1192.92458864862,1619.03893111869,704.546358482308,903.748066361614,1181.73985038463,562.282588485619,629.950138834114,373.751457038065,439.637722467886,405.1928443815,272.07694973086,234.354459000455,171.588428808731,100.12813835239,161.829353568192,144.016276500079,95.9673588289491,35.409540690672,-71.4123958132594,61.8285104293769,2.61698216892189,-54.5216605567729,-107.963150227659,-163.761330475597,-151.302178457667,-227.261686801742,-180.082499301395,342.680612042997,1285.65522970921,1345.62082772309,74.7588997222501,925.85724500881,481.684039566699,-0.165103733507204,202.436117572485,-527.122189839215,-954.83058946742,-41.2633643987243,-1535.31872599129,-870.969293831587,-806.547827438754,-1593.77331759949,-1172.91254032322,-860.29286167514,-935.452707810108
-196.851083504649,-362.382814691031,-17.9383502549667,-150.2081683485,-274.945666888878,121.587857369305,104.777679398117,78.1792433147127,313.229640927025,424.345473268264,303.742499232221,604.956894897434,563.800843903676,678.235519723405,1852.47011407942,2527.98685171783,1202.56312867214,2325.63072456349,1897.37095007635,1127.21414979393,1539.44186400111,683.687608831164,833.742356613538,1092.22931678619,521.397326890894,579.28838020988,343.249182597163,390.258654981058,344.837827212491,247.773969376449,194.16692608978,126.578881437424,42.1616220645209,151.890965358309,121.071199376768,59.1425837835479,-16.84879178605,-127.690559028408,52.9119645322237,-18.2582578390001,-99.6219115262172,-164.519972674536,-189.47576132711,-209.340469227208,-308.907794233213,-456.905545822406,142.254180743223,1157.93525947701,900.097057674231,14.8412471586545,541.422492400173,253.372800614664,-554.888354270166,-264.63888499986,-887.144833543217,-828.666804445448,-153.036996776539,-1344.0620767203,-904.021610317553,-514.443866898534,-1347.88204673208,-1534.49961961913,-863.908216558447,-1257.45396393976
-293.058455753416,-407.575897684584,-145.579952510365,-263.383485634517,-296.249165199705,-7.91065724546032,-80.5643451350146,-47.9306381074015,125.625752516173,184.600987973701,280.919618263387,473.633683740014,330.281130339136,490.370551538387,1466.56081188194,2059.40172960614,902.546143745819,1848.9501479883,1250.93166069696,917.647528620204,1209.70886877795,542.743641340705,736.253264648113,845.133576439226,437.080863987327,500.762449638688,300.809509829872,329.259219097532,309.658486104976,223.082975145631,183.854261642428,145.701194362959,89.6537158912594,145.072641570278,127.965324682249,77.8380924143522,13.2389207323694,-70.6705980447887,67.1210620878498,9.26417204944494,-64.5725792601229,-120.55097314509,-139.675555364084,-174.980265773458,-269.971857425282,-260.228128219944,-352.67257443367,873.131569678266,269.00884174437,-316.809733533591,144.25067495028,-119.739824582503,-789.454046753105,-610.772859257675,-813.606711185709,-586.985515432919,-193.724618772997,-706.021595735192,-869.405172096702,-342.264879525749,-749.425291743828,-1364.34078850737,-786.85758239316,-1175.43766683671
-406.23480887757,-451.452163004696,-317.299859787136,-420.465202983167,-330.74175640648,-180.936404540094,-317.240898156282,-264.260536974486,-94.9111335681233,-159.15810751795,166.351471100899,288.556981445127,127.37248521711,193.363317210355,943.489962698205,1350.69163681396,449.47088088284,1283.99377471703,613.417931440287,647.664774980015,689.203120446648,334.546071818189,540.087371870593,494.685856138417,300.755869524863,357.93412778541,222.923609224609,236.716351628533,241.548315003018,170.142342835109,152.92877761694,149.899713655864,143.127806472496,116.429820547921,119.55268495922,90.9733517062273,45.8188521877725,-6.21553265150046,80.1616785744322,45.6588735877092,-11.6975294660607,-61.4998983066827,-58.8861127944385,-108.405900175263,-189.424801380095,164.852008877512,-695.67941802279,461.55016057098,-339.456558076662,-865.946007711097,-57.6630084320807,-557.159308126085,-536.317336693212,-629.384307736419,-523.145495623963,-553.574358574742,-16.1094737926117,-225.062675870757,-675.452287457367,-285.549232168261,-369.384223744539,-1041.13580620701,-688.232048702228,-943.229846851951
-480.07866840618,-551.152666293124,-411.027376991983,-589.690426624786,-510.842819351077,-232.945636875716,-466.96603190544,-536.415312122688,-159.607723962657,-424.440114580014,-71.1626255945214,269.733207095597,151.990506206825,-11.7203127696658,571.016118136582,753.045995561592,121.891770887345,793.534974176381,206.349252096365,421.226782976893,325.267231543229,204.783066974883,357.105071996032,267.401069613707,215.491187418528,261.282816339825,178.6726208619,190.082298628144,194.759636904121,161.410196542815,162.735183590141,169.99390728498,195.608715367752,135.623036663077,155.606042697124,143.715053548487,102.934394127362,70.1684428412539,153.303440908982,146.862096889395,96.9407104444646,34.9644300575695,109.690526884382,33.9666758802186,-59.6183795994507,347.384585097535,-930.330384693697,-155.054237555015,-1166.01287447026,-1467.59662406864,-167.498715333544,-1151.27790508006,-107.971616671339,-350.60604996162,-338.848217171047,-736.161773094271,409.138942653112,-107.943218095933,-233.555545779713,-44.2300750872075,-484.277936411625,-756.526800422503,-508.042828757267,-746.999075096147
-388.008394589319,-545.345933506767,-276.212136911069,-570.449196432282,-611.579895446112,-43.134426419579,-351.408834630663,-588.762453383555,52.4048356504728,-369.888275555805,-144.773408610751,537.374809146887,480.090601422303,116.376892309932,452.960090043254,462.295108023582,-4.08609150868084,457.810632291481,49.7959229415568,296.544778135332,195.921764210347,215.732270214819,315.709663345665,266.165047734702,259.254725669215,307.032801383441,232.768054213214,262.12788247712,266.794717747358,267.552247911242,296.229694687784,301.757314951414,347.308056439197,255.334439291512,304.452406586391,314.795810921628,280.549501084442,262.180172801493,332.415384371719,368.040011448986,336.299542639859,265.237114816558,428.441988640444,331.234840840813,206.179554064937,170.389634533307,-1170.51618984194,-1118.48174458763,-2243.29524484425,-1937.63564275262,-437.843060243657,-1862.78229854486,145.987948618728,95.3638483139024,-238.723377221939,-789.860583972215,837.088159560726,-164.135503351414,453.753626568501,321.772944221991,-890.231720385451,-380.431062811389,-220.618908998688,-528.223425005406
-147.994987970513,-349.283448186182,33.0414560191721,-316.078846943497,-439.586063971074,300.713439447285,0.659808783576098,-309.517371425957,445.450323374118,16.7682469815828,118.964556866226,970.467975077651,979.578085636861,582.784762267344,544.808202371952,459.606453814192,15.7755987684873,308.826253231559,87.4525389759636,293.63978743561,144.917653875019,296.070231932212,377.323283148019,379.683785646104,381.039586702022,446.145768776247,346.054241019876,411.816581043812,440.963385738548,431.831545748493,503.288582073401,530.298317536724,606.894609711764,408.665998830606,505.702534533302,557.939256295636,558.157749532295,566.040382778086,538.033312563518,632.105949395977,647.225722464659,600.690305335618,798.330301258716,709.299880251952,584.171138832563,-58.0830605041906,-1203.56947728914,-2081.1927079062,-2838.36458863672,-1967.73312186942,-785.083121136438,-2374.24161670979,145.947956590306,513.621766405866,-247.311099228276,-591.452993537598,853.02577582299,-396.51210477594,1116.1817306914,331.419863048083,-1167.07762185431,125.893319805398,43.8676672094158,-238.498781458435
49.3370581933926,-158.647783362731,278.866634569555,-56.3568626269908,-195.335329139845,574.078945958336,332.75367618813,37.0770660492054,764.246741393448,455.864383059698,483.455002461952,1267.3466173754,1361.00627076967,1093.17707366531,643.338457499724,531.029892367751,100.383755703933,238.937269600463,211.050360397847,306.456068979708,36.8152475929091,301.292465416419,378.095461837521,419.2975718209,428.275673281527,513.971083459342,388.405389507754,486.111093309462,553.843238386922,496.003845098183,609.506788963877,677.001106621953,787.007307852413,460.205154459994,596.000370853047,693.054221250493,737.948079428533,781.912701856727,612.685756644031,755.598782046482,824.828994577678,827.556463199822,985.859539396244,936.040367541095,855.607875549611,-204.097909566532,-1087.98487458242,-2427.37879510958,-2432.71683651419,-1538.44487459415,-936.182256344306,-2432.96991538327,-118.010727293188,586.604890763202,-564.811495129532,-399.414115891774,309.635303949079,-799.719010572872,1371.5633083079,-154.988216239124,-993.54282491473,475.635681354952,125.89178812392,-23.008424179671
82.0826574641521,-160.659200039617,316.386820968567,12.152577496602,-149.128879587034,627.484981068453,431.002303861305,162.54400045139,819.944463175866,647.517897156073,622.505554395388,1212.02040149931,1377.34884488781,1288.37154235365,491.070097845619,387.697757355729,90.025569552842,2.68490407005273,179.42978299311,115.458572252266,-255.488489977367,116.793977074805,169.326580174631,249.794904603278,259.825690337095,352.112308309456,247.90682530048,338.516844457103,440.144021698688,343.959724604128,474.556015235174,563.899892758577,683.066238937541,325.623295158279,459.571321923107,571.382160884639,634.805517891039,700.783902208132,465.02317817695,617.067188108094,713.742866037251,750.530455936221,857.237545707924,845.893079670937,804.262147809179,-348.571041246879,-1217.22283525073,-2000.41073583171,-1593.33831841199,-1079.79797252217,-839.088323758727,-2066.25957265855,-528.718501837148,184.778668853656,-950.693156284062,-373.747209138965,-414.635945206333,-897.639300068008,1132.24676196232,-603.579074123305,-421.980202984872,365.032829865822,41.6974415828997,-26.7585980272136
65.7596451133397,-205.78976468354,257.795133145238,0.997300707352984,-177.454852304491,524.333779991193,369.973661385553,149.78066178892,686.717372798257,609.576976674689,582.092447928886,904.201919127063,1101.03374890236,1142.05642483146,114.343098102978,23.8271709214042,-121.897681408854,-438.785750223354,-91.8799599623206,-297.477183127861,-717.805617989299,-195.44085673756,-217.265612006106,-72.3747518286642,-86.4277487958569,-3.94086614631309,-33.9195610680148,16.6213325282835,135.756643357862,35.4050883433225,154.221302784506,236.953666236729,340.355010086956,56.2472662959429,156.807966760339,253.598874794892,308.189693807286,368.336332732883,169.159567181701,300.267353157229,395.436222964591,435.215797770701,533.076737720953,534.064898913007,490.779780232374,-319.230936576049,-1285.2517087164,-1096.09042945108,-978.331786866682,-635.673297574709,-562.36370156581,-1354.87440268859,-674.849594581627,-208.542589415135,-783.856841022933,-284.017588785032,-692.181732718617,-296.272379337829,687.994125760867,-469.504798459003,142.446046699337,-71.8178521002773,-35.9749963270444,-149.071402157345
131.318845534168,-89.7294478798158,254.96577345525,88.2642868524243,-36.8154181397802,404.819206724414,335.270657449005,223.575607020616,557.244812721553,568.185210659268,603.240939604154,593.08403048315,834.278797456175,957.038643382886,-217.772470349061,-247.872892521505,-416.535157167329,-793.204914716602,-341.04013674409,-648.708358453764,-1032.74770695587,-426.110744841383,-556.104451612597,-311.809019499001,-396.831223829614,-319.176486249141,-289.835131357176,-255.378998345405,-147.838799327555,-245.692503822332,-145.623337150914,-75.3322315982112,11.8604994292376,-203.093571430031,-132.949344872865,-49.4806529794688,-4.66395628181013,38.7267694286261,-109.235378504819,1.20155959382205,90.2007740214773,126.753870448219,223.466068116063,231.657261120696,179.634232934965,-0.726710786537424,-424.285087834115,-172.914191616582,-321.644057949544,254.55720480509,-159.017567805208,-292.234846797224,-347.328174898871,70.8226046497202,69.6560239744937,171.576216045389,-203.089469454526,586.819398956671,316.817432264978,124.458779694986,347.127581942644,-399.543356458788,-22.2129589261787,-204.637594356616
188.319227483286,56.1277772933427,259.538895355522,185.367114652483,150.735288950781,275.262278351165,307.357702725446,320.095448860015,439.583804891001,552.048398575084,646.97646411797,331.156109274419,668.746681453679,869.906349678141,-468.83616558507,-320.378394145735,-638.6039823386,-917.227396195587,-395.394800951132,-762.527336117378,-963.903721897993,-492.3007715909,-696.101098199224,-369.894599350104,-542.093243682946,-456.864489324827,-426.905181194757,-367.1563791915,-298.204811754716,-402.7355945569,-319.567959339676,-254.919432372726,-171.630998505248,-364.022230842205,-314.028616780983,-235.356312429745,-191.604813061966,-151.20940862912,-293.430840905678,-200.879286226949,-112.784353022558,-64.0282489224597,-14.9732849848131,23.007362456274,-6.71803644874648,297.048405667769,1250.80464719037,383.240312712902,816.798213384563,1511.99847119912,288.382424813674,1036.53374562101,131.953132343894,990.750053450861,1039.38402103614,897.775931028544,757.45446375555,957.921671956632,12.4443383676224,552.523360767596,174.469410747109,-394.802916051119,-26.0499646932426,-186.827729659636
95.2207487443539,8.53295017085014,153.072826409074,109.369403456802,124.905826012924,71.754416799467,159.405977838915,238.877693585357,213.6357660887,400.344367934068,502.016939457553,17.5423128226987,434.016235825359,689.267218269849,-818.189935530521,-451.011502422049,-808.170787888002,-1061.50933209827,-445.632485611945,-791.203003510349,-751.300159210682,-531.202173048863,-730.485258841155,-422.316506546232,-604.741873903535,-525.827312129264,-500.759449253542,-435.985934148119,-399.970125718777,-497.734265729931,-444.937458577921,-387.363138977855,-303.222241977858,-458.789049978284,-439.578447638791,-379.09024232582,-336.475110932867,-284.445648162362,-429.518577514822,-366.171767464023,-286.036100916065,-218.327937015221,-238.66643062049,-165.280957560114,-155.57287609396,427.24563202875,2470.56988713778,705.693987717053,1995.69874442671,2366.16496888493,780.830008507873,2220.25288242269,521.192267411309,1812.59967636555,1483.52889670546,1361.50148960093,1472.59142685828,552.815882135327,-375.213500130944,336.775910194447,-232.492242175675,-210.877425780242,-200.579079850136,-207.499138171763
-131.384500746307,-198.979305725376,-61.7589807930338,-119.757386293247,-91.0695050741909,-182.968941345384,-89.4476138275002,4.62246213592432,-109.701853640684,95.8848572097344,175.829035341006,-336.164380486497,68.8630258685069,295.182727565837,-1177.22021604538,-771.479662554894,-967.933600413849,-1377.72112401387,-665.362884734814,-879.323680323444,-747.324950841873,-650.175826332235,-800.080180422207,-602.906936005189,-689.810810710552,-650.409488037046,-579.724148902418,-574.868138081869,-539.74125715631,-605.559323175339,-594.20380816772,-557.512977329494,-474.850864842832,-547.566615135604,-575.371701518503,-551.668377841508,-512.566701299958,-454.900378278979,-560.375650511972,-540.090840835872,-482.726176988907,-407.514529325569,-461.237266510864,-382.452718725549,-345.894205972671,650.872562982561,2397.87409539524,1255.28281849577,2330.83446269186,2248.30837979193,1311.62421005427,2594.46065347939,911.060459588764,1858.73087876224,1141.60990981646,1094.91087360338,1359.47420030877,-263.979169269696,-950.507121085301,-469.856625846392,-819.569458533781,-191.42979351692,-600.712530764331,-374.490640324314
-390.966731246264,-413.206119884376,-309.115140542168,-362.727300424103,-313.975489514775,-410.666127452381,-327.470575252915,-225.176189649087,-405.273272727543,-219.274161936891,-163.536526253753,-617.338099742124,-298.690034823677,-170.273904696998,-1221.49400136706,-1072.5671816194,-1004.28118215676,-1569.59807643635,-938.55447144264,-912.1964664031,-888.525962945498,-744.064365514041,-874.333877761706,-794.690941931837,-757.061311158596,-779.79922926151,-634.523262642767,-722.50664938722,-680.320905647762,-696.075863492453,-721.184658156785,-725.766565805911,-655.453162774158,-616.232289737052,-694.014184986201,-714.341949848043,-687.084015830699,-644.109040607314,-655.204449195067,-692.191713393154,-672.652976182954,-613.279838132321,-655.815754482039,-612.924724092323,-568.229938115192,1031.75756339418,1353.19794554292,1953.32027961778,1640.54078889821,1173.94298394128,1575.19283355609,1811.3355447581,1116.61344106642,1080.3198518966,121.155315771087,195.115768275348,509.371502391901,-1036.25890620022,-1656.44658214882,-1372.35978482114,-1531.17635171195,-527.517792141754,-1124.48343801946,-732.649535489109
-582.322761286264,-541.113851701799,-504.769699417213,-523.629935531708,-441.072372603283,-548.415455939351,-488.659000742576,-376.649525411446,-587.669366017501,-448.789253699539,-412.387515475435,-764.026324046275,-563.094773569478,-532.346659580957,-899.090250323733,-1120.83407542481,-792.77666640547,-1312.11606065461,-1041.57401216517,-743.748858484938,-854.650727985532,-654.150677751406,-819.414861119294,-831.809276606823,-702.978833891527,-787.946393307279,-584.07974446927,-752.072413997224,-734.096281619492,-682.035895889499,-744.643621988971,-803.184693392123,-769.118743877488,-596.000670271086,-715.687016056415,-782.501693024583,-788.072887635594,-777.169130147906,-654.773518158398,-757.363851025927,-790.038702556503,-771.189754469034,-786.772365908383,-803.541048172631,-763.8535310963,1398.87787325621,4.42661584214664,2198.3442598522,479.236481563968,-404.379433167289,1268.78957165376,377.768703725512,774.36526887294,1.6001478651056,-1093.35215008847,-808.579508456506,-381.816457366596,-1543.13748990215,-2190.2382261713,-1853.22800320086,-2123.33474162376,-993.834472330098,-1520.07794486161,-1141.67882574297
-589.479320075867,-492.414088679238,-544.340984864014,-517.490255367981,-401.060876526276,-542.166030716666,-518.411420436489,-397.050428912826,-612.656496832569,-538.602124726025,-488.174406766759,-757.928829343531,-667.805583900278,-703.587473891323,-503.163573044881,-894.042143219528,-416.807979291268,-729.570508068031,-832.074373057243,-435.592784419658,-545.731801352885,-401.794203367278,-586.46831361068,-681.022361386475,-507.452783014464,-626.102870425809,-405.607100325543,-617.936252858067,-643.163195171016,-527.011109152468,-627.674946719496,-723.043765678277,-737.906624194674,-456.81961777795,-593.314078056141,-696.279241943117,-740.422669132294,-763.572754183565,-534.092994166978,-676.999725459264,-756.591120345757,-779.408249146035,-779.30702409256,-841.140889684607,-810.91137499045,1742.29998394647,-1113.67471241202,1791.42221450925,-573.438126264615,-1672.23912274971,657.610547763994,-641.289415723367,142.599398525599,-734.368581554613,-1727.82880730399,-1403.07956841628,-770.481196503007,-1676.34341118207,-2236.82091542584,-1819.00727465223,-2261.75698009165,-1190.94660969478,-1574.47856523276,-1314.49143147188
-388.770340889436,-243.327954720559,-400.816238045085,-315.470494443663,-168.843031126907,-396.915656651144,-385.658349542387,-239.732877617635,-476.322985594235,-442.784704504361,-331.700328750799,-598.860145807765,-564.559357386702,-638.855822096293,-246.387068027513,-542.148913016046,-90.6041586708328,-217.586043791767,-337.127003271173,-142.930387033028,-161.124145564883,-147.652832669874,-267.664583486995,-397.121321319874,-248.907421289191,-347.201261815873,-179.248613260366,-370.294136084189,-412.762683028052,-287.937117004805,-391.871832001242,-478.956384477709,-515.33748732665,-249.064501643453,-360.687101826214,-462.387847434565,-514.051110096175,-548.819425789487,-333.077052550287,-457.975581384949,-545.805069690269,-576.642467700208,-593.204034594617,-653.40437962756,-617.140081714693,1947.25742302072,-1470.72609062393,1153.94028619209,-978.516620179257,-1899.79930666191,338.185669521155,-607.703816358337,-144.090253339156,-830.75185714384,-1392.0529723408,-1342.08900442504,-744.932877206403,-1350.40848333777,-1884.49422188491,-1579.30909986101,-1873.80264891476,-1057.60507679857,-1345.34584980165,-1132.01611700021
-164.135437172347,21.6873197716826,-229.376439325114,-77.4731775098306,90.0146527046881,-245.620799184191,-200.447134295254,-24.900970793297,-296.134842562337,-247.641226013617,-89.0746869385293,-399.080053411668,-339.339270895507,-421.51670797638,-107.670852312334,-272.063271742025,74.3056358556094,-10.8647615638586,179.985618197401,42.0618502295368,48.9651769285673,-12.0775265404882,-27.6956784005576,-94.5445773420095,-47.303731764073,-79.3993743040377,-30.9176546215916,-130.118500935636,-145.215833769227,-86.0209536811785,-137.180772887354,-178.545278764012,-186.970880954346,-77.4609741444947,-134.804961470595,-191.82314020266,-211.602793895625,-221.616586323357,-151.519446235161,-217.419077238737,-267.682511272595,-267.872004528713,-341.674841427076,-362.318932367076,-289.241462136859,1723.377391036,-1021.81470878105,705.043814680419,-402.612332830171,-1297.00441799831,540.750180287976,87.0039721123124,17.741868689522,-534.818696295676,-592.342696911371,-853.719213510132,-664.214632269919,-785.949936858691,-1546.74210630821,-1439.66604277092,-1355.44563838077,-924.962111099031,-1105.61954981331,-831.649019556188
-133.591888567374,78.1978978280578,-217.925838609752,-19.6404307196905,146.492796249547,-238.226800097505,-141.233191539534,31.9005524169847,-243.376325269732,-143.993771558757,-29.3052599832469,-350.729506733123,-224.077596915522,-281.791073141076,-78.0489046463678,-221.072325689558,106.976860100898,-105.380667726978,374.428439204846,56.1603116748535,-18.7195119134945,-33.5997145745353,6.96965244013805,63.1417368303208,0.565740265555187,38.7740734763665,-25.4313932032071,-27.9270857423003,16.6859878807095,-19.4218348409052,6.70197718328163,18.762768654721,64.4250650865313,-26.2782621807054,-31.4800200923952,-28.8396039553677,-1.53420341020266,33.3826170330952,-74.5900747428192,-87.5114938105568,-82.651414490758,-39.0919575355502,-184.557969010565,-163.017204776382,-40.3799777351191,1244.88167902256,-565.863433373818,589.451882393013,517.316341048531,-921.478058787864,965.969280602308,493.598860102082,261.473953146817,-388.079056994456,-132.550736991152,-562.790941776571,-717.017281275954,-526.818995186081,-1449.81062827897,-1501.96471242876,-1189.84624536938,-1068.13310747894,-1043.04716511612,-746.647201906199
-292.62278755983,-71.6681103172123,-360.200209979636,-155.868083481671,-15.580117128224,-360.794713884566,-241.368069433106,-105.40625908305,-354.042843146376,-205.430972791309,-207.620161353337,-481.523658349259,-358.080202075868,-340.974334295879,-229.898483681384,-368.159282151796,42.3587488525252,-387.975962384695,146.413928647745,-136.297567547661,-268.026723339612,-182.507093721214,-141.90709689391,5.32959929260266,-93.8919509475041,-15.8499113639112,-110.808703562476,-76.0640904480034,32.4567549309967,-67.2755559249682,13.1996002385968,66.7405264858823,156.819623316896,-70.5672208624567,-46.0980108511262,1.78395256602774,69.9476713371281,141.02046192921,-83.4205839054255,-65.2937597609311,-18.6644107240949,58.093294876169,-123.357299811496,-78.0178317934924,69.663353738913,993.989564154555,-814.014261724593,772.369385535936,633.689065503923,-1308.06765222374,1152.9068354358,131.638387546477,348.556670429475,-677.08200393982,-240.967121935849,-795.352360710604,-926.839016321383,-773.026278735493,-1448.06592530715,-1684.05725413899,-1360.37098814836,-1369.16227236977,-1091.76991201058,-919.288421808117
-463.889641559435,-254.157719646613,-504.960255801099,-332.444127653985,-229.998059350059,-482.607907723024,-399.643905696521,-294.618976719137,-530.317733993991,-364.655296332461,-438.161554503103,-615.591074056996,-666.717495314374,-509.100051915806,-542.317181517089,-597.383973012089,-157.362127917196,-709.288550253293,-295.876700656011,-458.604432530376,-513.223227462071,-366.103261704136,-334.579122164073,-166.639837680484,-224.257047916279,-139.602797730868,-191.560439847244,-166.669764160488,-24.8473285498138,-129.141574959012,-35.2259682066225,41.4516789206179,153.481120932394,-115.804436295278,-83.9516550033763,-16.0944821922725,79.4532900761587,169.088811640316,-100.347938176395,-59.7706487570555,6.99067067313989,100.15192254892,-65.4274447856888,-7.27578939890487,134.110816566972,934.932146103276,-1469.39470802753,989.786051928486,-123.508025651516,-1787.7768491643,931.845077049428,-576.970211357388,268.236418685418,-1114.42996729875,-545.895342783592,-1166.5150692772,-1170.02392291109,-1049.23014846642,-1291.3214816666,-1721.73539482682,-1412.6924988354,-1465.82615397833,-1045.34086894595,-1079.43184224287
-536.816133183966,-349.269104320086,-570.785656801511,-447.490101775815,-381.044037540773,-544.820452723137,-555.052911345724,-450.286599423557,-701.745163478671,-583.305656277402,-595.763990386752,-643.098633855859,-1006.20840767296,-719.197106399861,-880.213963017443,-861.944815998671,-524.883385697683,-987.332338595215,-740.859922714873,-772.70681733479,-693.158904031486,-517.236242904741,-492.118975384229,-343.124587541379,-332.874371316047,-261.899705477178,-244.181205283777,-238.618673182008,-110.97680217737,-169.269466179948,-95.0256942352027,-16.2628082176906,96.434882056496,-134.726605446406,-113.068697786886,-52.2608225373883,52.0606907124575,151.712105987447,-114.895897803977,-64.4488112816106,7.80140763789381,108.433867374421,-29.851452889776,48.8101415429801,179.32871497934,725.806101973403,-1749.94215332466,938.152147962806,-742.154907885547,-1575.2594809524,564.864075660504,-935.614408169811,91.6094133139289,-1195.91079641442,-642.581805205082,-1170.63371753646,-1199.01096198951,-893.904203998946,-909.768871593131,-1400.58993809891,-1049.65265388904,-1194.66558370808,-803.418107118372,-987.57597307163
-543.847310658145,-369.568167552584,-593.559117934979,-514.147161593952,-478.431574753512,-580.479354031921,-706.809955763553,-601.242934879008,-856.450268772947,-857.110490685439,-734.518091760193,-628.670535343958,-1285.33146701112,-992.490888832906,-1137.42766921264,-1216.26701689859,-949.316638559999,-1279.46931584892,-1207.68979267001,-1036.25755793109,-923.912676294831,-653.201041156279,-665.092829748226,-552.273140702985,-459.371606857839,-419.093467335025,-312.701001046469,-335.7097022615,-259.470439817064,-235.617655555166,-203.426082583885,-145.735777928127,-55.8537485702589,-170.720655199406,-182.726120051322,-151.197118286107,-64.9771573182368,34.9638505801145,-172.63538036951,-142.753352560165,-76.815257456023,25.7607554736402,-96.9015553473852,3.47566706468156,128.667804965555,384.263702326592,-1415.24738881421,639.989122251807,-687.417668951501,-857.209710770882,346.807903456271,-796.149645148003,-76.7875478542878,-864.051176751088,-488.972749921401,-838.492133107112,-959.375493906785,-471.685938853066,-471.866132151615,-887.63134078816,-449.336279619362,-775.621463701863,-501.778578554142,-709.792449896763
-550.642587640173,-390.882764469125,-618.747085644451,-583.506511302318,-581.589829598057,-608.345818850438,-833.880405709514,-780.521469115162,-960.899032838901,-1108.68890448344,-946.767361549042,-644.233338060352,-1444.71282228402,-1243.20340462414,-1305.19870106247,-1680.78427331185,-1240.25659839512,-1680.37903104609,-1796.37361442354,-1323.25625182927,-1298.0064927246,-807.762665351076,-909.098714863734,-854.699319642094,-631.195825140441,-640.072940834161,-411.225362891799,-481.99314451564,-474.626586104154,-342.590885446974,-364.279507936974,-344.642690879515,-294.812946441382,-231.407471254811,-295.689854751398,-302.430155255535,-257.835753883241,-174.333547498815,-261.15630917956,-270.911465219737,-224.202546916488,-136.418919717542,-219.176417568546,-126.131959278658,-15.0972207888765,117.229340505366,-815.277819648118,344.258695198822,-339.002515880337,-274.325492954545,256.758148403834,-503.709887120229,-143.938560939752,-495.263766550628,-301.796697965781,-521.400365986808,-674.691373165628,-194.785963586755,-151.546327763796,-511.499702969388,0.518329052433341,-472.488944550589,-320.142035390194,-474.129567340357
-585.084715096898,-475.53848560334,-656.938046672519,-692.464829601994,-741.531167406679,-618.33311991956,-913.175937190436,-987.077901532285,-973.494141859596,-1252.3403410524,-1262.32490640499,-677.529998636383,-1455.04592567145,-1312.9977534006,-1442.03096615703,-2183.06969024722,-1386.48556706465,-2211.27506790688,-2441.70793116771,-1699.26855464262,-1748.14147938328,-978.495666549473,-1198.65309054931,-1210.62749707538,-810.437797823269,-876.24536409444,-499.615706416376,-625.766463181274,-684.391945090488,-437.79987442549,-511.469723342122,-527.950656626646,-512.449384163101,-276.908671111245,-384.902960255378,-426.258987160047,-424.528915250884,-362.020713274602,-316.271539232783,-352.592531897939,-331.857952854937,-275.410451803684,-279.925908339348,-222.205519468565,-135.225524505426,-52.2036982681597,-282.381297302603,173.46446371058,-74.1697173824533,41.0280468571596,167.325119855636,-305.687828473751,-98.2966245842204,-311.17870904824,-239.895267115276,-373.467853544566,-483.698833469601,-175.063257575972,95.0124575836608,-298.691218990313,125.755968259839,-283.358081137596,-242.433055872885,-369.612248655084
-652.964621655905,-634.612122022392,-714.558718612815,-839.597629907005,-963.110633560924,-626.485589444754,-970.75790488047,-1203.19349820707,-941.69573745316,-1325.32252773561,-1631.57325787432,-737.142861085586,-1402.08445823958,-1243.74619733732,-1636.80005774888,-2659.40734644016,-1600.13281449216,-2841.2581482003,-2998.59486283534,-2156.82219452605,-2198.7910916715,-1161.39280619066,-1499.8667576571,-1567.32674514552,-976.008570337947,-1096.82573732693,-564.239792635897,-745.511447609938,-853.382512399525,-501.642823014241,-619.858833956417,-658.354598570663,-658.080912477182,-299.873906936256,-433.73583686883,-507.302252902016,-532.344050491185,-477.812007270627,-334.911406096841,-383.891134996587,-388.572459501245,-357.584551449262,-290.583538727194,-261.616823930498,-195.587008440214,-215.1630315069,49.7705957168259,27.8632079081384,79.9339163231195,300.031826033052,61.646892296895,-200.334483174563,-25.9927048821104,-271.037678855136,-307.505510600896,-310.775168586963,-322.503729822102,-296.572462706791,371.293101718144,-91.6018198114818,34.5173983478263,-104.795735800067,-169.357251677291,-332.475749332833
-742.771965042913,-817.997245803745,-795.974193398196,-982.393720958883,-1171.91285123299,-678.178084760956,-1053.81907949008,-1384.60680222526,-999.342808582441,-1430.5318614597,-1915.13117038362,-913.757985032335,-1486.89663904932,-1273.34750847522,-1932.72120212626,-3072.27586188312,-1998.87442066909,-3454.16546802017,-3445.26215981176,-2616.27545186919,-2666.38175310481,-1350.56306172726,-1804.38322538798,-1936.03109597004,-1149.91058568739,-1328.32350791707,-642.797115113537,-886.654412967628,-1031.49957679655,-578.597742303936,-740.564745340794,-794.145576063707,-800.911149744023,-339.829106428365,-503.667832813946,-615.127592000329,-653.718637475695,-596.696307442205,-377.894754744798,-453.280063820216,-483.60136176917,-462.038288089886,-358.225398884571,-342.788217190846,-289.802980494657,-426.463866933607,119.450826918614,-256.872795129124,62.7762159435129,479.758012830659,-92.6363172528774,-158.723694501016,-29.1480042790596,-375.480862117037,-454.469506598645,-226.196307689919,-171.435144442126,-452.302946236044,607.556503589885,80.9426454584493,-111.756596801785,60.4764377740729,-118.522921026256,-304.863218269379
-829.919591136007,-962.893816815594,-886.762325123488,-1088.60600395444,-1284.76343991937,-783.775364236608,-1165.69259614599,-1487.30872350066,-1184.82963810613,-1577.86553707195,-1984.77194852654,-1210.41621745263,-1760.0910826939,-1491.86646570194,-2209.56286327291,-3279.9012237806,-2375.91172141462,-3763.19832997708,-3771.54977830122,-2889.48769178458,-3048.57807989236,-1471.44076273407,-2021.09497897322,-2242.0301695055,-1287.89433177672,-1522.90434339332,-727.571918920041,-1026.21125585559,-1205.25102440938,-666.156892716189,-867.328257265549,-936.750061763237,-952.744117060839,-398.857114307776,-602.839561282854,-746.187367037919,-792.43035245835,-735.115328351591,-446.667762993432,-563.966650570923,-620.991459264719,-606.976424907793,-485.720307494901,-486.896323792867,-442.054245873384,-670.315678289244,24.198714393413,-681.815036729134,-186.563037021109,475.644084870948,-350.822354004085,-160.031854380197,-134.275896179814,-611.155240778546,-621.327945363795,-72.0635705042918,-110.611516637319,-545.386780484614,674.304313694449,90.6117912006799,-222.902418947125,199.238368916657,-132.036540947893,-266.064915721484
-848.45068522544,-1010.27148336657,-916.277370235901,-1120.85171838274,-1282.91158134319,-848.887327066255,-1213.37227232414,-1488.03839829415,-1307.06724355555,-1638.225565408,-1865.17944636069,-1423.86104259158,-1914.31709981077,-1686.95895488419,-2276.88661821584,-3092.79649793956,-2462.565859761,-3543.77015082548,-3837.55737326304,-2778.73795960214,-3081.88150235297,-1415.55887581341,-1995.43707216891,-2293.44429551748,-1271.37452023293,-1539.53472216811,-733.15956281462,-1037.717688486,-1242.07776334301,-674.716605096214,-890.355503503469,-972.071791093265,-996.1261554201,-405.803553596419,-632.740726098071,-780.923227119019,-829.543351892581,-779.201832578062,-451.360543707853,-596.029058291349,-674.58474342208,-675.724816724976,-543.059232106295,-568.856040447444,-533.404899393139,-846.354247625959,71.3592624387025,-1009.17186533515,-416.436027399982,460.868758713233,-597.781306242859,-91.386096168988,-258.556391563953,-770.351113546208,-707.314171522369,161.186993320385,-127.892746305209,-480.284809530329,624.312689470985,14.6906626300749,-210.991215343216,407.218410769996,-98.2224743991954,-160.563294247853
-680.476595059853,-866.899485662278,-768.929961125227,-980.51846931012,-1141.4853251756,-740.920143836713,-1059.04165676187,-1338.7430351019,-1157.08805620077,-1464.71940164521,-1655.21625061904,-1396.69236274188,-1655.56250222263,-1619.68594378947,-2161.71814674088,-2578.54533450772,-2307.36529719143,-3029.34380024797,-3595.28466354343,-2349.11182292736,-2745.90423256836,-1212.11888606405,-1747.24454733984,-2073.29578727584,-1094.97006250622,-1364.13339141321,-631.011590680925,-890.709293295869,-1100.64087806288,-568.320266512822,-770.057359136243,-855.54570893664,-886.927372097184,-320.230358700581,-535.431298546976,-670.556569942199,-718.553181661987,-679.983097597841,-347.207772358101,-489.678278172628,-579.593587129138,-598.002182743975,-450.85705338079,-505.936194187827,-488.102817413402,-833.934589323656,424.438292285443,-1034.04721954753,-352.991288621239,601.175899077503,-666.719976792457,106.434255616582,-290.370382423591,-705.669475521102,-664.69879266414,419.855534567943,-120.127331000423,-278.020694963299,633.422574670057,69.2917182557252,-24.1423246676613,738.316120790341,139.446177625578,60.4516738779898
-338.196917198548,-530.014555179337,-463.410606235123,-652.492699052511,-846.787928460898,-494.93908269794,-728.914744296288,-1031.92122146883,-832.327194700218,-1101.19014286959,-1391.17811831463,-1266.03365348243,-1199.69519998067,-1348.76005759929,-2092.54758688069,-2117.43843511148,-2166.00070729721,-2749.40926862853,-3303.70440709386,-1941.89804757094,-2449.72577081401,-1065.18889255824,-1527.44295985539,-1871.6516270849,-941.21885520674,-1200.50404991685,-531.425096327411,-753.376915432923,-952.890188664731,-456.73433930797,-641.224177235792,-726.576489509107,-771.372889256342,-222.389323604104,-411.884183400311,-541.826442754701,-594.404861931396,-567.891578582881,-227.139666847899,-354.612174618772,-448.907178001596,-481.167407819746,-299.900241836044,-386.474895981919,-396.350232878212,-624.989075239715,753.72137818139,-876.147051952986,-181.784939133587,657.913657179374,-609.796585541503,248.062777216174,-223.357110746779,-552.002436718077,-577.414485369906,571.256330508059,-63.7461252629548,-56.6359920243253,730.41163109898,303.299325887808,248.761705976055,1049.77795172291,515.912972609695,341.497949249096
-28.4892461925027,-169.267220950808,-192.029157277024,-306.690966307859,-494.718810453067,-303.945555960487,-438.777068083381,-690.258741196022,-611.73957602162,-778.278544151796,-1095.70022222849,-1244.17973686657,-976.012564454362,-1147.76845450564,-2159.99351997127,-1976.6083440477,-2098.53961499146,-2863.11355989747,-3302.84147806271,-1779.61267923596,-2558.95361783109,-1100.1153928805,-1508.36462589175,-1943.29288726078,-947.717354528308,-1212.80121944589,-529.404687207111,-766.30258359469,-953.049436303587,-446.962175019969,-629.496506294768,-721.498956657204,-781.441582418635,-203.713227169955,-383.946556576221,-516.999339605168,-583.688076032251,-567.652777052454,-192.238069724599,-312.255504592389,-407.193499104106,-451.104034528599,-219.054399661888,-325.54641563666,-367.557983792485,-317.231222881141,606.011690428944,-755.29113290716,-210.007190447387,395.596650382707,-509.36020732986,181.210393699684,-79.9896757838488,-386.358190508255,-425.550464907149,574.39051622836,43.9465051293431,199.420303811536,815.493251844334,600.267703859375,535.961695437254,1203.13180278834,816.74348156222,622.9321212201
147.404722865164,109.520831289784,-36.9679389311271,-62.0074217067952,-181.505023688858,-229.649854923266,-283.00956358078,-419.480987724451,-539.108822673412,-604.645471750196,-817.097490303527,-1275.41857922169,-970.683645721997,-1121.89621063868,-2183.56732633496,-1960.60399663807,-1921.12963238484,-2914.19084991902,-3586.16205034974,-1681.88440687219,-2886.78085201397,-1158.03224502697,-1538.24021578777,-2155.90547858346,-988.921331282289,-1286.35379397584,-548.021027416176,-822.613756584583,-1005.55000032623,-471.465457400216,-654.409334844027,-764.818259123477,-835.060610016961,-213.558124833531,-398.363508950204,-528.503984617621,-611.703480507537,-609.685072087108,-191.720302414517,-312.297393696043,-403.657242959883,-459.795110304873,-188.155312699686,-292.969543413859,-361.271082134694,-29.7397019901247,53.6529405210377,-665.871295975173,-341.599231233122,69.8078331287266,-281.13765394724,48.124673087333,175.334131816526,-71.9996279421894,-66.848443310641,538.669443586384,237.783664422167,560.63474374181,897.892076787486,856.951408579915,896.216679719382,1214.8546350674,983.081260913942,902.616489295983
304.058272683734,358.429544336811,113.762198005949,146.090502314323,96.7923966525978,-144.068051818101,-128.432005104758,-181.254171347962,-412.010378075065,-442.028752569332,-555.733295019195,-1118.8425348172,-821.743832215856,-1094.74509187289,-1872.2136831181,-1657.93095515993,-1519.41946573417,-2363.09804476563,-3670.52509508851,-1286.36367418388,-2843.87948090689,-979.833777040075,-1314.14734003162,-2109.92918327934,-823.898147383361,-1159.35697475841,-444.214163680042,-704.897821182638,-896.876572864844,-374.835767958621,-536.05686560709,-666.48688034765,-753.230234741271,-132.787644484776,-302.659750454509,-417.778828278995,-506.436850445781,-527.302506383151,-101.017529535242,-212.845499535958,-295.931178989389,-362.598776166848,-86.2360538884014,-175.811146072603,-258.884002582795,102.546034017915,-385.978771954998,-581.23862647544,-375.037630692181,29.0383393711265,15.8290924782284,-18.0083674730815,459.676864896168,319.57536214601,360.104567277473,535.759216640447,416.550588328175,879.238972173308,1066.8945089798,1008.20774798218,1325.30339503437,1102.85119702395,1098.28126727198,1107.26714547063
496.796644489578,573.428248785624,302.55176732831,364.661316274091,345.76495901034,12.1879933315168,102.620152241553,77.4720559328146,-142.856685810366,-170.874161813943,-260.255848574687,-704.392001828839,-411.362937083199,-896.182389606696,-1091.61695575593,-993.71327150825,-924.943562749097,-1249.45987889616,-3016.18436442728,-502.568575967059,-2083.43525216741,-515.530893546472,-739.19690855444,-1573.43079065795,-402.845388722317,-734.404956563547,-196.742351163946,-360.387025553488,-565.286433492344,-124.403370673444,-236.249681845375,-371.109624440318,-490.399645170737,48.4678706692641,-67.5646439677803,-148.554833792446,-226.789644533166,-272.13414892459,93.7266229254466,18.2264245717332,-49.2363317096853,-119.885921865828,124.022775265506,57.0424224128517,-32.6894977959789,33.5476315474132,-296.25360096821,-626.673828733034,-305.042855640668,344.122500467742,116.281692706797,14.5147539084023,583.848871528403,516.011217993831,627.585476886854,677.948168352727,464.921687460395,1102.61666939665,1326.17379297855,1118.73495135179,1758.60157136666,918.261419109214,1199.45917778303,1168.32001745796
629.017851909989,668.220189609575,426.148475876932,522.539931827667,522.080060329722,146.18650364699,299.806038279737,302.938990121424,135.768802833502,123.798518643789,48.5425261298427,-216.389215920302,24.8109368936623,-572.695107301744,-117.676143094292,-347.192076168414,-175.668642237578,-137.349981522241,-1671.21407832635,375.077827596567,-884.384191089683,56.6839960393068,-25.1328925931215,-737.568612313536,87.7768547302838,-180.358289454499,87.4876136126795,57.7005036110278,-147.642936711523,156.691845795439,104.317839783108,-16.723600495832,-171.377726503987,228.215541469177,187.139651352747,156.093131025401,93.9793962387679,33.9685982765255,288.139198833547,270.254484507015,224.109645900638,157.516963857814,346.81453393669,314.611335096297,222.068109742815,-89.6550940688942,412.103315889914,-744.709474272189,21.9552989345927,1050.43560596162,8.82277413877865,376.539700174646,540.766118081134,588.722167650367,990.262220722307,1183.82662739317,551.47322217476,1546.5239530244,1591.50142051087,1418.83493037819,2217.32538045713,839.100707037273,1293.16500620999,1155.92289318062
652.113019843198,640.849531481792,453.576254859366,574.723522170539,594.564065896668,217.328177767669,388.202079847301,419.958066776857,336.071690971785,324.654999520263,253.191565600626,213.155472019764,314.366432705466,-265.083868321353,609.446174991611,29.1221700098017,561.545658005311,625.359814090601,-259.381505117332,1050.18178682884,208.302443958608,536.147476101081,562.16854454518,12.1235013920162,451.671364337114,267.513358899114,293.460797447688,372.063347970012,186.948172155379,339.095588611524,334.173833398262,232.709772107166,58.5914043388729,321.104776980074,344.832832698974,351.381297884064,303.521089843179,236.991124073825,388.795939914536,415.270156110409,385.4617364252,331.886883513244,455.921511540472,467.39560830652,378.651875402015,-143.055483401149,1500.52813284201,-569.235750924992,888.734673232033,2047.4721464215,13.7464700026316,1209.02211317989,489.880739387326,898.20270276934,1734.52474397159,1919.43837736061,894.129101610067,2253.12582290782,1740.83575955473,1954.41790022372,2621.79156142294,907.021646244022,1389.74680926128,1114.14697580222
668.071033977511,611.180898596873,524.381971989889,622.11008958545,628.244384050014,348.310039304805,506.010220440533,506.487817633385,577.478856714749,518.204739533218,366.764804522838,677.351518716226,612.825042256117,29.969377772544,1105.93854791475,388.382510304262,1047.3762347645,1179.33472375496,806.929230701817,1518.28843695219,982.655165265934,842.366145428568,953.548152688043,523.558762538177,656.025562626907,541.256375427881,384.366624084007,533.77600229813,390.623173351338,401.863275856616,424.666403496116,343.830877859183,170.253934176135,323.427174068657,384.664529587055,402.993998409603,369.229349513476,299.4758325678,382.535485521373,417.977313226621,395.157158962039,360.516703408226,410.860356350532,451.168546133597,375.706523346702,-203.144084623252,2402.50023430964,108.023090303132,2042.18822324128,2775.17771908589,303.477176159791,2062.84362959435,516.27460765616,1474.07347172076,2438.73563512832,2312.5089806516,1323.99510983628,2638.93099273614,1689.75775301814,2372.27071389962,2714.76897559771,909.625710792671,1443.08542595126,1001.65257653266
800.510955906015,722.073233870962,752.012214670075,812.941926712144,781.581930522839,630.182757489555,817.76775668885,759.053947679781,960.313225294562,891.323955831813,604.584242058168,1203.80575941469,1111.31320339624,463.10561400301,1679.52094825606,949.995452546233,1404.6890099987,1619.15519602491,1683.54974639783,1830.00203195003,1547.74876738531,1004.80779166217,1197.85320253581,911.22512327979,770.992660803493,718.839397515419,404.026032488443,599.18784165196,517.365862506392,404.906998304312,441.932733874881,385.925950278404,227.064482341235,282.140513265123,355.774545497067,382.270001643908,354.395497042192,289.531001341744,316.698935814682,338.851099602772,321.304571376158,296.569740869309,281.292838276385,313.376279160227,253.430221273382,-340.394962598482,2530.38815908861,962.103746927226,2612.02792735241,2655.73581354213,647.068485078417,2292.28988471093,597.601630943504,1860.57305688912,2462.49939512688,2040.75395926391,1407.64378955605,2285.00870641785,1479.20976407988,2276.44421764652,2386.4709267985,715.286111148047,1377.16775260335,867.527493879994
1007.67923618829,976.396897241865,1025.11303333025,1113.92634790702,1091.38088054008,929.669073428577,1224.85329164746,1186.09338179337,1331.5596863225,1393.64334232279,1032.42549378879,1578.66455842512,1645.08313228181,1049.3978124648,2226.98117057199,1467.74041935274,1932.42697384078,1851.09726004502,2523.05253829495,1887.95475778833,1928.4618257139,1093.78651550956,1299.67103294417,1246.55206862744,845.084272018904,852.390488689358,425.988689040714,629.122199056005,609.07247497924,410.804886634053,455.189858237958,420.604956858313,284.143906244406,251.196390026618,324.474904560819,367.052234473195,329.310318129597,277.464064965064,257.455602288182,266.418683572076,258.01803161237,224.653007665545,176.103175651081,176.304206469418,126.454598214001,-475.487653402797,1851.6981927171,1384.08875509774,2035.67211403061,1776.15089594325,689.929538522038,1741.50715367611,653.489612419739,1599.33346873886,1756.25538110959,1313.40447021636,935.616887002727,1475.00081966111,1179.41670895912,1626.56486894657,1758.78563523716,449.947357870834,1160.22580081572,798.951028681826
1119.36639063098,1198.3188654691,1142.79597107344,1319.21755987705,1366.60389069956,1059.76373328734,1470.83550601662,1536.52043885324,1493.43409170712,1749.10389388212,1430.88349303505,1703.37073040977,1914.93649281656,1574.62284582769,2433.30869749218,1708.58176781707,2466.17638699773,2053.85164494289,3131.15346121161,1744.08384724327,2103.77318407343,1198.78741297968,1305.74360944808,1495.35383841205,924.143095193444,962.022338896782,514.723325781956,682.157904022619,696.800816391855,471.261237540583,519.388115690855,496.63998066141,385.918884685922,286.177281974279,358.419468500171,411.438393831293,368.643492778152,326.596864348086,270.702659701225,282.320848903106,285.431341462544,240.819037791249,185.592833616314,170.747771834906,127.205727170408,-499.974917701692,989.596038777997,1118.37761472237,791.701298530673,774.658185361313,389.506894586134,760.122816135296,599.580213440111,768.164615063874,780.878106836318,486.25354775858,200.843840258449,698.520730693771,778.209269422481,770.884455184086,977.946421750122,310.846957572573,842.01495448916,777.213747207397
1062.02812257931,1232.80866030973,1077.17296720154,1318.17409808965,1432.20730185083,1035.19635620699,1474.53463080756,1627.90594660706,1488.07002525207,1816.25461731331,1624.12020278492,1795.16243635989,1926.4432495774,1848.46091912356,2397.4701045154,1861.68219762086,2577.17801728126,2593.35908428324,3428.64436646042,1721.2996373085,2285.53560105149,1382.27392908658,1372.70925861695,1682.02871607398,1066.23080835793,1103.70515878035,678.213889545981,810.690162044979,833.364272486198,603.946143575446,658.012303398184,650.710023344788,566.042148171693,399.951019449927,481.627940443772,538.675065363654,521.718575929701,481.485761523078,375.938571659148,412.662037202801,425.763136561132,388.000576297332,322.920376307212,327.857747037922,289.826545573339,-367.205246695993,542.360061076856,575.325422134737,-92.7683548281016,177.818664545991,68.9822119537162,-126.018403511555,472.419086315219,-9.29968139556577,56.3609806332052,-146.010217492053,-221.494106999788,125.391128517208,305.060900723316,210.58409239625,213.575654301753,375.191536320415,553.04319075053,756.835343256564
889.674226691961,1063.60387543419,932.831346635053,1156.70698551907,1269.79423302152,970.177919340407,1330.00642193033,1482.59335966026,1446.84945170325,1666.6394869811,1590.37499675175,1991.93195600076,1875.28136318296,1837.33191767503,2449.52606432705,2234.86979749156,2252.91969562668,3455.97143652213,3724.03985862587,2008.46477428626,2746.16795293526,1576.42541450517,1589.944889128,1876.29363340977,1234.62001612371,1288.59391435853,820.647040399381,965.407173224176,1001.00912600542,726.454269426116,795.196941770169,816.12249389243,752.723839585894,498.286244212356,603.784011707435,669.353829364448,697.816736371657,656.732991052133,480.973531116802,548.797683482932,562.968949981054,546.639019331021,453.477160886976,490.036363996354,457.619769912031,-125.260671126712,474.153060397253,359.386961780507,-119.683683633381,28.9100838946142,-5.38580978565892,-458.07402711698,395.957137670868,-199.207584691411,-124.706195406418,-404.353430509274,-74.4673682758585,-294.460091320551,-99.4553100404801,182.892839209799,-344.8216515749,473.219955675975,373.123423285485,687.336285675654
649.563428905991,741.791004084188,758.297727441683,888.815784126792,920.146497134695,870.336500427941,1104.50050039841,1176.65158832915,1361.97846472501,1393.87915972759,1338.03463206182,2102.37065627179,1835.34454093822,1613.43150759856,2641.9174187702,2847.64543766219,1851.27916891,4199.96555763872,4195.76949073531,2429.06190963591,3423.18389487111,1634.44637891309,1869.41975318124,2100.32501939702,1314.06308812294,1442.68889543244,835.14962999166,1030.75081265778,1104.00738327261,732.042554158664,820.134364021505,866.653477374558,814.43436094185,476.098262449997,606.188664565548,680.271766612605,735.161139431038,690.197482016322,466.649962655852,544.363973769426,548.096610456686,546.841643250193,415.647455862825,469.381866753661,442.284129532409,109.581428561864,395.634367263117,613.849973688022,425.69967486028,61.3502826299591,122.24589887723,-100.069981580317,435.223350664054,133.801448503044,155.919196535913,-424.389356741446,321.185423705705,-537.916706908149,-349.178279694095,419.805878479878,-679.132963004958,270.335253091472,211.390703020528,461.832236520208
387.411628982709,384.154576898672,563.022823474791,586.732462634153,512.140911969822,699.919090997882,847.263117361331,830.914938621525,1193.53717657813,1091.69234576472,1000.14741108152,1948.70760210966,1772.55909448022,1350.43995989169,2739.70530354218,3344.48475298658,1643.14063151374,4354.7451568124,4467.25715475603,2647.45594495039,3886.58900686509,1508.32555355077,2026.78668855616,2311.21140720063,1255.03920792635,1495.95649020481,733.257467926626,976.724118633028,1101.76606560694,627.042868892654,729.872346805382,786.999699976703,741.663668518532,352.635298903249,492.625807167651,567.775670920584,614.277700049208,559.917282189724,333.260244414442,397.416892834921,396.699500700621,392.257624479437,223.666448159414,281.025025186864,259.097107777922,272.6043918321,196.797659726495,1030.18998766983,1081.04878122481,14.3267248234384,332.858987023591,574.625839430968,581.204592897236,563.423625122927,538.318999488095,-577.806968591852,531.012884754656,-530.999838168269,-520.507611597321,436.745720378911,-903.816606043682,-324.697202070634,-63.6789015638923,74.5006988003439
185.628645766162,158.569967629856,391.001674127136,380.126772882811,268.788400045026,507.199316974698,644.360817457099,618.697512472375,989.423040889821,881.585625348731,827.466685102487,1631.117661245,1633.60686358112,1221.12263609644,2595.44973955469,3277.66967471306,1775.1510477624,3872.54895297389,4144.24199779223,2510.24695940324,3792.16215181537,1303.14393044217,1939.52011735551,2418.5761154264,1112.13882161011,1439.71985023419,608.804649096262,867.927768104777,1040.65014204645,497.936225705066,612.070146704124,678.037397048538,650.969075580705,219.702431107271,356.719893360482,435.223494805935,463.198743700772,402.826762951511,171.529092285233,218.768726462462,237.051699439548,225.972573938525,13.0310612038925,76.3332123576424,67.3330192813764,361.993243026065,41.971225503799,1284.07578515496,1526.84397738152,-241.832114854587,564.906278436667,902.945914954881,734.593407876478,767.16708836106,704.515187953928,-982.473050925204,479.825701836797,-345.300420838055,-754.510121775092,6.51362550541183,-1012.1211274487,-986.745176811735,-441.350616425906,-285.205691285448
72.6054188926355,107.228718896936,260.429212041836,309.176265497897,260.9731077269,357.693951321436,523.061924512439,580.234501772773,789.513953841351,797.447797482088,877.785612526234,1305.58150723645,1369.88626276591,1220.3483811472,2359.04765171944,2688.9606415511,2297.92345068918,3360.70359815817,3510.39468731135,2255.33253335923,3366.8664885686,1194.96497612737,1728.68042670161,2388.2055666634,1004.20757985844,1348.75484714486,545.338756376147,788.98339428,987.584164326809,419.999740209722,543.185458571732,627.040627838204,632.243325368383,140.858741214129,271.978834859518,364.355110999383,392.577689240948,337.308627164425,59.8138257329923,95.2784654848255,140.542837129085,144.961760648236,-133.504105889911,-51.236004707966,-33.0714990798825,369.681687895504,-93.55067504379,1217.46729886878,1445.45485215911,-660.266116401718,640.498959999919,529.392289347214,697.068133656288,644.907863759113,582.164702655874,-1307.19583160661,337.34569819506,-197.293337797349,-1086.84564840043,-690.972295636776,-937.107740227347,-1370.0420292231,-799.292139706322,-478.099478914545
6.27401998527066,118.492861194364,159.893589786595,290.83136924262,336.84386697027,274.909001675992,451.41012913362,602.233268881786,620.166333033898,784.921998211446,978.546676055931,1026.49050010996,1073.6175368484,1260.14512064937,2246.51843484274,2282.80496261349,2949.99250228683,3451.62954441569,3240.87100408046,2243.99860331635,3208.24980553584,1282.65937897506,1695.79591809294,2326.86268065666,1040.60236550658,1351.02946235282,581.483850506615,807.812965302692,1001.54925353038,436.293389043405,561.726426272407,665.37838040854,705.999705360548,143.634245840023,273.748054255043,383.391257784576,432.302856466361,392.209040525006,41.9707611399543,69.7764930397445,127.224434327891,168.148145867955,-187.968304847257,-73.7920435076143,-20.8192556803573,352.554456398735,-425.06158147406,792.168921446749,725.037222567861,-999.886913796129,377.501773456412,-232.353445767253,389.919384732361,271.343171693465,264.952020902064,-1246.94689707792,203.214454619564,-263.501058954853,-1370.18958048563,-1259.53968055541,-812.415779214228,-1448.23767592362,-1016.09020151636,-587.562343243916
2.12773683116141,150.554951035407,141.269786842848,313.174295946237,410.907344001674,298.192365441141,470.924605512257,661.338385327084,590.30474606513,868.617596648959,1072.25899251051,877.399819056099,1007.50601729654,1405.44709466816,2323.50835725833,2646.36521646046,3331.5863214083,3967.50883818034,3673.22757523936,2471.81677874186,3532.57717482805,1467.34322747906,1951.66833532627,2374.96816634952,1204.27772304129,1497.51454258898,688.64572508555,927.226508624894,1111.69477942061,536.910580656063,670.680806871031,798.249397714691,882.522666099822,219.431638846948,362.993024635828,492.7601466243,572.287804444321,565.319007356657,117.196020732202,155.514969027512,222.112983058781,300.72355110569,-123.816194756091,22.9842750346032,114.407219189753,468.324556149093,-891.029154143648,146.906592096662,-162.666871490851,-1033.12640530516,-50.0645315265629,-756.509660734467,5.65056439900643,-140.60709079135,-107.367131909394,-956.288021625053,48.2410046708157,-507.642173698547,-1418.6222563113,-1414.73755989509,-839.179868674523,-1355.54678051417,-1019.53815720397,-709.982644864327
103.866032259248,259.19380616324,245.984918644768,435.842098784078,547.2630650285,428.309009482482,626.924971868611,833.233207694813,741.868373901025,1102.91026067859,1270.02219678014,899.09043069106,1269.07314390416,1753.40142266566,2536.37069509089,3493.10371820817,3397.46414176103,4262.9745444635,4548.90536641851,2659.52781046138,3912.94776685509,1550.40104181098,2257.69870542126,2516.32794305448,1348.7579311155,1678.46714314594,778.980464419143,1054.71508292602,1261.23323142289,639.08767708073,806.490676905032,970.06314959979,1118.85222009496,301.494326197554,474.217354199307,634.822308882635,748.243787496563,798.377759272136,212.570050435686,283.956191656331,377.322413847045,492.406467920145,13.7430630063386,174.834491720065,312.79245706093,772.880969707341,-1167.06294547656,-383.802083804003,-565.969295715636,-878.148539911755,-234.913047033393,-799.861993445805,-247.255098985292,-387.879991789919,-404.496714733142,-827.948611807011,-192.567216488769,-759.544608372508,-1268.01599442507,-1248.22339481846,-993.236775973121,-1200.8159180518,-864.471415627363,-810.981204955384
227.132989383584,396.210620442748,368.678067799155,589.181412099408,716.923429704858,532.157174756872,792.966313913977,1044.17789359717,881.834195311067,1347.58528590852,1544.17071693595,917.201183321876,1553.4243615101,2128.58696991876,2650.25613770889,4018.37560526492,3339.15545453385,4069.62061150385,5238.98724830514,2716.50929521779,3845.30632303263,1461.94408064483,2329.11734838854,2568.45829233943,1357.5011966327,1729.57764822013,781.783175535601,1080.37905508384,1333.05935835367,653.935967198659,863.234249437742,1061.24407844455,1276.91444668956,313.309460250266,510.098458694557,701.04560856851,840.614466876082,947.874768814076,238.327273604775,330.747380963023,458.759568197431,611.0686322493,90.6646483051803,240.799849962243,427.022804884357,1091.82934552598,-1227.87345424977,-524.043548652742,-473.801387497742,-918.957363524925,-32.8113995309022,-682.917655099433,-375.192706552911,-422.185807479052,-603.051299410907,-1021.0478666169,-520.409878908604,-997.657833851488,-1148.56664672114,-1125.2793934247,-1147.24209328632,-1134.29336804461,-738.225514277976,-900.016697445528
251.707464916527,445.15607629962,382.695094666596,631.977690339098,788.714469983946,493.631663867775,797.307395678519,1110.65029249758,811.658195373902,1363.43295334075,1698.65031743267,755.540486948742,1490.10585259888,2212.12311778495,2303.81064439719,3746.02092755945,3053.61313654481,3538.5048932149,5248.02406837803,2676.20338806848,3298.499390474,1275.33590299307,2116.62815748139,2388.87613416621,1238.08484768459,1600.00538023181,704.134794891343,988.044650095677,1275.67731212713,584.655171418206,807.312934564904,1020.16517311667,1273.75455480836,261.157330959254,455.547711193645,651.641587570298,802.44781563456,938.122456541149,192.418232747273,271.120178137913,418.784739169006,595.270001276442,54.636480337922,184.319269499831,403.443523057258,1182.91382613488,-1355.79673987827,-331.626454075422,-434.109681548173,-1248.62124934067,303.620001374451,-772.154003517192,-441.077398209841,-329.435811591589,-789.794212155158,-1310.73583033534,-813.757815676516,-1300.03424363832,-1135.28868038752,-1227.08217161616,-1262.57880480302,-1239.35302502284,-734.204291200259,-1045.59024382274
212.7256364572,415.667753630786,322.636262622117,568.511303649046,749.27855559829,383.629470305919,664.474769040116,1009.59095430638,601.225026361263,1137.49607167459,1638.25325330659,502.129707730215,1115.55211294745,1944.22214560306,1478.89964810439,2908.5064456101,2331.07033232438,2883.34296430222,4583.71054605304,2413.93345318307,2608.78905648997,1062.41202668197,1746.04285250412,2039.62831777016,1059.90694352669,1373.32956155719,601.935495219887,853.94933518735,1142.46944079772,509.298999679005,713.697618740313,920.483464638768,1182.20851075267,222.639769242548,395.622991696186,566.257930982072,718.553804763872,854.443031152778,153.401290649359,215.352743568556,360.513284015605,537.49070070383,15.6060335514199,133.25936107897,356.375211148783,913.07125520821,-1554.79497338581,-143.602353563819,-718.914411030539,-1482.64269644247,421.837568315694,-1042.369916868,-450.690708297838,-278.474313899558,-1011.95910826696,-1363.7222148221,-961.246982161257,-1525.82822094077,-1055.72269784886,-1346.78028626997,-1268.91415538228,-1314.32771950797,-725.763273802476,-1158.9006120155
203.858171822742,387.328490150272,287.141572337858,499.080678510536,679.084886024459,324.984790739786,538.073175546292,861.809541373904,448.89438020285,878.325200478361,1427.03372923676,348.031021249684,789.846383448327,1543.28476194899,743.338593818817,2194.23869153788,1460.1341861173,2331.50739067701,3641.70838650277,1887.64625093103,2072.00272280472,873.817982876095,1375.64100785238,1726.86845883343,892.31498467774,1164.40542119697,525.492167120384,756.627874337898,1008.91001291139,481.809278973041,659.737644521844,840.915244389316,1088.47798633579,246.184061654699,398.910841608613,530.433595139633,673.003518015158,787.682021433604,179.777974460656,249.956141766033,374.228032888767,527.125502974687,78.3896783781734,186.158399416775,374.296195614874,319.120458067394,-1541.05643454686,-253.249466667358,-1087.20827754005,-1331.53321229593,167.163920431462,-1283.21871565111,-506.723816538065,-456.78955674815,-1225.28578618546,-1151.72785793454,-1038.43249348146,-1449.92734752913,-819.081764264307,-1244.13103860049,-1056.78465677855,-1120.38606379101,-598.66178252699,-1078.16990096096
210.051383108757,360.973399269178,272.370974002631,447.21874604395,600.473035364014,301.112814418157,459.20920980387,730.727001322467,391.778111261188,719.394943294601,1158.78757200992,268.675130467574,686.820259601935,1204.15036739995,574.463842083494,1951.3161981307,880.556457871197,2074.69527046107,2850.76763378343,1329.09355626753,1763.0108558458,744.256264718408,1116.67913875688,1580.80772770941,775.479907873059,1025.90111821121,490.109660868617,708.097094161113,902.658877991274,486.898138563117,641.172561771699,780.074316068408,984.448909541694,305.509995517154,441.687966918757,535.700485210199,652.334116959288,723.178479303968,253.634975592416,336.844317445421,427.015684593096,536.038374270444,209.189601431204,287.995300285321,405.542480395933,-365.165059861494,-1281.37869639879,-653.552301447452,-1299.6673633527,-1008.98640410157,-347.348139495861,-1436.69566424203,-759.23968314614,-863.178353995264,-1366.34124808344,-937.903651594901,-1155.00214229856,-1150.32450148363,-549.741866027875,-962.643674110851,-685.507132362643,-762.124447694793,-420.79573426284,-846.132844418883
201.397229375612,331.311300208578,242.453150648995,407.710232074658,537.886656718616,238.057481862922,392.450071197303,637.516634507201,327.649525834698,636.323011667788,947.306022347773,79.4983123204969,625.362837958468,980.080736486896,627.072155523653,1706.0521346686,483.205924164882,1935.77476397757,2315.31332727584,876.72388917608,1534.80320365611,625.534739558604,926.72149302043,1499.12866010671,671.970768284697,909.628495851448,457.506878869309,649.122455916438,794.468918930376,466.506044026737,599.891189681763,699.450666078732,850.022884728092,333.886779219947,452.856840375849,516.879607363138,604.128206076519,626.72936156758,301.302018897957,383.261306309315,441.020667209705,506.415130450893,310.223407856338,337.102188015403,382.191410998052,-830.820665728066,-1037.07165994177,-1088.8158979374,-1393.79223041009,-834.922182675678,-853.135925581293,-1511.99088659871,-1091.16431984452,-1192.93453405026,-1368.48564489978,-819.109862253276,-1179.19286323847,-865.889891128988,-302.450422089712,-646.570213923527,-325.643577649499,-482.026990258037,-255.766847457192,-623.644390895503
227.90526019463,351.6943103501,239.21634700607,422.952073026097,553.729241660794,168.53708889561,353.993876382637,619.41425633171,237.377244607358,577.063398225428,870.378224090844,-186.15849832975,423.047546809412,802.472296266007,340.942501231717,936.546617447531,37.1780904819464,1385.05043770763,1669.27309462461,392.832579747872,1075.99841801846,422.646790536179,609.030786127998,1225.30312763024,476.113042175373,687.364421378741,354.829495499122,492.699687305819,610.198995083994,359.282474369929,469.898751982746,550.552666298547,672.419695451213,272.107523788449,371.644860644266,414.783892487384,478.568558656619,477.181422997524,251.9655449229,324.740587667901,366.206985925523,406.472187219642,312.897477982379,283.477668580849,285.817516530301,-957.19947859215,-956.163629111805,-1336.10297788307,-1461.33002667376,-788.533811166984,-1114.32178097811,-1449.91618338885,-1169.21911185337,-1145.04914425988,-1197.8653921361,-622.409674564692,-899.067177813729,-626.976807150948,42.521371568683,-307.097070015259,-20.0264227727818,-266.027249293825,-41.133999030915,-419.450485547605
