28.9985751677175,26.4611998405422,26.6786891543001,25.7362354613493,25.8087318992686,28.4911001022824,27.8386321610088,33.4208578807944,25.9537247751072,27.0411713438966,27.9111285989281,26.6061927163808,27.8386321610088,25.7362354613493,29.7235395469104,32.4784041878436,31.1734683052963,33.4933543187137,40.8879909864817,30.1585181744262,40.0905301693694,26.171214088865,34.7257937633417,40.8879909864817,32.5509006257629,37.770644155952,21.458945624111,30.7384896777806,34.7257937633417,21.6764349378688,33.2033685670365,32.333411312005,26.6786891543001,28.2011143506053,31.5359504948928,29.2885609193947,28.8535822918789,26.7511855922194,26.8236820301387,28.8535822918789,30.3035110502648,28.4186036643632,34.5808008875031,31.7534398086507,28.128617912686,26.4611998405422,25.1562639579949,26.7511855922194,25.7362354613493,25.9537247751072,28.8535822918789,28.3461072264439,27.6936392851702,25.9537247751072,25.5187461475914,27.5486464093316,29.6510431089911,26.8236820301387,25.8812283371879,27.6211428472509,26.0987176509458,32.4059077499243,27.0411713438966,28.5635965402017
136.510131064685,125.12281096303,126.444778546958,122.335339463467,121.446893962922,134.682144959454,132.67364603149,158.436215346741,124.092285674911,128.237244705296,131.42271834135,126.680756106229,132.238667403974,122.190346587628,141.18250995015,154.761754890765,149.657310466048,158.780209290825,193.505109397764,143.753948680087,189.286197385328,124.689288879646,161.800745261395,191.837691325621,152.205891318077,177.480930357538,101.242235945417,143.533546278066,162.525709640588,100.606799705524,155.011851063153,151.318902361665,124.487374723137,132.943686993523,147.317479662986,136.798660272231,134.517207293971,124.033907850109,125.68283767674,134.58970373189,140.962107548129,132.30825075363,161.620232438663,146.609546985175,130.062317722264,124.760328773434,118.205955590331,126.281297425607,121.102900018839,121.627406785655,136.257121804034,132.979206940417,130.970708012453,122.642356916525,120.505896814104,129.267769993415,140.113551626874,126.045319866336,122.225866534522,130.699210506288,122.750373301338,152.387860684942,128.092251829457,134.446167400183
257.346672881346,237.207774245492,240.925362319146,233.271640755652,227.720971552541,255.190668430984,254.413187269071,302.13340278272,239.633163997163,243.842942063575,247.577526973057,243.960057528859,252.059237852891,233.308617246678,271.096606172392,298.428552269631,290.191255588242,303.953055825337,368.291070322872,276.737859617231,359.477771328821,236.358487171935,300.01244810644,359.871734543512,280.108761012002,333.495670226066,189.404872245471,264.649448490692,302.437437416407,183.182155887592,286.482586506818,280.412540426671,228.302689684599,249.236936932711,272.051251761516,253.013192915738,246.573022109655,224.670991270151,233.190010371708,248.149455498368,256.615812594517,240.694334561414,297.911142374762,265.412045021635,234.652531467972,235.342811649234,221.168089779124,237.94467530184,226.698779327037,226.197455388255,256.351301963969,247.75039725945,248.277851980083,232.245810050054,226.856109321735,241.055070122307,264.822063558069,237.157369667625,231.532091821741,247.309667946985,229.87082487625,285.382147158447,243.009961299569,251.865987469594
245.627975757532,227.482287551425,233.755252519899,225.458506781467,213.113187193483,244.966656440907,248.684863038731,295.088441071924,237.281740511351,234.86608052223,234.669978308197,243.132622651147,243.495619922789,226.564076019621,267.409719593783,298.243869336729,288.053284102568,299.732136161737,357.986848496647,273.068528554426,348.572185397837,216.042101337166,277.077778614536,341.420510193055,241.950406073635,315.761976873705,169.132200464042,235.258455541339,278.568978004766,157.034424293431,258.148658996368,252.258373955154,198.30694917456,231.378874330484,244.535768300653,228.403913019483,215.426608069557,188.724426848415,212.073142906228,222.224200906567,219.11780368097,203.126044856922,266.613013285111,228.099452005767,196.508070209179,224.510699614584,205.380345621606,224.676566779096,209.788546599332,206.813233946238,240.005946953408,228.504376334808,237.979495298619,222.187057250046,213.046602909467,222.404204148932,252.875434124029,225.890512476525,221.588637868419,235.750999912024,214.559350868372,266.762965654545,232.423693934733,234.430799847084
129.940406201599,118.981368912936,126.063361718482,119.856925465044,105.957020282574,130.363263060405,135.191317588557,165.901339840738,130.685998537215,124.329759706932,119.439644425621,140.312974393451,129.339658686329,119.588711866203,145.235229444856,172.63585284137,156.821800202502,166.898322459627,191.515997793724,145.376402947416,185.437226727218,74.8440984420301,133.30888868302,178.512847863305,69.1565045577999,160.764509368249,54.2209221434339,92.6293004755373,129.464137087639,51.0478739839475,111.35655487017,103.453522006094,68.8745053939354,110.368131502327,105.417034103919,97.4275112542472,80.6314356733721,54.4955612365406,96.8563651596885,93.6672099271687,72.7432264173798,59.4134025883433,117.512190800773,82.8509477244113,58.2104448390059,119.456763906039,97.5801340965253,113.275608977372,97.9836786326274,94.1670161782216,117.167452964444,110.042684388997,124.391570147299,115.594124468415,105.465052303506,103.912204937064,134.226575020739,119.2780063473,113.401974482165,122.316489757413,106.054823210745,132.696838286027,120.129416674493,113.781827694858
54.217480324369,45.8184124204398,51.1767539374623,47.3371463972068,38.752549598986,55.5863128002346,54.2786724274623,81.1591451482507,50.1775111661922,48.015876640409,42.7033002853786,62.16753612129,50.3360820263143,37.7603510363619,45.6951196208611,73.3234633879451,52.7255309516261,57.6496406482854,55.1272235915711,31.1023656679924,51.0227169774708,-44.5520496234516,32.7972955340711,61.4311200185772,-55.373804945613,51.2836173759151,-36.7232426580123,2.3168248124958,31.2887271402676,-16.1134489088942,22.976648503849,10.151610804454,-8.48518160593914,34.6767874635015,23.5180775948564,13.5456362738023,4.64910133665851,-23.2050010123602,29.4712064611411,16.7015717877949,-8.01784227881939,-22.3926432575816,41.310394219746,2.10731717174691,-20.5350828814478,52.4966217170616,28.7637047710764,41.3824824858857,28.0443593455003,26.9150819503844,41.0867054296346,41.2930140640345,49.1084222807143,44.9226694094687,37.1489948736529,27.8775117541996,60.7281282822273,50.2237463793491,37.975001334918,47.992094827442,38.3925231435336,50.0716455587696,45.4603636565928,40.3408596842861
20.5630556339955,12.8271966947925,14.4697805259392,12.7023921099475,8.12174683143213,23.7682853734787,12.9620083185637,46.4042272442724,8.05895407664209,7.61659683217654,5.0792843753924,15.7070814986663,6.86387318713875,-14.6579807366887,-19.1961843964469,6.38718417203144,-9.80616071497128,-30.4946453083016,-54.4325109439673,-65.9934850847155,-63.4751906409488,-122.191956256489,-49.0180978945667,-32.3462274800464,-114.697869484563,-18.3218637751093,-87.175735924617,-38.7161496896967,-19.7435634195951,-49.0301084032695,-14.7458160870598,-21.5258259131129,-29.1773725756757,-0.520985226414066,-8.03721105750724,-22.3051594857899,-13.0178119957946,-40.8819013188809,-3.22406166891745,-12.7194282228145,-24.7639669105984,-36.2319882153152,28.6899021380589,-17.6889558544531,-38.3633833656164,21.4266613463888,1.23107837620059,12.8128259580153,2.76981429286871,5.17871278371018,17.284433231068,18.2601322419053,20.8829498283888,16.0586073614991,8.90048509154336,-3.28010311425089,35.6062571455781,20.5189973960713,6.97847709265665,17.305392006254,9.54950393909253,20.5847611110294,15.2486369139565,15.768598965163
-47.1494013331986,-55.0076230654177,-55.547764350042,-56.0257924636591,-61.8593940359064,-44.5933788819471,-62.401757628607,-29.0729314592182,-67.1662068874869,-72.6496667589224,-74.5828531679014,-66.2217679392022,-82.8955243133801,-104.149272700748,-123.523687585477,-107.189454979956,-114.768223478894,-179.588588559407,-226.016919437173,-220.588561054792,-252.569590271701,-241.197971005419,-217.920414421915,-220.925464092842,-217.367357865993,-155.028332644945,-161.565370630924,-132.244397434003,-130.754646267235,-120.14279066214,-118.04768529939,-97.284704029639,-79.5011202150868,-81.231434327413,-95.9098649881765,-97.8185832254489,-72.0856131243659,-85.9141120812077,-93.2331430045718,-87.7937192986052,-84.2801302873412,-81.5239587017059,-38.640407637099,-74.050978828524,-83.5640635794477,-46.5281103834567,-58.1306646763413,-46.3391204649079,-54.384241052585,-52.2842848885906,-38.0593934825237,-43.3790433984711,-36.0236148481854,-43.4035883729042,-52.35073136478,-64.1332651377589,-24.9948353153459,-41.8170120286974,-45.9256811089609,-41.5106338615022,-53.0129785960692,-44.5968522034431,-43.7306860893514,-43.619101694199
-138.522733847933,-149.235004799237,-146.486014323008,-151.017808369574,-157.745375243137,-138.903808860991,-159.208385954532,-135.953295460113,-170.028669113065,-180.786714558695,-182.986898074579,-174.181498018733,-203.028094095759,-215.44995641365,-256.439165159328,-248.126393514403,-250.162381920343,-352.71357545944,-411.034434950946,-407.63969775704,-460.627227812359,-403.304256030179,-430.697143422005,-457.11046321444,-371.03261925097,-337.632310297149,-258.68129344389,-266.404672137986,-293.781970496483,-213.323550111051,-273.704543134583,-219.6950315651,-160.422983582691,-180.488480613849,-224.684318281551,-207.203796224171,-173.724757371168,-153.469602573996,-214.015741873675,-194.508754322156,-183.223136705625,-161.651157893225,-146.027727828777,-157.169116982494,-150.936347650152,-135.694781770464,-140.02219530817,-129.62544381504,-136.289139347041,-137.089078715769,-120.761136442552,-128.627296973799,-118.219166090633,-125.688902608885,-135.454863229412,-143.87374261398,-115.651972285869,-127.583062657179,-119.320300273541,-118.776503976416,-135.542942070523,-134.442296184445,-123.271391263086,-129.858233992888
-204.248316448005,-214.962284928829,-208.534618600339,-221.000415206271,-226.255679218229,-205.189093538191,-228.511633954173,-214.634896981062,-244.312950318346,-260.820312358182,-258.538846561706,-255.629757993333,-288.619678729103,-294.053800512046,-354.524031492713,-352.977228966607,-352.455239514519,-462.154986017959,-523.740126792507,-548.935248800909,-585.081555327096,-537.847916907061,-580.068893384381,-613.018992712786,-490.466361664236,-472.571566878525,-318.137349133976,-359.872767204597,-419.803043711692,-264.256685739275,-380.186619677432,-314.268633966586,-231.986882649339,-223.284243726126,-298.821969785747,-287.67595496604,-255.472077201281,-203.52015064964,-277.611720009381,-256.012465920978,-255.062161813145,-222.902407114538,-207.627280453572,-208.072354251394,-192.270551173108,-191.443484735596,-190.831148184405,-189.127999574237,-192.727084188823,-190.94527362453,-180.887498635819,-182.418778933658,-176.032843374103,-181.822928208503,-191.375240261353,-194.70954911732,-182.528748997397,-186.022124957263,-174.247918461713,-173.124661731951,-191.299382870967,-193.918703759824,-178.081020149901,-191.131615804805
-233.355282834588,-241.002317327869,-238.381063601775,-251.594954942032,-256.761919126245,-236.008745680095,-265.376139940225,-255.496307353261,-275.69794613361,-298.723373703689,-291.307657740984,-296.91427818257,-329.632160859115,-328.27328310726,-406.110115752934,-420.384682498538,-421.392641238209,-506.800466570202,-567.909649950458,-629.460844344317,-632.388276131254,-616.332144362228,-646.573122705287,-656.902744547084,-531.893793517678,-528.887386521047,-298.028384043473,-387.139124351248,-462.398169261877,-254.858332173847,-403.306244327418,-345.755613803701,-289.869652820774,-206.798849979532,-287.61098621099,-319.197326351033,-289.511409624378,-254.194976750281,-267.483972395541,-254.41631333038,-287.046937291066,-260.475267643483,-214.450993371399,-227.493418055386,-209.468608979236,-203.93254475349,-200.746485140758,-211.769117267971,-210.139666608626,-201.99902417184,-206.270903409055,-201.21809425374,-197.173807526999,-204.485509614705,-210.257067149171,-211.193080293615,-210.795343250017,-205.492404559262,-200.07074548467,-199.505028036407,-214.668577708508,-216.759420106083,-203.218056113131,-217.185357895825
-229.066733127296,-238.406969997411,-244.102811756667,-250.25513712145,-255.095637077565,-242.352040914596,-274.147883981431,-268.337769686571,-284.398966988508,-303.120493333391,-292.205843608168,-317.654727636837,-349.057791033587,-328.44459784639,-444.831986165304,-488.254443344123,-481.367741219458,-548.464918779575,-581.679111562634,-677.620644440216,-653.756147089218,-648.258473344535,-664.744976761352,-637.282659713149,-512.28969949019,-531.696683195551,-199.418803603335,-371.616671524411,-442.643288878107,-201.94971454761,-384.236630621997,-328.469390835874,-324.92288239924,-163.886368118645,-232.662357527636,-323.346161493141,-282.091079443738,-308.529150775895,-223.424496828009,-223.599667691176,-296.587438195229,-284.028270563741,-210.630439306906,-235.368025517898,-216.192264195215,-185.099925788797,-183.181646826018,-199.792450821419,-191.866724961737,-184.82880034683,-198.102688575677,-192.805004521106,-188.564853002257,-197.745215196454,-195.68847468702,-199.237460231412,-205.463214812363,-193.313863988993,-195.152835757225,-195.100085674311,-208.37161486235,-210.911913546855,-202.646897537204,-211.411575613223
-200.252892115169,-212.68381820866,-225.784153707316,-227.974643307427,-227.291117491284,-230.685289047683,-258.063815038041,-254.502510225837,-289.511330257345,-288.59219289471,-263.947671238977,-340.97782304407,-364.961061647861,-304.859348644014,-491.198018612985,-576.062178921972,-517.667300667971,-617.031398653928,-589.99715180574,-698.816855811391,-665.6169787097,-629.451754667415,-653.908377518489,-599.728756327373,-457.140508864632,-510.481395443055,-80.88897519421,-337.610191377687,-404.211148769145,-133.871995013476,-360.233694355563,-292.779094070605,-321.371782461216,-114.666765654218,-172.772159114901,-319.896425027943,-261.348692163084,-318.809350788027,-173.239752410213,-189.828059288517,-290.909041737205,-279.704896872949,-209.751001647937,-225.807043136676,-204.721447399516,-144.473832697229,-143.169304307439,-157.869116139177,-147.285508843656,-145.871661365202,-158.399010896731,-154.483352595974,-153.754075828311,-159.216106254471,-153.856640532719,-159.775425838632,-171.122688530887,-153.429483803772,-162.747046613878,-157.827945442922,-171.906994878257,-176.030628174412,-175.242045368043,-176.671984440497
-179.807921874398,-188.435705756295,-207.334864453759,-211.680806412215,-202.404930612892,-224.306000646251,-246.844137776975,-239.109124598812,-304.394999108122,-286.733544598027,-236.115138222753,-374.156001431352,-391.873003596678,-282.49252782703,-530.785537150023,-652.622644330113,-512.467482068631,-670.865725354563,-609.286731047814,-683.147031417489,-668.184002528686,-564.882321219968,-621.899741324013,-570.321839588155,-391.349491205865,-487.29803095481,-31.1902081289178,-306.002214245481,-370.270129614544,-93.4069275407691,-340.087809037813,-268.826578013764,-308.420216887411,-89.0928774901506,-124.849766418853,-311.685221430274,-267.142664895711,-286.581570518005,-131.434342533389,-167.794824064812,-283.6094635033,-259.889956742704,-206.402840129046,-211.904567210508,-189.402386218926,-108.895340458908,-105.819183364491,-120.89232909514,-111.82505209423,-110.494897003759,-121.820848252629,-116.180612852984,-120.294931308315,-119.734190907334,-119.446348391939,-122.896681291718,-137.857626735621,-115.563338470596,-132.835054548242,-125.135003742704,-135.04400449181,-142.363459358635,-147.08228605776,-144.870780444484
-189.162290173762,-192.988602890244,-212.479403855775,-219.708978517835,-207.551289805333,-237.90058263995,-261.51269164666,-251.220365762824,-324.740888885609,-307.412313765852,-241.811840820018,-395.527404791604,-421.490703367951,-284.547212942073,-533.334014427053,-654.891494001236,-483.267987474609,-646.748877333139,-613.866676130774,-638.179115868109,-646.782357411019,-484.427417022524,-573.120917546097,-554.12184664346,-336.813735863803,-473.107643645751,-75.1595828143079,-294.815328138406,-347.343287919966,-103.512672600134,-328.93253208455,-270.70593502884,-325.036084680678,-114.27352696379,-106.493486439764,-297.93161175107,-306.637375257981,-275.344869280311,-117.34101828122,-175.020055144823,-285.474139248056,-262.990614039482,-212.606227920474,-228.102114733063,-204.139155560268,-111.031945160466,-108.019433350404,-126.50094320254,-117.951806983943,-115.558606222418,-127.094593442492,-120.746091019301,-123.020793720864,-120.596707736761,-125.086231527914,-126.314349275101,-138.618115733487,-120.457924554295,-131.863826972616,-135.172008060251,-135.877899414616,-150.864997363916,-148.519504031197,-149.726713202244
-206.474749014218,-212.250846989149,-225.16573627996,-232.813044510149,-226.783564109663,-247.959086907203,-275.798548234885,-272.543526466249,-324.769018165946,-314.252261743067,-264.040130072653,-379.16724352028,-416.226610652673,-299.69763651737,-486.473807651708,-567.540386255054,-450.296820887375,-546.997340870889,-548.074784363541,-576.73367990207,-575.49256710773,-408.375080174567,-507.528646887604,-529.824155468446,-292.6512787915,-462.871283377103,-152.635519638343,-310.31481809738,-343.344376632799,-142.75237024015,-329.481130406466,-290.97593063923,-355.261543236337,-170.562100050025,-122.306135647005,-283.363846401873,-347.752875188615,-299.510007919213,-132.96959627105,-213.155308352922,-287.240408661542,-286.490439852316,-232.821040501553,-266.411414317724,-246.316682040433,-145.650492413844,-142.878269370573,-159.368065725399,-151.720705358609,-151.987770709806,-158.268249450675,-158.685482861623,-150.995843144703,-153.079062898831,-155.104642689627,-159.976288573129,-159.5870651802,-159.17494856041,-147.58990091131,-165.614545248167,-164.42913792695,-188.260482386616,-167.764845317895,-177.444115411135
-208.618003738477,-217.360119838085,-222.529948331158,-228.381215150466,-230.159384049651,-235.94935859976,-261.604852230223,-271.332182357155,-293.308156916569,-286.747285771535,-267.787061425867,-334.680226176669,-362.172858903618,-299.519432911632,-408.054478373207,-441.975157344011,-409.026307928506,-432.146867709936,-416.150795230731,-489.745916401416,-461.210954109121,-336.668713287727,-430.966815211581,-474.317077274588,-247.367938560558,-442.580940059362,-201.568852223893,-342.496505487462,-350.658311778277,-178.665308186973,-323.81467891863,-312.11477612789,-367.689126660211,-215.929281258685,-150.525693536552,-264.485866244287,-372.849267149539,-312.211108606814,-152.049787198164,-258.702796182423,-281.958292285392,-294.95013340546,-252.419485705268,-287.059588887086,-283.318322639323,-177.220665742798,-173.355279794606,-181.849948264685,-177.909365426503,-179.69859168005,-177.072877212928,-187.694349310106,-170.271062814929,-179.584077861821,-177.027793867247,-186.349915288621,-171.984517227073,-187.09070891494,-158.112748969472,-176.594449084746,-182.606941203211,-211.526786638247,-175.819384812097,-195.070449417663
-199.504622602121,-205.41894973861,-206.55118476099,-208.738715249941,-213.44650682038,-214.33059577183,-229.182779353751,-250.364108974026,-245.780984117338,-247.372262526277,-246.291269589097,-287.619479978022,-290.224601131436,-274.64982790049,-321.181648557739,-323.14224611597,-347.861672448865,-328.76383005762,-284.652134484481,-352.822919473026,-340.079817111213,-251.069760049591,-345.060505329244,-389.334502001628,-186.78337192035,-394.261453450272,-192.965553140818,-355.533042668254,-333.464500755991,-179.538748906594,-277.984440502212,-306.197717599712,-361.034583672961,-231.079229129129,-164.266642920323,-215.156620930695,-383.93304224529,-285.258465617888,-147.323210284718,-279.717994067214,-261.955673017109,-269.390241921948,-254.895371837983,-274.537341018197,-288.387962495813,-183.105778010745,-181.162639572275,-184.601536012976,-182.086882599465,-184.344454078598,-177.762072948646,-189.907361408144,-172.557627542555,-184.433099478702,-181.244185175127,-189.79205655101,-174.096281837617,-184.083516437049,-159.100730645968,-168.665814311618,-179.978294946715,-210.788939202244,-167.064901961702,-192.680085250518
-171.169320737778,-171.475443975308,-171.256124928046,-170.617001412649,-172.761075621357,-180.307184015755,-183.917486812928,-210.953270611999,-185.489606399843,-198.084908614744,-197.282677761459,-229.707628272433,-214.941393518241,-222.096724215284,-226.59225695629,-209.580529375339,-259.504009812447,-212.829686048187,-182.300200556762,-157.311870711075,-224.128927698852,-114.531822253078,-225.888433701403,-284.279140153106,-81.4358572647901,-291.541376607989,-112.249179519419,-300.68806207118,-253.235223126275,-121.738309724739,-164.455745657974,-235.466419417803,-317.910015780423,-205.086347289451,-139.575837731712,-111.975988063487,-353.317706973733,-210.563630358717,-103.403078759394,-246.943498576876,-196.052847605479,-195.962196746995,-215.205398974039,-221.097082229461,-234.664004700668,-153.971551677602,-153.268749596574,-159.363468947961,-153.639621797878,-157.515891575228,-155.221161255816,-158.460270495231,-151.207364822359,-158.838279615634,-155.630953283207,-162.202553558318,-157.175365087589,-148.261443490903,-139.745670775265,-145.135157688602,-154.277181743212,-183.422782430815,-139.052382690717,-161.141376022689
-112.792570652451,-110.962656413531,-109.648359413905,-110.734089518254,-105.563211950901,-123.476817633967,-118.485859425761,-148.765562557875,-112.276511556444,-124.964597650695,-126.138446982976,-150.633472259428,-125.94853094633,-146.508403613437,-121.48428283296,-94.8449097186987,-152.207003513221,-82.1070137968842,-90.3962641916642,62.8257139604744,-105.210880577008,69.728403483431,-69.8832427440594,-162.073400754658,57.3569687130872,-134.102772359025,-6.57453656384749,-178.490061146681,-119.532611215168,-65.9917625293944,-6.94564465669957,-107.673352327737,-218.527418310795,-147.02332289203,-80.3559098797676,8.20942578020859,-262.280970314187,-89.8850624527109,-32.6408480163181,-171.787841018762,-79.5874871229723,-79.2417337688468,-130.397381548565,-125.575410174644,-120.703423130139,-96.4910202275928,-87.1110335754566,-100.229065623846,-89.5682819148318,-91.3930123877325,-100.612173156328,-93.3403259036116,-100.892713350279,-100.177390960029,-93.0369881673979,-99.8689949761547,-109.924400192469,-85.6494564839798,-94.1181913283618,-96.3962278298024,-98.5231232866036,-120.6748051288,-90.6888163590174,-97.9448259630182
-51.955699162749,-51.2471565149155,-49.5543861516444,-51.7337959477923,-38.8695997836077,-69.6639873145392,-53.5891205155629,-86.889379932394,-47.6784150945905,-49.9937350781379,-65.1531193688764,-77.671232245152,-34.7519009523327,-74.563636133462,-16.2669483688697,8.85532926574166,-48.0197487074707,39.6040333033327,2.32309839274438,258.312362728835,22.0815451799604,252.280197209822,78.3097703802642,-26.8161269235886,165.096147171197,32.7127485641594,27.8410097945796,-30.1529050985711,9.80614706695918,-91.2861455748804,123.086909352038,-2.05114328963538,-97.6210900989965,-100.610837331083,-27.2388648812821,83.3258142621674,-149.755609564847,42.7323225131104,26.9844669111565,-108.002099739001,40.2825361594623,31.2677231874682,-42.9537684770469,-23.2964051157583,4.888818811453,-41.8458532380778,-16.3118055009708,-36.8909017596258,-20.2242138293234,-15.5502162294673,-40.261774516741,-23.28092769752,-48.83329639329,-36.6261804193505,-24.7202665519873,-26.2808505924654,-55.7376484956637,-22.3344737034144,-47.5430073795459,-39.7786820036309,-33.8677465078747,-47.4400310486314,-44.0320106446652,-33.3063015357642
-10.2172260928888,-5.05729110984139,-10.6300952660701,-4.2470373297198,12.8942012671201,-35.7624330339243,-4.1977589234232,-33.0572246941599,5.3032303584709,11.4406169902321,-15.8270008918213,-20.0735988930535,49.2721991884317,-6.3185130058097,86.7346464934452,106.411267807691,54.8409438560992,160.526116885791,116.315316497704,422.438580946904,180.805941129874,444.798726223972,215.376690996672,133.931522048683,253.141740392237,189.601186994525,-4.66916045792782,147.661524954194,114.578330799473,-99.519303555469,207.911533770187,37.5482761163256,31.6016303415478,-65.9648785827594,10.1291204602715,135.644551467525,-21.9252381419138,170.381591348368,73.4714683975308,-58.3821861148404,149.349350908811,115.766391708023,31.4846972760671,68.2387535407255,112.521779725254,-0.934690636016589,42.0152335810214,12.2216316043659,36.3581737286557,45.3673153910272,5.1371307136651,34.9500407701285,-11.7881402647429,12.7348314361948,26.2668084172096,39.4328854013538,-12.1852725260692,32.5889546460105,-14.2056041825194,3.7141609716662,19.4277990372717,11.221327066061,-10.9109991537739,18.4292356831153
31.0670036318333,51.3249928233351,26.5762469491379,48.7643197598173,71.331327074625,3.41940850622939,50.6190635504548,36.2829723326627,66.5878640660046,79.2561323573673,60.9441438862633,47.4584355469436,137.755708722401,87.6868307792918,186.463620453385,212.797105235077,176.30733152886,298.295026081222,275.807573418251,579.765878988008,385.463919442054,682.645858015902,398.888533281361,343.785677270437,405.347748448849,362.354134834452,-0.131624484242456,366.491345651888,236.595094483812,47.8309868035173,303.882267487165,75.6745434900079,223.264450242304,6.04326036222996,50.6308120466445,228.936087322009,185.19623539935,317.745287242874,135.970446753025,31.1042169302523,277.885997071268,222.757201817852,125.652289669095,180.099006034907,225.414851451317,47.914728848866,111.324416571623,69.0868018713515,98.9094961497176,109.298685164441,51.8888055793711,99.1185266420834,28.737366639303,63.249769894749,81.0786750564465,104.820576094619,33.4828608016469,97.1582860472823,22.08517603032,45.271480921537,74.5824680562161,71.134705539594,24.9189332912595,78.8803875561413
87.5957946956918,124.144208178331,80.5466375072752,116.137647306489,147.317817062177,64.3379006741595,122.715262795703,122.091108284771,139.08077031646,163.543867943334,167.628455465744,131.781656059272,232.18497676426,202.166398558359,279.803382669741,324.130155196211,313.507741422759,443.869495522739,461.916281419164,741.224013993874,606.69806434333,897.051400349477,638.876465843919,596.163825592434,603.056295266516,545.60922814737,75.7661146831612,565.643312919972,390.674858617333,243.571815873839,430.204463887576,177.447085714058,474.254062226763,104.338863798676,72.949230653419,332.994818533247,473.525564645367,469.152834080709,200.723180814199,161.14740924354,409.145344832206,367.335645517156,239.813937143023,314.741001809931,342.871566604824,110.951279958131,193.882579611089,142.816577516151,172.121149653401,186.359671534473,108.709960157001,173.619069930653,82.1800819266329,123.477101509746,154.859484868995,175.730822164699,87.7194330257658,169.438488527558,69.5870230253973,99.3289406194371,140.827311628866,146.069854884416,75.1465241762074,150.557991354095
146.773726210132,189.217943094813,142.601672810294,184.677989998827,219.4090267114,128.478600759525,194.283693889132,197.896421899423,213.067533640518,250.5446870735,262.278002694896,221.895983802108,326.477548819409,303.774021000358,386.849211646998,441.829247192296,441.5398193525,593.127252456575,628.851440950136,888.84401523349,808.990610823477,1000.26343556018,874.988140744677,843.287399722367,721.742411601324,688.514450718828,167.249471857009,672.75716581494,513.461425366243,296.638673851137,526.677698138161,300.462556104364,664.625165015918,166.445182091593,50.8243863376745,359.08391836344,709.668583556012,540.664445522406,223.235146391734,265.658501152294,478.466160522683,466.436442528577,318.51400061187,406.380070037077,397.169390938366,162.369574341322,250.411541813563,199.969643487291,225.558884099543,245.226057794231,154.067339275182,225.483043448901,128.794631188128,172.370524593944,217.566781994245,233.114920707793,135.49250778992,220.422131367179,113.679292839223,150.35517412585,195.95802231336,207.758023001838,127.608660527633,203.573391648948
190.76215056257,228.684966219476,195.04228007293,237.713838025483,264.280501516585,178.976916568351,252.535385669875,251.481901359962,285.479012867692,327.932463603564,323.405289554154,325.249205484807,424.60833205892,383.636460327687,543.347612325077,576.497396266112,559.318338703175,752.824972390428,747.841607505626,994.723932803749,975.514367370953,1020.17279721198,1062.76025751067,1023.54983724256,714.997471779027,746.01333048752,236.765084653067,684.870155872624,526.725739093065,243.186284027993,539.62252588544,357.812355874221,690.863670972448,188.562522393942,14.027122621797,314.132081429361,751.247732937109,477.363339735178,195.975226198413,313.865879883475,460.233579660797,434.920868781607,324.652625713443,397.503914674491,335.047883030291,176.612612096475,250.081642607138,206.235994132565,231.065202236583,252.463638983425,166.053978744752,225.433630229186,143.520745756123,185.836291927588,230.819389768134,246.85875199197,155.476514448302,231.486029842194,134.857663046975,170.880339339074,213.811567655115,221.283250343934,158.364593103878,218.042243240595
227.122698494975,257.708078108693,245.574528632585,285.880923146241,296.632839383754,235.036047020781,316.029349823106,305.236817421697,370.911073324628,407.500125965819,376.770378402519,468.078290057903,540.177398362672,464.037630353969,773.57752381444,722.020433658193,718.653354671505,913.656297570662,818.317605508106,1077.82900260201,1097.27372965482,1052.91995909058,1209.27064563694,1108.29612778961,690.39043265974,716.150578956182,291.785291234364,643.520938468836,447.610734216633,231.961057511647,490.995378983109,347.275795296728,592.090081388181,216.709300009304,16.7224385091451,305.908386511614,616.118745809405,335.567861122402,153.571862297064,348.104147382258,398.250260980503,309.389031873176,293.375928420404,324.433306524552,210.636390174836,165.748976404857,214.226851104774,182.246013967952,204.547449699511,225.39133273298,157.944128193202,196.228886874473,135.426821184696,175.660100368514,207.757223336384,222.603416146161,151.198730570472,219.209061438102,139.29723267539,168.23217481607,204.646899724832,203.85770525556,167.727342032667,212.384707015738
267.552000888223,296.364407490069,306.110129672799,343.356740159922,341.752164123728,312.391070415768,393.384766339167,373.164546428697,474.267104978442,498.350105885664,442.90072568902,637.456254222617,664.977801515474,551.640124461135,1028.61794728374,845.507831728563,939.491196615836,1040.20998410434,843.453113462092,1181.26070292011,1168.2540091001,1149.36548875058,1312.4011438047,1122.17330712119,762.642912668325,652.794290000536,346.523219006139,568.321398988181,406.0362875357,271.21073723252,423.713490061179,372.002853906436,489.778314572107,255.336061074058,78.0815406530138,375.255036318092,459.103109729265,220.322186557613,122.64816825901,394.25865844542,347.195885048658,195.448124423639,275.224481350118,268.242597280647,117.772929798061,155.346645979765,180.450283084025,169.314629880982,180.599989749184,200.630914023589,152.305611331834,176.208692892963,132.841558651594,169.399552420931,188.15750705133,193.630440157336,145.658260615823,204.675878271112,147.996869186398,167.844716977467,194.460763234531,193.244484927987,174.593593094658,209.457394418508
285.704525156495,318.6447127954,341.993467301239,375.604469838598,371.199249694844,370.196899839312,438.446948204076,411.71015186298,545.062707857527,557.843587340502,485.16648129267,747.98982325724,738.346350648162,606.641293301743,1150.05287864586,894.838897731532,1123.29747957308,1078.52415185618,815.20866040945,1254.44562699784,1176.92027066834,1255.49324604546,1318.62449127838,1109.36783808414,877.665425336439,635.122187198549,412.972621793585,460.666645859528,509.473057122258,304.091854889249,352.026368499573,504.331977622389,439.319932186507,282.502263988593,174.978873239174,455.13684493489,379.607238396054,164.383943976326,107.377461360262,424.154683759415,314.902938248793,123.383304979337,267.449198923036,241.447484632561,67.3076084161763,134.687191967022,140.414213632147,153.713770334398,151.156933111537,164.831379623618,132.556800227689,150.475696191475,124.276879722544,155.085330243523,164.025250112821,158.345523567365,132.002257434217,173.670937534241,148.461259186711,154.93404174014,173.628890379644,175.039452568587,169.179067853662,191.838854365153
252.374325886019,283.412413359133,313.88512080847,343.309420210999,338.929999215625,361.857400436427,410.481484080922,378.222311542933,529.953273832334,535.672420138621,457.371040326874,733.100241155694,709.455376346559,590.623395292186,1024.52934794205,851.475315622869,1155.16890527558,997.097467595889,740.456296056455,1175.8726095342,1103.62291559623,1247.22482354668,1189.4333475541,1074.35093570154,881.168575498574,686.697092708759,497.98686831515,366.173465186154,695.556446256748,356.386958150334,317.145416585617,649.250495240143,399.757452623348,301.583281154067,273.892713840954,506.599185751682,332.974575015588,124.775072321173,110.228925616256,435.095863466044,275.418253127199,62.5456885052501,250.721358742917,200.498432903139,25.4177450543345,84.3873134611343,73.6661957449516,100.68117178133,90.3416069448947,90.7438414219244,77.6113046499162,87.7333846745768,80.8432568628304,105.03594685798,105.250233856484,95.855256509292,85.5540668909787,109.405459830395,111.578947064802,104.193219186786,120.350231041578,115.615495712058,129.618833980399,136.585230523473
181.328492201827,197.996443006392,239.076625527061,263.197790446748,251.817106095854,298.664166617845,332.811342087258,296.034657808764,445.888638061892,445.459247021762,365.568685272907,627.469664980917,604.40348232248,507.77569094643,753.719591560769,755.977408134157,1038.07020489318,830.25981229026,634.377734035466,937.321992240548,939.225062856102,1055.45517693302,979.035233716951,961.429065135017,741.819962454571,734.997980152908,564.932282792963,343.553212785172,774.618740532581,430.485346310645,351.585824037106,646.290646965386,326.876299811147,293.114158702786,345.364848515002,523.686391216188,245.017760227426,66.8389727155941,122.142230181375,448.210644546737,211.486428795691,17.2193691666855,229.039549626376,134.190122655664,-5.99642010487944,18.7126288144183,-0.189696778640225,22.7279983835497,11.2364587574167,1.03330268087411,7.04320087921294,4.89876870651638,12.8189023543537,28.4594785927466,24.7188447348239,17.260558604652,14.7589144696125,26.7946908944035,42.0597458819647,31.7750137278742,45.6548555822247,26.7316688339459,63.0001550934967,56.5104749492079
96.7037312824441,96.8878514603942,152.931260550922,166.307880290248,143.909244200674,212.418908150968,239.067743867182,199.837001026694,336.500668719925,329.658944264149,242.450626990412,496.941055149369,472.084830397749,380.942940849973,527.268511969779,644.66048611569,837.458301249227,659.416232439715,502.085294776132,675.321069865428,719.540603581674,727.827890439773,786.853161374779,740.432229953393,560.789007864884,693.505237635468,544.372557378993,360.822723935806,649.7724885992,433.402603953842,373.586119169184,484.197174890197,233.972766747654,219.504538103178,369.784505051565,454.486733739117,130.421345107606,3.20929293475478,134.621010767913,445.559118244068,135.840704281452,13.1762931669151,212.457964490023,75.3673198912763,-13.4653276924384,-37.3386053374156,-54.636057136415,-45.0907054432313,-57.2874846915095,-67.3460234265463,-54.1648880469095,-64.5780926716062,-54.5608852285521,-48.1353911723941,-49.9171894881499,-54.8141777403697,-54.8635740838577,-53.5623681345355,-35.1490900248272,-40.341938275246,-29.1396386794868,-58.3527857097268,-12.7124327877405,-27.6833317582979
0.1003571408284,-6.38456691469473,58.2647436406693,56.3361865400771,32.3521997612958,108.642529198778,128.855590450999,89.4740093499336,212.123067644548,202.201463075091,113.637336195639,351.677153038512,323.939699524842,240.185516806542,385.903180321588,514.830242623653,575.937115182953,527.793709652717,382.743205286039,484.190804114652,519.850619572018,365.948379105432,638.166996899513,483.169726486405,398.084771865092,556.433336810813,438.862653227321,325.672859927487,416.070356825866,330.9470741799,286.184452702615,280.758803451338,155.257708803843,123.890163160848,353.252486311872,283.604088689483,58.7979844038059,-30.45298428941,170.866635709323,412.678210011711,84.1086698896042,44.5197265941286,214.986099853227,48.5853519283415,-0.576364339012091,-80.4354108670009,-91.1649970549518,-95.3291598247462,-109.010365647583,-113.396850900588,-111.993319101133,-119.509515572791,-122.115371047843,-117.992053551288,-117.679523185774,-117.469747686138,-124.885652542903,-126.15540161665,-114.984070061476,-119.200006552664,-104.694863685909,-130.103484183449,-96.9017712165146,-112.095237919513
-111.110872466127,-110.325015472785,-55.1542866716539,-61.4635540427695,-74.0591994187495,-14.2736181270281,0.736026615200315,-33.3182471845682,71.8873525271115,64.2997510923161,1.29612861763142,180.831423646533,158.451536858054,114.826715376794,237.170265837884,351.142260165637,284.498280420514,373.114624045813,324.609912393974,337.645199177302,370.228058493296,74.6966645630667,471.162731651272,278.431133375445,249.556539692708,378.737780461798,346.447696609635,221.772660608221,209.916979058416,220.064442475715,128.021730521988,115.72258917677,98.6519356233761,97.1082705552267,319.559028392574,105.494501486998,61.9653682083504,-22.5498233675574,242.94924940552,379.009179477955,74.8861183005396,70.0983574943059,240.982170963779,37.5727349261307,12.6813565778676,-130.842892415774,-127.527810116634,-150.2311773695,-155.969135185535,-159.157295273091,-186.509029014669,-178.722048575853,-205.86387771966,-191.887432957469,-186.933543250583,-178.972556547758,-214.590481933245,-196.767645587344,-209.590732589004,-214.432705751992,-190.205479232982,-202.231782236477,-197.741864384974,-199.456321438972
-226.250217550559,-210.19478987381,-178.380764127543,-171.002799067812,-169.675210740336,-140.87847061975,-130.683699392112,-156.940381454892,-70.4672267855691,-74.7056524645171,-93.4078284926727,4.00216238832693,-15.750384307272,-6.55520219072822,22.3265763390347,139.606821722981,42.4720635643528,113.178852389955,271.411226420499,190.37728609834,218.499293310285,-90.0673904251171,245.493989821879,122.311478061688,118.706340036715,199.932265945865,318.226810110751,109.345710898279,59.0516321544388,181.096912230499,-18.9017719076474,-10.9885303353079,49.5409708701116,137.215455357514,272.167889130542,-15.5008132406196,110.047295743786,-13.6876581029476,298.259830514988,347.112202545329,69.3450146151038,40.1709800819258,241.40306042927,0.0227810047702111,-15.4157506443022,-224.574947623071,-192.946605770957,-243.456041369385,-226.679500821357,-230.420040191146,-294.403399702472,-261.910394783995,-316.562807177684,-286.846164606775,-269.93306655874,-257.388358521325,-328.333660844984,-283.483673557284,-319.430564260329,-321.296204168174,-287.130084190772,-295.594830562295,-309.886571246597,-294.982218354914
-328.319234229556,-307.485102641677,-287.230916284056,-271.322010572652,-262.522599748661,-249.189742800506,-252.215453134197,-283.391688615723,-201.420756855669,-207.734468785712,-197.85231032517,-153.537114994889,-187.050167371349,-157.605553842228,-219.149059719622,-107.904725524952,-154.665468158383,-175.953909469536,117.067229149604,29.5950684578545,26.5425830116643,-189.212286319121,-0.370241223510177,-41.6574914711347,-10.9428972848964,17.6927409422569,283.625915809443,5.38904502418677,-87.4605240959175,164.432280961633,-163.574840408988,-132.349061569387,-20.2310975275045,145.372175853077,180.305235091882,-159.11657748694,130.992619173833,-62.5806037935602,261.710312125329,258.121491336689,-0.788624918672968,-61.7770260693148,141.410086903361,-92.9322518416252,-118.337195691869,-390.75545542977,-323.127611299004,-396.503683729317,-358.02443494429,-354.074352862891,-443.9892184997,-388.925527985803,-452.248538754626,-418.577710006727,-390.366511160809,-379.488430236565,-455.215824425746,-406.873660915199,-428.525469960925,-435.205411998715,-398.652790719669,-420.978974123176,-415.879951675239,-406.171709637687
-389.995365151236,-383.293459971692,-348.911435853597,-349.449193407964,-343.25844012919,-311.841930915707,-337.708644787592,-388.578677801909,-294.755858769688,-310.255965902279,-301.299719754683,-267.033611006507,-318.1789354939,-299.176208707639,-366.563286978069,-304.104861509891,-380.79196833582,-285.656430122564,-80.3781291741771,-119.1063602907,-153.059078179261,-304.294895789694,-200.555170182875,-210.349425966608,-159.455107569722,-159.308830279346,184.936140371346,-112.819882398246,-232.8260394974,93.662084454382,-319.014569929201,-249.617135885041,-118.165534529324,71.6534987716626,40.5111235148931,-377.782216037092,70.4171614251261,-158.08303397981,133.873359146979,95.4903003583482,-122.641088332146,-180.360280755208,-38.3288265760615,-200.337740463957,-252.110966620808,-577.633152380284,-487.406237106462,-558.632121544907,-515.606775695803,-499.35667496394,-588.175473674708,-529.4042480806,-567.250741326603,-551.442313153496,-520.849025338567,-515.51688043868,-556.492964538853,-533.601859305238,-503.150572647851,-528.793388404678,-502.387092609407,-536.784083844763,-486.909812535238,-505.118700606998
-358.00453007114,-366.681566596789,-314.533417775226,-338.377272443999,-343.339070875907,-282.526104361816,-325.453972013704,-388.694212262442,-287.521607037692,-313.160680889592,-314.41636734971,-279.503721437266,-330.573918022383,-310.822765606563,-291.330692897947,-315.65281649046,-524.781124460364,-139.392916994333,-114.894353527004,-185.380479528516,-227.087871179492,-384.443962281873,-315.685314129978,-297.499591593065,-265.329086023333,-264.250817052587,90.0598230068709,-206.097210851018,-295.626099677386,0.456920665768163,-408.635839624405,-282.657996538375,-168.128558770878,-18.6080358717481,-77.6899941424964,-541.191289832967,-11.050601178273,-190.441631484961,-3.00953904851751,-61.0347721724116,-161.883709869612,-201.714857760463,-159.008199732817,-209.065352868084,-284.127688413111,-618.046439825096,-533.387117442342,-581.9093710532,-545.681875853321,-525.377595377297,-592.518691199506,-552.740249092222,-552.143651967203,-556.969383223411,-532.099450460078,-531.615605557336,-537.097583083105,-542.438865859564,-470.215373931559,-511.065116973623,-500.47636154333,-529.937398782984,-456.62749862157,-494.623334202366
-196.301037459074,-206.77642584973,-157.051205567542,-186.967486899473,-200.137233161885,-137.45940594423,-178.083611476975,-237.258081676595,-144.444020295845,-172.191950640507,-175.617744033102,-152.993058606929,-188.560727898265,-144.683963018495,-16.9826348501912,-114.824820961298,-360.558917751007,93.5286417771905,69.8483324990048,-145.267674370028,-157.736243721487,-338.75789701956,-343.658727887099,-246.393410353167,-262.475215130227,-247.526884054837,78.8353251847882,-218.261803463401,-235.233691811419,-55.7367650443844,-391.246560975424,-174.120248088249,-97.1766180731142,-70.7998569451093,-132.797140811673,-536.914246242161,-10.1634534236072,-95.8689514362554,-118.820474903337,-186.036533271569,-54.187456614658,-85.7942046398021,-177.936106937207,-100.285466094786,-147.946848523295,-397.609430478948,-348.216215462903,-367.970871640864,-343.065738754144,-331.345828570416,-363.235655807242,-356.576335782101,-328.019747268766,-338.117643274274,-329.343861349809,-330.409859216256,-323.129252418667,-346.561842799807,-266.982000220072,-306.536250589559,-304.279374565334,-325.873945528876,-263.513096553494,-300.776182844808
35.6843053779673,29.2196036947698,60.7267304094276,35.8355915234642,24.923293371065,58.763029093262,32.7001796251996,-24.8641437444223,57.2892039179539,36.2969069760711,34.1280070539866,38.2973458253983,15.9673104145842,78.0046308366981,237.412799623916,146.784737806519,19.6454456150971,217.044454730664,291.382634248157,-92.5644154797525,-9.83613495138439,-224.146200434806,-319.866549238951,-130.246596265695,-217.032647894592,-174.827617054729,99.387947987328,-200.595621824869,-140.40064632254,-116.133809875924,-354.919818229534,-35.7571056514567,-6.26653677970925,-137.704897977759,-200.387389751528,-466.240370732832,17.2623468025744,0.0789366324696896,-284.076608836654,-387.872414745133,30.2729000946576,20.8659258113606,-277.696553729722,-64.7818238281811,5.85821533375821,-47.3305690674869,-65.5986788418941,-36.5784075015236,-39.2779562314424,-49.0340007304471,-9.91131278233681,-52.8116760791625,19.5373046178815,-0.83540903795843,-21.9896453407969,-30.9001464048106,5.95744149367853,-48.1542689263125,45.7531254608804,6.97333816875522,4.75632315268119,-28.0285002136426,34.6802654069081,-10.4740298220634
227.66089954221,222.968231790952,232.145899352776,209.891514743816,203.324725126693,205.045237712857,191.396905440338,127.782605300154,199.117559356787,188.92142558721,187.269657810914,168.145879620706,157.568000606946,218.906874409723,296.713019966436,303.958061594046,245.640804200034,225.809424195513,403.929689017118,-119.231967602665,115.882183017334,-173.186495647973,-281.684056653087,-46.7702515037058,-224.556911937882,-132.521152044999,68.0843430670467,-223.716070886404,-90.6101479321537,-214.225695291603,-345.906661937813,3.2952387724841,-32.4516633932936,-245.073002874284,-314.428415156754,-434.767797525694,-36.5626683461713,-34.4246988921299,-477.877616767119,-663.718233980777,-57.1394300436958,-10.9415396218564,-540.155326380598,-221.075323783984,16.8794563063115,217.388512181275,105.439162086586,213.548375647517,166.639537105317,125.676701000149,272.678242205536,161.534020885184,316.524980310981,262.622622178742,208.922026786201,173.736151102811,286.283014619871,177.327113878986,324.950344966301,269.038606063387,251.971346371502,192.574537542612,295.872082306249,217.675283281289
348.662302321207,347.809704871565,332.562956097438,315.879746135289,310.912657854884,282.836079250706,280.08418303515,225.633490270477,264.588384508737,267.45980175002,276.372128358879,212.013514781991,223.299163043726,287.910592693029,229.984782290096,350.703768638278,199.447976737552,232.220942496368,454.792075716039,-185.845347022426,191.533427893322,-196.73297883035,-219.647143250187,29.7802254348987,-245.690411312366,-82.7832634122401,15.2925020087255,-227.389334994019,-19.7558834517931,-256.417853335284,-253.64885899116,31.1323102640454,-79.3681519445655,-288.857007806043,-337.79356371862,-332.60286225386,-71.4959696723439,-82.4447178667555,-511.112093109689,-768.407415688683,-152.939234519347,-44.7798989432327,-678.515448889106,-346.352116334155,4.23453615820379,385.524027009402,195.217797186574,368.977761125876,288.285793640092,224.283813494131,451.485223636869,285.365214911709,507.814379031042,425.188468000935,355.020086138879,291.546572110333,468.996216639315,317.506800100986,512.15545998257,436.457768460465,402.640565822538,329.38438583232,465.838457817574,363.239626631114
427.719365376007,433.400012881768,399.370091046007,394.609009253363,394.348675036757,332.716714876379,343.470593259891,317.387518815129,304.792748775091,320.531322892314,351.606625997192,228.921478768945,264.278862092162,344.343670282853,185.108909820548,362.023072433037,69.8416265851568,275.857080662773,504.336192242289,-201.603945182913,231.820196270221,-219.16157726461,-127.939421507523,144.692397369061,-214.248210562909,30.2049522430926,-53.8596948485307,-156.226750797998,133.31970308979,-194.172963777154,-26.5616232331001,166.944156272362,2.5429396489418,-226.146555002492,-204.108448843367,-73.4861615246415,40.978999559147,20.6380920609626,-332.37402353592,-582.934324549714,-74.7636411371028,77.6164838258035,-481.786509451792,-231.547022047083,133.27022199736,527.899682946773,322.404318381605,502.946315637066,417.14864023531,352.419294758062,582.578715516091,410.35688251722,626.148336983285,549.416873267705,481.993550453724,415.708823110213,590.033026899244,440.732796689344,624.306840175021,549.264496484793,517.448718298383,455.428563091054,572.602948779157,481.33104653993
448.86015455373,455.919334684488,421.643874103157,422.543742382397,427.518466952193,352.435777214575,368.88315350043,362.417047391131,316.691755203076,337.776158981578,380.981004995171,231.054470669408,276.05264425044,359.034091397296,172.421732369541,355.904198840092,-61.5779943282784,316.965097189517,507.636249353616,-161.455950625136,225.504838516742,-238.33645667169,-59.0107748774187,229.850513162039,-180.561365766596,143.05424165975,-275.74511415187,-94.9053231714175,282.544005527785,-147.334140571021,213.859161626217,314.01488840242,119.542199911827,-196.14199496961,-82.0139597390415,179.328609768767,181.246879249447,196.442493879615,-168.089222237909,-337.00924033223,39.4770366138696,233.059984151763,-212.193772652282,-52.8179784243494,285.662624644264,560.214907213372,398.25179259917,547.467009550852,475.074256565825,422.178862848711,611.290281133271,468.68289495952,637.159348436925,584.439182791484,525.962289485734,477.322256158917,614.10358786294,490.236878396957,636.391195748474,574.930773571609,557.817365551558,511.503545061284,593.216610392057,523.952166611884
388.812402978274,391.932926896194,368.797592908048,366.564845613142,368.996974636248,318.455209116432,326.910688274296,321.019737851984,275.303121451693,289.230880331927,324.227108558976,196.772449620841,236.14187981465,299.29766525389,144.518671363579,327.743687753897,-245.799928417716,342.222879848103,441.714981325761,-127.094231590844,191.34007300165,-301.722775444463,-40.7109935670804,231.89836662087,-203.303513807418,201.493378118682,-681.708644050289,-73.9050742957346,356.621985820019,-197.585537176836,400.532829046008,363.74063936645,129.22777543893,-281.635696323532,-82.2296880964063,293.443248510413,195.972765141413,310.646839220425,-158.844941318046,-216.490732315047,34.8097648052281,268.108308357001,-129.69865923415,-20.038837268441,313.146883786873,416.678311924621,312.781128616563,430.963117980842,377.615114545093,337.328864211297,485.220869317873,376.652894790613,512.975705933052,476.259207981131,425.106777870593,394.232669094627,504.879006680823,399.58188696363,529.495179875666,476.617050716273,465.753654594764,427.000180187126,497.06136801334,437.742872674686
288.212840066643,293.665762235752,273.109394625304,271.434022280703,268.497091589684,249.010958637979,250.135723454784,245.875338458244,204.877420867255,208.229534135954,233.231641037492,145.163241941627,174.263212173477,213.830731090144,115.970085227932,297.360139950846,-374.824372598675,337.56751867547,355.918637483029,-128.407079710382,170.524065672543,-385.131221742257,-35.372183894277,207.750695998118,-249.118722943355,254.290128792711,-1052.85991002135,27.2833028430562,406.314315043362,-266.379230751842,578.566397730677,371.943258335046,77.0127370625243,-356.992736453333,-79.2309054471045,367.366214576843,118.164066710271,402.937374829407,-164.575159304602,-113.279089095986,20.9022038156091,269.896545675257,-81.1103852826195,-26.4624865639511,319.759681405254,240.390544074439,183.636420317748,268.895974587169,237.711532467268,211.878583276101,314.348988564897,240.989186971203,345.16763296665,319.84066042202,282.794360481741,265.46798616395,346.626567771813,260.923860167288,375.999940486019,330.869506525722,320.208548452667,294.448695708665,349.72861283216,304.92115345586
201.808333629058,220.282369649973,190.755449517773,195.642694608196,197.414412107364,175.387743592305,183.179298156488,190.729145697737,138.98505756071,144.066438749575,170.793753972001,97.4667178848382,124.89059451733,148.561431896843,92.8395925930012,254.15733637125,-287.956014801297,243.185234617132,267.363209268823,-143.593896905834,133.652014239035,-414.624707029053,-35.0018050344349,196.514616948434,-267.904434961716,316.037400872731,-1175.71247457548,234.52932857659,453.7726291484,-285.529927951811,710.414091205872,368.888528729785,46.9741973007015,-300.867356290044,21.9119383985099,463.851647148217,-8.63235845762192,537.145116726067,-60.9792956813945,67.0892335134887,79.5645928373095,349.27557916367,86.3549791905337,62.8631235163065,421.032847927169,188.940856921546,166.34819609153,210.607329852889,199.211427898916,187.492711315102,233.556791789189,200.899636427535,243.051713698982,233.793327339167,224.582801637581,217.838583068243,247.732501229628,198.479393410975,264.162739485655,237.301155161154,238.041259892525,235.885202128101,243.974429240395,231.508399133562
144.318546670545,175.760788961263,133.746284165657,145.611453899346,162.173856670545,105.80670874366,131.577430299583,149.994707864031,82.8392484824395,100.051256541208,133.669806427609,35.3616702902849,81.3225217544029,95.742821675176,30.7338327604912,160.669739696771,-98.1927650888918,56.2929670221919,153.34672435107,-156.258481551928,41.9506551123648,-375.778867594709,-75.7125917659813,162.269301568038,-248.303264274274,317.581674712111,-1031.79264657128,393.85361859762,434.898336216438,-272.26792949128,704.197409933237,276.143125757898,41.123414767575,-152.518978480455,131.744076921667,482.556018196475,-204.907464155213,660.924215895622,78.9015134144436,224.034229421176,82.0874777718744,449.380846854531,215.29650978346,171.248900665385,537.106098098046,245.216574515234,240.344194722361,250.333439519165,250.882592000334,245.36767298161,242.262029134566,245.427194895302,218.27494859285,227.489953173198,244.558044727399,245.051312372404,221.283242052941,215.93936342461,208.214579490249,208.594928654701,228.278104703271,249.726054861387,196.02060976353,224.210268193472
108.328278584926,143.077843855358,89.3779674098199,105.829216036993,133.332428616608,45.4197795861019,87.685388341052,111.884673418133,33.9963497470704,57.2129043747071,97.5846509678113,-48.3294799871882,28.5888099781827,44.954621522022,-75.2602968451288,25.2386004105288,-38.1850190636021,-128.783961945599,16.8108863949367,-180.239876858258,-69.4438598829828,-321.785190773596,-150.222000132164,78.5292467218808,-205.4293983323,229.09647002852,-715.508096813159,406.615335123739,315.329910959624,-217.433769504012,566.952310762043,53.6146468149112,51.5331167901863,-0.01072881402132,163.446908612384,363.77606774631,-406.964370082377,695.175062807008,148.628680307667,256.08294855471,-56.2524357506406,495.162900776723,151.826734604427,214.473954606458,558.78487689632,302.549573373301,295.573029238033,286.406034921084,293.471951009992,287.245609891208,260.673426540188,283.456279435029,219.255659676043,242.704886578158,264.133227460051,272.121927455673,218.82862821377,241.558450143298,176.747757825379,203.464574288932,229.799706421857,267.028623131538,170.546979924106,231.760216017445
77.0801139427556,105.560228626984,49.9104536121869,62.2832011509303,87.1888573491934,0.322558987240155,42.7666796834773,70.6555111004315,-13.8794613804117,3.51001694624151,49.180504117673,-126.855040202266,-37.1940831176421,-8.98105638915527,-175.958271123439,-110.316037940482,-106.400350767658,-252.90684637403,-131.178980191131,-228.600614706387,-180.658340889068,-301.145527828476,-220.483254936481,-52.001151644111,-183.473826278626,84.9357199921806,-373.646373465331,313.919968840751,113.689659652164,-120.881696363968,333.330238501938,-249.225643613862,73.6387680289438,99.8055187135108,114.692972879635,148.753255125911,-496.176869640969,596.968521936691,118.140287055126,153.378029221701,-248.552115961299,487.408982864375,-53.105608021863,220.371237207757,470.68135785788,285.348081898554,261.450688058191,248.899691734461,257.630303377569,250.731258928296,231.623291822091,253.954323273992,198.605474327857,219.538140049583,228.882932513862,243.492711673637,193.798185247263,215.009855686995,142.742799605683,181.300874015629,197.488890256631,238.381808540981,138.973538952877,205.231726022658
26.5363959661578,40.7193363259044,1.82494099908522,-1.69039815679671,12.2670839187279,-42.0174838837142,-19.2492866108837,4.68066411802965,-78.0364696498203,-69.5134052933458,-28.2530250968969,-187.457471384175,-121.404697053504,-86.4576586451178,-254.649668763885,-231.587210420745,-172.712229517292,-351.185952174758,-291.854062191871,-307.35666460776,-325.200882349405,-332.504406255173,-296.900616208228,-221.620725632174,-234.793961978031,-91.5764737815993,-172.995542635667,151.833482262319,-140.251719047572,-97.6953997098374,-11.6476988167794,-518.3872936706,88.1934334936032,106.775770784577,-16.446619260314,-105.549360461269,-431.702212940979,369.10967275206,4.38538632501611,-50.8257371945783,-380.47939157699,429.607883776491,-288.572440347161,220.065005029626,304.265412062167,183.758083002258,144.98857712516,141.821225699747,148.1575862154,141.501955548218,147.654190907567,154.248003857826,135.833989293648,135.512891082506,136.568445042587,150.282905757634,124.11167026242,123.801349173253,90.193892452504,117.325065411882,120.198107044965,155.548773771093,84.7961823145555,123.997740170481
-46.0431411229015,-51.873415373778,-63.8122366432348,-84.9855686208965,-80.7313582843689,-94.9549453902007,-98.5405130451928,-87.4103746398277,-160.160057170826,-156.800024391419,-132.458768924263,-240.082824991861,-217.458249384832,-187.047697732124,-336.116465322181,-346.329670447285,-226.296167729101,-459.892739862584,-446.074767182101,-426.147307098518,-488.706338001476,-413.757680736652,-410.204457708045,-395.116649499846,-358.750790203828,-276.637958035588,-150.365526666202,-72.9146793820533,-372.768487433436,-214.128973093932,-396.514060108148,-602.178616466988,90.5080792614548,47.2977401599143,-179.309706420122,-305.196790578167,-254.619925813336,105.975079547834,-122.346989103516,-250.691789104041,-397.418853550672,327.664553542275,-444.60645753704,225.869889859485,125.010294783888,50.2581053631041,19.1548898475622,19.5660765931018,27.5394087417759,21.7463223173794,37.8923576246233,33.4733410515039,38.2825414820437,23.5418379049724,23.0052050882121,34.3200615761686,25.1421068640909,6.46028941567501,14.2820205164679,18.1434935832145,16.2104509233404,46.3179294920248,3.30001721925638,11.8386342648908
-114.151417683555,-135.635978770234,-130.259215969944,-157.000429774589,-161.719919900964,-145.594992898341,-169.564415795842,-163.715827856262,-231.072413160319,-232.025195534635,-221.567291234009,-281.746772550387,-298.300546188792,-271.135741457133,-423.262802417504,-452.430161347442,-301.304679060541,-568.333697180247,-564.118934086556,-568.641655344711,-609.951824439111,-511.71649165341,-531.267150204839,-519.482729171803,-475.317493198581,-412.252189549835,-167.944736369755,-283.625006786262,-488.182960185987,-297.837737403103,-609.264593118464,-461.42137566781,83.8059946165502,11.3616875045051,-228.801605066699,-345.237265313276,-51.7058954754969,-66.9108882205495,-164.286327476977,-312.985886024905,-298.873810548174,220.561179237739,-416.496244499217,264.923695635426,12.3418206544499,-48.414005470695,-50.3450674302771,-65.6041064617251,-50.9305643134888,-50.4083471362877,-56.7688535120276,-50.758846160393,-60.1313175383027,-65.994890733148,-70.618410332578,-51.0218526998075,-60.1601779771693,-83.7267861766743,-66.8775741695507,-75.9659261557878,-73.8048130200494,-46.507251749644,-81.376008468965,-83.6843345398297
-150.063643959848,-172.692452610443,-169.373448340067,-188.394257487601,-202.120138976285,-169.379359175362,-207.323115445534,-188.832342038833,-263.762814027198,-269.67485414189,-255.873858426103,-297.75146989244,-342.857947682578,-309.190843351517,-487.450510331287,-532.564042789947,-361.257585856621,-653.534134909592,-641.883310837289,-681.094535438858,-676.33462450205,-580.354307150929,-596.960750751947,-578.436991262731,-490.387951305382,-458.083781379803,-107.045961701885,-366.75097013979,-465.442108616819,-160.730098168308,-536.105440221928,-250.579546553016,57.2190759760593,42.5287703296062,-94.8408567937,-246.061487385081,91.4309013655867,-125.876228456287,-94.7182384149702,-224.799902128302,-133.369011022731,144.808771124958,-214.238861670118,341.738085138959,-6.7115882890591,-74.5700894847456,-51.768243898049,-86.2498245256115,-71.5276387381343,-61.6893385041886,-94.5289798046659,-73.0690878675045,-106.043338624796,-101.11690750615,-109.857586324216,-79.6752499537002,-91.4975816848544,-114.327072623196,-111.761241958364,-115.924936469371,-109.720477907515,-84.6382490660901,-122.858524279733,-123.206541695979
-150.589244207321,-164.892841510154,-172.55663815315,-185.249497378031,-201.060366368778,-162.152754271779,-212.424707117278,-179.29041860786,-265.6799883786,-272.769994503994,-248.311637597929,-288.413580968097,-358.113605721927,-316.919007044997,-517.099603576309,-572.172203763167,-381.137797650189,-703.219744317413,-694.126542260593,-733.360837067185,-721.061819584889,-621.536735630222,-603.921279088523,-603.373388007361,-417.190541734217,-441.514211712597,-5.28603110407799,-325.026263176064,-363.173666870568,83.6979742861748,-350.866729969025,-114.129701499614,-13.1778342740376,116.925654628713,99.232464694653,-143.413659356951,150.215817445779,-149.171012946498,10.4733748388753,-103.518600506211,20.9357258051248,99.6170034332269,12.579775181595,408.791046126369,21.9988361559846,-40.6959896489738,-16.9523937668446,-52.1156605984461,-49.5922179613378,-37.3503418846241,-69.1952047092685,-53.0727250785137,-82.9624418783465,-85.4502489814649,-90.1910796828874,-63.6051723609396,-70.9198082657731,-97.6049758373119,-101.16088792128,-95.629016412183,-94.6191817053943,-70.4570669256977,-107.439748937074,-107.746452701393
-144.334643824191,-156.578972274949,-162.369637767682,-183.482950055614,-197.648603304898,-146.183934773132,-213.323922972357,-180.164134951834,-264.758979480723,-276.014011206389,-251.757620146973,-268.755490562594,-370.866243647031,-330.610575062282,-529.42174019415,-584.982374911028,-399.014651214861,-727.967719078727,-739.733931511308,-757.755516779015,-768.271064813739,-678.883324700266,-615.068585084392,-639.287870389071,-376.473555823876,-427.33473298199,46.2951751311322,-286.043837563539,-258.911323186423,182.534171621874,-280.619324244322,-30.014581495006,-162.299015146781,185.540133107058,185.126536945066,-104.889394787211,127.469397168562,-218.546752668629,58.4872478465673,-45.574717572946,99.6046539622875,42.0349926655912,132.569605721177,401.872862438146,18.1049132131435,-18.6676683659281,-7.63415860039201,-29.7595084839123,-39.2485931596523,-31.3530455393508,-47.8895595222108,-48.5887245223542,-57.110637643722,-73.1180896266962,-71.7308222837964,-55.1420643587249,-56.3519388720263,-92.9195956868629,-79.1195715858723,-74.9810987387852,-87.2121547164498,-64.7575805068698,-85.2335212983546,-94.5037416224346
-161.079328091381,-184.648973142027,-167.862270911887,-208.06687355976,-227.571484343109,-146.02045801491,-236.769664001979,-209.572648187741,-276.589236867904,-308.671950179517,-294.683146960494,-254.094927642102,-398.516581345793,-368.253032356017,-535.647926210332,-602.542098916417,-435.415119811791,-757.523904519936,-796.223708557534,-796.055233528276,-828.847454991798,-756.822828745206,-675.84919141235,-710.366501719045,-429.128488489538,-452.977399966227,35.7548609693489,-329.951035896228,-206.255976751238,102.53162346957,-291.971169547296,52.5949207401109,-387.936902209163,164.470745070351,156.014259001269,-63.4081982004042,9.04688662464849,-341.408688525113,39.0262903214716,-25.921283591821,102.39731057105,-69.2439275128893,165.140076617005,309.577829394674,-53.4648085874473,-64.1494851145963,-57.2845437421746,-75.2798860724021,-82.2910354728611,-78.1468086371182,-90.7170980366624,-93.8465627053989,-92.5781068886411,-111.199760468419,-114.854353311414,-97.0716725805245,-93.5126818932926,-136.79243607166,-96.8085452779181,-104.181412550852,-129.445522717162,-108.984251863633,-105.28275149026,-130.584040092451
-198.219183489674,-236.72528928166,-196.588693736432,-250.294990898742,-278.660592012999,-169.025445827001,-279.612661140998,-253.123492034939,-302.370751367687,-361.892593847718,-355.545311067659,-262.488017804379,-438.780083891797,-422.771362888389,-548.996425479522,-643.360873397472,-472.810733545045,-811.852727967216,-869.544231030245,-851.291643603488,-908.804632307443,-815.069654343373,-775.109784683232,-810.23117979809,-507.044796514906,-511.207545411124,2.03690682875178,-412.815378106211,-216.135765082068,-13.9305739075028,-245.399648752799,79.9865820752811,-596.824959313176,7.02841902163548,118.074097587337,13.8800428811868,-174.692538189817,-445.41276859583,6.02301099279208,7.07875399167461,70.2109639122228,-212.261661737792,185.391166881326,179.794850647344,-144.648289326437,-141.1045834058,-129.83424491579,-153.09274070601,-151.264740665001,-149.105779791609,-162.332035864108,-157.16062417384,-157.277992434875,-174.324992255439,-189.889748328038,-165.181472431957,-153.755149256627,-195.101423346706,-141.372974982535,-157.869346179605,-189.790112345643,-168.896443988537,-153.154306573106,-189.316702093857
-237.644241768735,-280.206321357179,-238.435694780511,-292.177036083832,-322.518318634975,-210.336471682395,-324.876244135311,-301.791127546154,-340.805050504754,-412.942916869038,-406.551520009413,-312.490716108011,-488.178460641433,-479.36623237979,-609.186269045214,-711.830243557694,-528.074570975044,-891.382143134446,-951.146901285144,-913.183694194666,-1004.53554051565,-844.646086239397,-889.578060267629,-921.453147166826,-554.346338118828,-586.270156243247,-51.4512834884685,-482.822279811724,-282.20105538345,-107.114451507138,-202.155542160244,-21.4190626592374,-691.377852241561,-197.968448144896,60.3403838950494,5.26626065300116,-340.06941234664,-474.278558778272,-40.1053550495953,-11.2777962119959,-10.381515283799,-340.092386599642,144.780689708111,26.9357744050015,-211.257307412016,-194.699885437784,-193.993397798235,-204.996416595414,-207.409212839508,-210.421985842251,-202.901208896997,-207.299324510795,-190.866037018472,-216.378846511237,-238.332918917248,-217.00688448566,-187.431905228989,-234.383696047431,-173.695060379683,-193.079947253686,-225.628645314588,-209.035195789151,-190.88586369699,-228.41976778765
-268.213455330631,-305.502585385153,-278.302851966685,-329.26927003679,-354.687912206909,-259.411175517378,-364.405041289968,-354.968463560338,-384.376088496565,-455.821653946862,-444.631872219651,-403.147678233244,-545.163811012093,-530.488351886107,-739.186926693947,-800.588552255017,-639.89877571885,-986.237624617231,-1019.24512809022,-986.408809158051,-1103.31423995013,-884.568980035672,-1015.73913380121,-1027.05398795978,-617.153771715572,-673.424388391585,-152.875279436129,-565.530249280461,-406.816595122903,-214.283178163587,-309.419817446404,-233.631965201846,-707.069303802991,-337.365588169764,-147.276122183303,-209.834190949647,-458.422105299667,-467.014834036776,-171.294071309968,-193.075060379459,-195.500045889819,-470.555277549163,-72.5656883190962,-198.820490547546,-283.835309320134,-230.257813814561,-268.323889636296,-238.177045998597,-258.070953695362,-274.394705367113,-213.396026349756,-257.532865456992,-194.194531730343,-235.322321652213,-264.227093878175,-256.833389138436,-193.601608880563,-268.939881618735,-186.263089924212,-210.24910448084,-244.70768245619,-242.029119130119,-208.424729016814,-251.958442634047
-274.812875600334,-313.125684990414,-296.937219568613,-351.086751266113,-372.049093448037,-292.169854974371,-384.689967853616,-390.468245663544,-416.065181563432,-482.124156274678,-467.252323111249,-499.069114223948,-588.42832835771,-566.395526111829,-883.216149722768,-871.712479395439,-771.164405142586,-1063.70267891872,-1037.48473941445,-1056.74256412951,-1170.45172347725,-946.985522475751,-1119.68598445665,-1093.37142230979,-713.724517763763,-748.148670513738,-274.22571597767,-654.751063378036,-569.859278067955,-319.525416263626,-502.376324910373,-466.684352837103,-738.882748982154,-387.960446773478,-472.734188962387,-535.25377616844,-551.800342705085,-476.715356433395,-365.105408108006,-467.057158708863,-428.125153982834,-630.9130226276,-389.097181717487,-468.837878006693,-373.031490488818,-245.992966930121,-330.216677572134,-258.559630407132,-292.818699848159,-325.407498828837,-206.810181276466,-292.527362015567,-181.894803685492,-234.136730943126,-274.800992594827,-280.846358921066,-185.238838927831,-288.280877061679,-180.661635029551,-210.483059838207,-251.050486256269,-260.346084010054,-202.536325637611,-260.89865705394
-237.253116283026,-283.244818585853,-272.181455173762,-326.184207983274,-346.759267303325,-275.704059655652,-359.33143772994,-366.99078416601,-410.146414415103,-462.360825919777,-447.887117471359,-538.027234307553,-576.301069840231,-555.389160487267,-923.908081870364,-861.98283965666,-819.137937461197,-1054.84932986892,-968.71177974918,-1051.02844063535,-1142.89608720841,-958.714907914601,-1105.40499284139,-1075.86377111259,-728.992529311823,-757.727261754961,-310.089444639775,-626.816322349163,-694.416776482615,-334.601716397542,-546.021136953813,-617.179457161605,-754.880026451369,-331.927546485358,-656.062589165957,-709.643717962156,-577.999727992903,-469.154747920895,-432.321961658505,-569.604863003332,-512.619062593469,-744.92991704144,-510.340481124435,-602.845150284855,-386.781846719281,-190.610968207609,-287.350851505689,-214.471382630152,-246.033929514492,-281.721636368882,-158.412287755629,-243.137625589491,-132.251217361397,-183.526978769068,-223.199667898543,-230.754848934453,-140.087077178033,-233.077736452871,-140.337435794733,-164.490983520485,-203.805380247699,-211.650804152897,-155.900151229972,-215.937929297738
-156.879016446566,-197.86714766511,-197.918329856784,-240.53911975476,-259.698826920594,-205.715126302621,-281.46850838065,-273.375037354102,-346.35737911411,-379.940563597465,-362.389106189033,-480.743097946907,-490.389368551516,-470.978966194436,-791.39820692005,-746.11512712733,-744.453491591518,-912.209514227607,-814.379991717966,-901.359155601318,-992.163689356635,-832.050570790137,-926.727284060687,-969.28841599625,-573.280486175856,-700.656060498318,-215.806308210081,-431.182260249796,-698.419501151667,-243.102538529262,-359.191967425347,-617.928917027909,-658.514987222744,-162.644051307283,-551.368721809466,-604.139596540694,-484.432688355058,-409.270223830425,-268.064765030097,-385.656057300467,-359.50816636093,-727.711631417682,-303.351748793252,-495.027694673446,-271.15206926701,-58.0798046097142,-114.700061883742,-87.1483195524839,-97.5241797092177,-115.041855123806,-55.2351879769284,-93.1865243641486,-39.9219698933378,-73.988157801192,-92.7063344934355,-86.8061857860609,-44.942227294035,-94.6468082223483,-60.2750051718683,-68.3640465979412,-88.4136956810803,-83.3109031798727,-71.4182674691873,-101.064832386494
-59.7055093892219,-77.5843696184277,-98.8897114592132,-125.047890806705,-134.611781585131,-119.161569608382,-177.814310099634,-149.181961689535,-237.959193176649,-259.622473366668,-227.292369572497,-359.097076910793,-361.649376182183,-333.238466446016,-549.206894436851,-579.394484820621,-601.397472800553,-689.655672666704,-625.767669590941,-647.849095157361,-775.307023046115,-580.801561312173,-681.771226889274,-811.893857315607,-333.514625045886,-646.115298796723,-91.2874680293436,-227.681201415009,-586.692854460515,-167.545011320393,-119.973588275206,-501.829423771509,-483.334309748379,0.106395616763462,-320.499757481557,-357.260299666572,-333.35693907112,-358.510901508349,-41.4073017026413,-115.214889364049,-119.700035999213,-630.54939729601,3.31932508717,-296.149323507959,-135.200537182475,84.5761181220337,90.4106808250145,66.017150671509,79.3843949160623,87.6644100244079,70.387984390876,81.6463953374932,61.7520787420725,55.2564836522698,59.5704056579869,79.5678885576432,67.113902909833,59.4648008212452,34.4884384513361,41.1446381746368,46.971378916312,68.3978440176489,20.2771911526267,38.6287057485412
33.2729722964215,38.1446965503892,-5.91123366963994,-17.6061314706578,-11.7403572476376,-45.961639587555,-78.5245288253045,-36.8948176581394,-125.03611153685,-137.864827726105,-87.0732426904091,-238.821661633152,-232.656271738526,-190.08725452235,-331.711686470657,-436.48002051441,-433.620883840021,-498.525796641018,-457.238078846035,-401.667143568243,-568.927170957191,-293.374946213212,-492.330987135195,-627.992789579523,-131.210787542915,-600.926912119422,-24.2456612870852,-152.210147928454,-445.129937759977,-209.120940713559,1.04447300897984,-387.858019602677,-337.844144161282,18.5685409694373,-180.110632984924,-153.380237472683,-224.122634009139,-368.591069703893,32.8708694127144,22.5758485854493,31.1149407528892,-554.945632679197,141.294529957501,-215.342376371291,-101.87949821339,188.578595193393,229.562320548771,188.655646631262,210.485966710342,231.094465095184,180.039246726774,210.865697489475,153.481161459909,165.99841003182,180.942623376684,201.810445243445,165.42936209899,179.830057116414,124.276380030903,143.142326868308,157.876575454947,191.594298264937,107.044383374094,154.196980424624
114.310781439089,127.14054920851,72.0169398568526,69.7279209562669,86.1929340507997,20.6286333460685,6.25488890541376,52.0724293788025,-32.8475298536955,-33.6371633568672,23.2122349379809,-144.499106622707,-120.581781437063,-76.6398486547934,-202.413231288696,-332.127428296632,-244.235799496896,-378.3654172512,-334.636825861481,-223.575775521712,-396.949243938253,-26.2460485854174,-357.495018250208,-423.997091049155,25.2998408576078,-476.369964404499,43.9871515251465,-144.721190813301,-320.099183422533,-293.714656283627,43.4229135166518,-341.751189006143,-235.415499850498,-77.9190918306952,-165.969998829312,-17.6643226842986,-161.388590480697,-382.554931816583,-43.725817476507,33.1059698009479,76.2843476578189,-506.781923007021,94.8238266946575,-265.644752112928,-145.603901492439,246.954928192994,281.088222467221,260.527922834479,273.856010305832,290.819422833342,256.672136483108,279.32385112179,236.085119550772,246.032421239971,258.275881694367,273.627635755047,247.599574022864,261.895528021372,210.877301941804,233.906070757699,236.431128092998,273.107201884012,195.128456081786,235.764454707979
177.902621002735,187.118622394128,137.500756229486,138.345356945896,155.420860772421,92.4749898489959,81.1960304125544,120.131399273296,42.1142955844987,46.8528323726237,93.0642188886048,-56.947339053165,-24.4587069801437,0.397689543527635,-115.041025453549,-232.303508066871,-64.1919320455737,-268.899971557136,-262.831976614178,-98.1849213415046,-253.14749034804,197.580099970966,-210.56424441629,-228.971593633793,145.860800704778,-248.284544051093,178.286261934132,-136.44124384833,-154.151373331052,-277.621491440221,147.554119345866,-268.370877689339,-100.242392190279,-171.541086976745,-176.174714124311,126.088038794628,-77.7319443213747,-313.692228296607,-122.663933282073,53.1901706981417,94.332423112773,-404.930270117815,21.2631360990906,-295.261323548596,-157.9686541684,266.725868372901,279.430272220227,288.390715475108,285.659017254846,298.292196110207,299.556260150348,302.653019999812,297.934678012524,293.097743170893,294.972028888585,308.202473801448,307.097653405562,307.352283524562,283.901330833997,295.441754679472,285.677535856831,314.49099424251,269.446636455403,289.832948546095
216.311877504755,220.698336531724,182.48612165423,182.752540753339,196.407015053085,153.205726413726,141.924952312375,162.369147375477,101.098377718173,102.786867751469,128.984109203253,29.3256039387208,54.7210840643101,55.2100468431113,-10.3221516912538,-119.951959672722,56.9781834482802,-120.099555476075,-228.23219325249,2.21925613953722,-140.621013074265,340.535790190873,-47.017840622645,-86.2378725736024,183.694072713905,-16.1053941792796,313.792080868352,-158.284628845149,69.2161630533394,-138.001223043009,351.436789327296,-61.0175633856572,115.487656530199,-209.125634499114,-95.6401537680893,307.335007638071,53.3538515996788,-158.651294824133,-98.7396040935654,177.555464334354,148.213576920515,-195.332547052299,50.9819572626318,-195.616520143423,-90.6439729011824,274.339668136159,278.504767546867,300.962252167405,287.358481801368,302.857024542804,316.875260098246,310.193778297752,322.690673193549,312.157171791537,308.063248828424,318.865912873357,326.41564304638,325.014113757906,313.896449097084,314.79463635056,307.743545103632,323.086158113057,301.138454618661,313.013070188743
229.031930752855,237.141960249748,202.001000583509,202.721996435366,215.020522040681,183.464193246432,179.258344966603,181.823920610991,139.613597177362,143.978877974595,151.336410886773,100.809596245452,118.627880491418,108.259661233688,113.239274603119,-5.68964430535624,145.260997818636,34.6895552131231,-188.722379752175,94.511135579809,-52.5017418602086,407.375949503941,95.3633158609373,-0.657805203061411,163.735342850193,142.158259915741,395.779614607632,-158.036883046801,184.495199916912,52.0369746644573,533.293794205177,169.521020230664,376.925123121685,-151.65114091387,131.867631412856,469.42298872497,181.548208512961,3.54349167410596,44.1915651617844,384.079515955713,245.193287760315,70.8310168123083,188.641130088782,-5.28283112266787,24.5970862036168,306.385991757204,314.766581780009,325.92029827738,316.082368332365,334.299439540227,329.823505737135,332.24597043071,322.053444519292,325.440337891505,325.999546977598,332.462676858122,317.32408873164,341.278893768055,303.885499473322,313.639547687746,317.510012431707,323.352862111901,295.303507806891,313.855009825193
240.056177579274,261.523821070055,220.446678406292,227.791863247783,240.079551785049,203.936502397487,213.040463405402,212.747497551008,179.709349006982,193.035483334285,192.960988085485,168.528284354185,187.497138785452,174.930626057431,230.513266249363,113.167921657058,284.467081846606,142.430429120109,-96.0450642180405,206.541447155931,50.8862021601004,492.62491788123,231.369875060143,79.1338449597008,230.27439694334,246.217378062505,482.921170325409,19.0812185845699,14.3310874593104,256.509462957417,525.88469751408,226.693758149908,613.595518082242,60.8090690059363,488.147448262199,569.734926020143,283.758916262963,119.594953043645,281.587331020732,587.338664162042,356.711380506311,298.283803656685,366.308369654597,187.201151264057,152.927584425716,374.687250924569,386.900507909113,374.053385919437,377.094980908791,391.82222073255,367.995943840566,382.255000776025,334.83650627709,360.757350308925,369.823615460048,375.285133168862,327.360516779786,379.110540400854,302.551809323921,330.865274307647,345.431103818636,348.849343468195,297.523337942655,331.356109477219
260.846360585645,291.059379160992,245.171816222926,265.767750154033,278.959880595098,230.689192988544,253.22133593786,263.221931961976,228.391764392192,245.136357531049,249.089047467717,231.769776293754,257.135270405454,233.466526989934,299.015585770899,218.389208587861,447.517684104385,184.666690344846,24.7304660426936,334.009210042926,178.47967852205,637.422851801736,382.988533855168,177.649183955487,424.364000760791,295.8857160321,580.152171897377,348.498991095018,-355.955390497808,441.143640780042,256.703494863246,101.903178882103,755.919103809034,360.481184275352,853.119220384234,620.657143917752,395.419930036882,191.928166599591,533.982148196745,718.602583245332,432.263000054074,424.447349184078,516.696281926415,317.352838949179,249.179726675905,428.276994642775,438.786730624923,411.335879304336,422.924695292556,432.028523670609,407.826310428983,422.342528080888,356.639377705309,393.091046979063,408.854176270725,415.773417535352,352.786041709155,409.598990219185,316.594864875481,355.57549104814,377.672240539162,381.601287086498,313.400251086819,364.612113074921
241.63415377528,264.808341226603,221.336670342805,251.500914612655,268.99517691432,216.757705805856,244.317056454912,265.540548120657,227.330235578549,242.248272322014,249.335463863548,233.440160501165,263.07497050629,224.097649496941,260.498788572604,233.926869240555,476.101651465229,160.148878391989,73.7208257958472,406.769565903966,255.514898231614,727.661616725346,481.890473968118,226.970133115727,573.998523297122,210.812491699033,585.09816096636,580.772567217727,-623.337399403417,520.141195612103,-132.466501543657,-56.4980580145904,752.797576606463,561.220128556467,1033.88649867973,620.75893927837,502.301463011822,203.995549555727,689.692464342329,754.802694713891,413.600716230721,415.064957546844,591.568710567336,333.120797799313,231.326509688557,375.676712444263,389.070641796611,358.539999087665,372.839456905529,380.957090463565,357.045270312893,372.283891839199,308.201684789555,337.264780004616,359.08703135381,370.308720654113,305.734630324044,356.777719768691,271.257898486139,312.020981307614,331.380018199239,340.240959449299,271.506560163997,332.701798630007
135.738981671645,147.517400114057,112.807896465944,140.419562359156,164.185643171903,121.927302163144,144.27472788381,173.125308760376,137.549360163357,151.402000809172,154.551326958747,145.829776757461,173.209334771928,132.644852408463,132.903114547916,133.820568333624,318.880884076963,101.937705400207,22.5557568701817,391.053598435512,226.500160360898,669.816891232475,453.904774182436,180.299815150987,553.313139569408,-23.9012215897829,495.899996343307,574.92728193369,-585.968986919389,501.261895937333,-316.731836530693,-52.3662690578535,646.217322480989,596.292031248895,960.096030796315,590.065766473507,561.369471243513,163.704213071998,748.641401533047,750.404770220236,324.544832637737,312.787412169846,619.643194720246,269.245132478983,103.284019242579,197.773681206807,238.306270144486,193.421601503211,213.736365326948,229.43224672836,178.038545827623,213.831088414225,142.295069206679,163.770099519616,194.867507119952,218.486050694646,140.828140528438,201.13304928892,119.146720227574,161.291980157546,172.213100063583,193.966935956204,128.758164872585,188.669273626586
-3.26342837712395,7.78025082641376,-13.1190634161092,8.08637469651923,32.9507982185994,5.90419719756208,24.5034519339246,55.2052484636994,30.3399893500104,44.0008813144169,44.057938142968,48.9858881226308,74.2185821468077,42.799774629932,48.1799995838281,27.7678643636038,149.720172781824,93.7120879173573,-15.1469769488994,377.599734541443,180.096170970406,554.643590665004,374.122458938654,145.371249125163,483.260527163852,-240.654151651539,452.351715116032,484.0148046612,-292.459847100689,544.006543758141,-135.194983125862,269.621086172242,554.130555234817,562.60018398825,794.327744242115,615.891702270107,601.140953951,166.019296878946,824.114454814563,804.512956537243,288.056711556993,250.252857298814,698.889990334008,258.73560823677,7.34957972715452,0.091805951308837,94.461172480208,12.1980899199526,46.7461184757389,76.8172151786312,-31.6128878484517,44.2574037657284,-63.9722629016878,-29.3876830665376,16.6584135080446,54.0203112516914,-55.6772803779598,34.0295051134934,-71.7033937494553,-21.092877070979,-5.53385260921098,31.2299120688169,-45.8377049427803,14.2809856411323
-62.30780022189,-46.3486993768108,-51.2076843749429,-29.6646910297564,-11.8512172330373,-24.1758586785035,-0.579677913724405,23.4524579489843,16.9418429873531,30.6277812458267,31.6715965451016,53.0186781195028,81.868423947635,55.4322448681439,120.481280183702,49.3263440250162,160.708422108366,196.582464535359,76.0706044558632,482.941248860738,262.08339951187,538.849195108461,408.055517510804,263.544000756384,553.779795584524,-245.35735529405,545.086117654236,541.050979001974,101.159460342079,751.095832885484,210.034628579927,757.441369906621,511.59237374565,572.599826988697,738.495932575423,703.411163145393,635.720313924954,253.250143644002,949.321248856394,922.61413231861,339.733333360882,267.718743599762,822.752748323282,333.082095998004,37.3786237926947,-95.8773202685299,49.895729526366,-72.5012036877203,-20.7724239647681,22.2958377433587,-140.849285075889,-26.6097488314601,-181.18187708836,-121.246865043961,-61.1357630879855,-18.0084010966259,-157.157754307503,-39.0724953808296,-183.474960959913,-118.264373246652,-86.5664780374982,-38.7159854903786,-141.041378244506,-67.4324587909601
-8.36474423698401,6.30281690390042,11.8775882668904,37.4586069756778,47.1211143774622,47.2760452415428,76.9381432460511,92.4428779905187,108.917615512469,123.56546213162,120.396584095993,162.543814941832,193.347799246368,165.949504503227,308.427470402357,195.11685851953,345.1058357301,363.805438824335,263.379842897111,684.046833505867,466.632613263246,650.163645626935,581.165265895084,485.002495296713,744.96798072026,-70.94204254633,732.431281614549,758.508949829814,440.128901261955,1014.0049871093,443.354892961442,988.87307369133,424.147787167935,690.78648938771,792.605033581204,691.923078024525,566.700338086931,319.120103151283,1022.30586983961,974.632132928719,329.078023431484,233.346598491388,828.437586858968,350.488802495714,113.900640432067,-80.0721125291466,83.4952948446165,-52.6578883320179,7.51439639472507,54.9924425343563,-125.191752486753,2.86341490858146,-167.971927097474,-101.505255447477,-37.7023353832599,7.28864727223256,-135.071498884714,-13.5921993762227,-174.056137500297,-102.563324873066,-64.0612452823229,-9.35032165125176,-125.65857696568,-37.7644929432159
76.4544237853054,86.3666470461467,91.6282430343284,119.51629735585,127.2938820729,126.733389198196,161.551811940821,172.00941863388,209.422008066454,228.123579892391,212.804617105124,271.261069599127,301.676910343291,275.045998872981,465.648968387239,343.039135001548,555.828329709355,482.017596743745,418.835032531956,838.972535900696,642.016823303683,779.874120368054,737.899482470576,641.736402409101,832.262868466034,98.3302172115579,904.438461269559,910.253306162996,591.441810977534,1129.16820659371,455.140849060245,822.06479147285,231.822103305613,897.226680395317,792.343900218142,476.659468849073,336.692283244343,266.519813520953,965.928279509523,863.052065441969,154.188687980657,85.861255818352,634.378379501722,251.041173880647,124.625136435527,-27.7212659403125,118.42809189334,0.714778608619186,54.8132126238744,97.0217220602191,-58.0973291037598,54.344100284606,-95.8300407259036,-44.8837876495805,13.1460332544928,57.7761088106167,-63.6786116679904,39.3468519663519,-102.922658628392,-42.1366003762302,-11.4068136741684,43.9237538129929,-61.7921673101856,23.8091591434509
119.713386255373,130.167440988633,131.785193810666,160.221203830894,172.541529179974,153.695804319837,197.361964293692,205.033280207311,251.342602123285,279.366932225236,254.36571332964,309.082891093739,349.400904720337,325.208051731182,522.81016923897,423.756189886889,698.796692185188,516.705288458112,491.998607758917,878.787396358732,715.238359322904,832.703852038197,777.972420071768,700.501133477418,694.911094766163,218.226633861297,979.641424047674,785.63921634697,558.899558382361,1033.68205819384,244.805343493494,556.091208484746,46.4828453262469,1081.74407940233,645.275536762766,182.214423174353,88.7453989201692,143.770668898614,824.577332937679,655.306622398319,-36.5013237072624,-21.1034221927633,383.494517913825,188.232069616089,75.3142069533055,21.4618879754003,134.27348306932,46.4714240501193,87.8809693714264,118.465207816218,6.37979527033528,87.3500187343216,-34.6575242325247,6.72483556541649,55.5738415807662,91.8268911171666,-3.28037679407082,80.4567612090244,-35.8146373050018,9.67416911380846,30.5633392474114,79.4118334709272,-3.82764233822025,67.8936170546498
140.541643978616,150.26705131446,158.18008569801,184.169786127851,200.34495821927,171.326712155285,218.294821079794,225.841901508451,270.788721165974,305.446853811244,274.597384491131,322.058610030915,379.075930555845,345.474746193611,543.587506639818,484.740268555893,773.908640066292,549.391388284984,545.324049167986,863.553514851084,757.119138290505,825.781315548203,765.222459839707,743.087703456261,478.046690264986,347.699543971771,964.039091090431,379.994012766704,507.171551594884,854.524584738521,-86.4902338993588,455.097941706843,34.5764371728929,1140.65402988107,413.319715981989,-26.7674323376611,16.1447056073117,50.9883800960325,664.395330347057,449.128413337156,-50.0271920204452,34.5214606781789,230.478625341861,254.027194284301,30.3115440318474,73.0587825520384,149.68829650258,87.5309363635786,117.277175213759,135.730464364773,61.2259330085567,111.539760489148,12.4964901921301,57.3314099537491,94.7161190282379,116.339463680631,47.094949216154,114.78794824744,16.422885454465,53.5933262447619,70.0393930070196,108.407515421424,47.9132133929758,103.726570131916
173.762079338663,170.032712189958,194.672156562204,214.738673742443,223.557402388791,220.814095229919,256.47193422988,259.626530351022,315.895231826463,340.131233003018,293.779624745186,368.368627650088,427.834732008716,363.741366473171,590.033807814653,568.932952595015,775.536758442856,637.044415412361,625.514005975287,839.694356896465,817.560858763822,810.038097380741,760.971979523987,778.746717251744,343.273245161926,451.633618220452,885.718217760135,-155.588002728627,549.836071990472,695.284488460274,-328.263428196845,490.615904612357,203.96213121416,1028.79932130474,172.104522835572,-147.883686225458,139.057178954316,6.3268835371717,474.551451596894,212.131215927124,92.5822278329018,158.549816486248,139.255045339774,306.673421962743,5.06994985933318,96.215043373419,137.226908471312,104.498165904161,120.090107233444,131.929941312374,85.8899609342914,112.88953574062,48.3789069221176,88.4786849041889,110.337915350688,118.263153619275,83.5710765531474,126.496947083939,55.992805862746,85.6587502997652,96.4805041530615,121.659470986266,90.1725918762299,123.556643956429
198.882249099769,179.179092607945,218.961207914641,231.577993794493,222.749004919398,268.612862919225,288.712496898807,274.28242625417,364.156560776189,364.023491661225,292.390661983744,427.457437637721,471.526186491652,368.394526987982,634.89650384493,637.573749895313,688.364443506453,726.318563172484,696.297182374462,786.058924365948,853.474570308035,766.190273541681,744.109927441683,763.963593365136,261.382007541086,512.387532839638,730.841762386869,-628.794618449245,637.701916994535,529.238771529269,-320.650216299878,533.879520062977,388.577083744551,757.166038881825,-54.8424642113345,-222.968285797284,337.704192654284,-38.1625971498512,233.371096479332,-104.048370843884,256.179997154147,223.043531426476,15.9000899474577,229.508383125149,-25.6164046975388,50.1616064384368,62.6215502975223,65.5729175381365,65.6137277456555,76.6089659146967,58.8783254337174,65.9212073799415,52.5561664772428,70.4406141203083,74.512009160296,72.4727384240838,79.6029949383129,90.1802135173066,70.3124951916415,84.3330855683262,81.9254117736262,92.7100226465683,99.792307969632,101.945760297094
186.859561098313,167.49176376085,215.41490478523,218.942921698745,196.624560465609,275.966525892326,287.850747454751,254.256739446152,370.639431409934,354.803322943448,267.971857757748,454.596062971439,479.725388372826,352.763435040678,634.126647107003,642.63550629186,570.06402011006,749.152491549098,706.809292084205,712.864822319087,828.908114447827,673.675199115662,711.601567476883,713.076241374176,190.487034230691,628.869302084108,525.452110516366,-814.963809185791,692.92357248165,369.585012282089,-85.8281809922063,533.700793324769,413.308549268748,436.762728812707,-214.168481448101,-203.422822065782,495.353763683754,-102.912668000322,2.83596547199537,-406.478788968881,390.834450589803,213.274428540413,-91.0275704223796,123.742950293328,-73.7030242738122,-29.7576992929147,-29.2703054231178,-6.77722211168676,-13.3686261164952,-3.10912364495324,5.85619178948612,-3.90185701767215,26.3087001922073,20.542441985968,10.4380301236322,3.44319214901991,40.902171831121,30.0929522253156,58.6187699114506,52.6514481816077,36.3215326892043,36.9449272575069,79.3796480102192,52.3091986065755
155.21230637594,147.686830643623,198.050991606099,195.241634305575,170.398995947746,255.057368029305,264.266794809024,230.17784317635,337.74486829974,326.704383191711,245.972063288345,442.872781975344,454.431301148675,332.432037036623,585.146031779503,590.783924144526,504.794832772029,711.946081269169,658.507467469897,674.059732134914,769.424532948382,586.207855364044,701.009334430269,661.843075102867,221.556585036737,828.323232186449,352.265521168268,-549.239023303217,686.383335888052,315.886928231094,227.114840957303,522.210399434762,272.936149330068,231.848719124322,-239.181117253464,-82.8881230038816,546.195430463699,-137.307838576502,-121.070516034766,-557.447093799311,503.786916664927,144.345496821491,-71.7815015618397,106.755070666072,-107.309937186256,-69.79241034893,-62.4524231958881,-47.9942751818654,-53.1404892426423,-45.6647272533708,-27.2176083418307,-40.9293181585117,-0.416322843762648,-12.9182704600787,-28.9658364929258,-35.8755805166271,8.69909005128538,-0.723296811629066,39.0367795359527,21.425174044365,1.47116845929956,-1.46407850996684,56.7966226254048,15.9326352023171
134.879252542668,132.639727437685,176.19824960757,179.163386172926,157.839138798528,226.425832261183,235.233994630863,220.866533810373,295.245249965041,299.032593960392,237.981572418727,395.618661592025,411.781364836051,319.975204896129,478.746009208836,510.089072350599,472.822447180088,644.950444388672,591.480022006899,658.255038291767,705.175688428369,528.238465715816,710.669508768343,606.306211032688,369.131597935636,970.114688108224,200.111950752425,-12.4966510295435,562.095719323502,325.150953994656,450.062851291922,512.675597739961,143.585034789334,164.349514412725,-163.884411662703,-20.4193295191143,482.530700191117,-65.4955652799649,-135.185389075565,-534.624036843243,545.909684408602,37.6438891018437,39.3053398111111,120.13930662229,-79.8189609045203,-56.3601530281417,-35.8574831262618,-34.9489340322892,-40.376418315904,-35.3871207359551,-25.175536751507,-31.2691875586884,-7.5848280526969,-11.7911149960018,-25.7536318535406,-33.7676631781116,3.82429437402453,8.50209962141101,25.0397556338644,10.3684038151883,-1.80426599226425,-5.56856897657389,42.8463800155543,9.08100771306441
116.779518249296,113.151237888043,140.507250686251,158.143472021417,143.431090234816,181.596502264981,194.07745395236,204.532119784961,245.224440351715,263.965191830326,225.326028820947,304.027621356369,353.850067274994,306.984346323343,298.489997202505,407.751607748599,383.731967586641,541.538860666901,528.587092794509,582.132713939021,619.976375273115,436.536215960616,674.66821377127,522.753721378569,439.317442457652,873.687743548362,-34.4946435265717,312.946099507369,249.597958639747,171.357714178342,432.412575763268,394.623250129496,156.471389780683,79.5184767055096,-113.147124915667,-178.133747140407,339.120046989501,107.31477586977,-139.999060455536,-433.039396625025,441.565350002712,-36.4197749353741,95.4407346374394,54.7132332688451,-8.55096616838046,-37.9507971005495,-18.1978107478449,-15.9931585618489,-23.0436658023167,-20.7425713885314,-12.6153099864598,-18.6440289148804,-5.15758799891068,-4.55137368451648,-13.7853150429201,-27.7317749669547,3.68787918423831,15.7024105534709,11.4869258567625,6.22709713558281,2.6561362899745,-1.04921328273603,25.4085540493568,10.2754865519983
70.3903896505078,68.6108203563971,80.1971316568767,107.472346515147,99.0846576644321,111.509861848773,128.959802835431,154.75065514386,168.888182557799,198.804418141279,181.013192276726,186.137264426021,264.20374543229,264.68485097557,114.452016083221,287.660510217128,238.402714490673,400.783635717361,449.135018723816,418.514745193821,472.909294940842,280.92461911948,525.527123726488,385.656326209471,293.856363462036,470.809715277368,-343.659708350437,191.319018701342,-146.596901768302,-236.095855510935,107.912059729674,79.914100156148,239.756657301236,-115.588845140956,-175.335465687435,-481.45201171569,149.518601505624,256.130518925401,-221.331518529465,-369.970470424169,206.143896061713,-39.4287276076309,36.9771744926854,-90.5850965246445,25.1662522076555,-56.0840436911866,-60.162939752253,-44.5318373418377,-52.3641868665988,-55.5096059417862,-29.1293867352132,-51.0208644874812,-20.1706625071164,-30.4549448753929,-37.7807277817203,-56.1087037897654,-25.7187280229293,-20.3701134650007,-19.1343255982105,-20.8861495931908,-26.2558902447774,-28.1165084743989,-7.69270923927207,-14.3974561207552
-7.79340529759406,-8.28540141423444,-1.72588130562825,24.287295551683,14.7524954679957,29.1929791654878,46.0869177481838,71.4943845251153,72.7736071534845,97.3919524500813,96.6547909413861,89.9549074626853,141.154102861327,168.324158241166,43.1399977049832,177.471913578358,131.534053193636,267.305224732604,327.423099044896,235.932935755162,264.369378725725,116.244035698507,275.141954120565,194.81836016346,48.8460434015961,-94.0836385731614,-586.21881765119,-133.924647648739,-350.767571572389,-685.968098024207,-384.214779663219,-260.957129232797,269.891006240777,-340.970596195613,-326.309703674395,-666.763356475218,-48.7123390907694,264.044241639049,-373.226754756282,-378.414049507765,-48.6584640815572,-36.2631326455059,-83.0376996639141,-259.633474182435,-34.7492586273413,-117.1936440707,-156.329998899181,-122.434045346523,-136.491246369816,-147.259144544592,-94.1089016291286,-135.950250164546,-70.4634165902954,-101.976660246318,-110.958987170973,-130.622808407433,-94.2668699243258,-103.299597013432,-79.8615990380163,-87.9837888190444,-103.823888336584,-104.776812329358,-64.353096499815,-83.7334333390043
-94.3592005686937,-102.741078818091,-84.1199298801173,-68.4611489181698,-86.6940132035098,-47.9304875601285,-34.1777291368009,-23.2981016810788,-11.8586146738013,-11.3184261006476,-7.05596151909123,31.7602847483921,23.457558842238,38.5456040756097,71.6830421306281,103.506364230964,92.4653879497678,179.641779925263,184.369230013839,98.5241954152217,62.0853593676209,-17.845891812724,24.2818481974726,17.7270286718169,-129.062767816568,-517.86969430853,-695.9281683838,-344.143366056972,-292.277059191509,-930.213413924805,-765.576957591979,-428.006578701903,249.006189654631,-522.35054873606,-484.574689828153,-598.269001406062,-203.652032383191,163.389174380973,-521.111789399439,-393.591498859185,-245.298918003352,-95.8257432140918,-217.665987222302,-419.842938400053,-164.713918893433,-209.741965368424,-274.663467004611,-221.831009423871,-248.219736340216,-264.503378145806,-190.987044150196,-248.084784721935,-149.121006221612,-198.4904750697,-214.123042953934,-241.560106815014,-184.985323505597,-209.418091146286,-162.750327311852,-182.519422364888,-208.374049345202,-212.620709446763,-144.862111944528,-185.959627521106
-166.981373713257,-188.293913968877,-145.333764949309,-142.88403895897,-170.606267634591,-111.104076181634,-96.0374962635771,-102.692764005345,-71.7585801419212,-86.8529986594324,-95.61989817613,-17.5326262763435,-49.3805132121906,-65.7675840390082,80.272257868015,58.973815974583,56.4635397304052,127.312351379381,70.8207428861838,8.80198097013541,-67.3427241293608,-135.925145394098,-134.445656446557,-69.7848155989791,-233.808926061564,-597.224675062433,-742.664648430469,-393.124108943571,-222.44468428646,-958.123850742812,-880.291340316251,-563.748394120242,226.603066223945,-677.428191973341,-621.452490231437,-411.219823290685,-283.650951947553,70.0611131228781,-596.04065810215,-373.103831313579,-400.122099303454,-188.59485203072,-341.121991873015,-540.837256226282,-285.316618461253,-302.368288192499,-382.18172693295,-310.881921450301,-351.961477275429,-369.073279668201,-280.085707034761,-353.208494761648,-229.723531891051,-283.851622169279,-312.535421165601,-354.387641344554,-270.000611988851,-306.319195314078,-238.741546397608,-268.870380800786,-301.37948299092,-312.810651431033,-226.042796067697,-284.163801646336
-215.085429233279,-243.021696343903,-184.91314036013,-186.975988538861,-219.958005434302,-158.093873434101,-139.858385641356,-152.129029726919,-119.272059313717,-124.902150604105,-152.005981494031,-79.6797579813661,-85.9871189164564,-118.227278199064,32.3989684882286,22.509630321486,-4.10704249935401,83.5497762395227,5.33796051215859,-50.3564164356026,-127.691983008029,-235.164340048827,-204.319578556399,-87.6901510979778,-324.740134583194,-439.460825173459,-769.411737267593,-408.10990505569,-319.088901509638,-903.657306498856,-817.912592252982,-880.037296552124,184.340800316204,-789.329663522432,-756.898692787437,-295.627689771734,-272.207932935258,25.0390579856607,-602.151332241747,-360.566399735719,-525.488037083344,-241.000540198587,-416.356127498279,-579.874986614256,-335.345790362625,-343.61413463445,-445.938203930003,-351.379567614231,-415.347472296788,-434.245040582792,-320.340883996385,-418.983513293245,-280.659225780192,-327.962971446822,-371.323657269919,-419.924756213506,-319.594653601724,-363.244216197697,-281.45372263347,-314.573067007339,-351.911826469951,-372.777631301274,-275.184694212111,-341.866391461966
-236.824754902852,-261.098914104409,-210.588286141115,-207.720938356027,-236.595540346791,-189.012069711776,-170.228273775774,-176.987597783232,-159.377045955473,-151.761611447389,-182.672902896124,-141.94582403763,-118.667548374131,-149.071581381555,-12.2880507188562,-14.0484012924017,-39.2541820581093,42.4556781660392,-31.4236906724547,-80.1650348215834,-155.559982246894,-268.151616393768,-236.333974827095,-105.462497466855,-361.165444356467,-299.447655407399,-722.730145998161,-429.275004517938,-476.775133650379,-802.797218574915,-742.86283045597,-1217.14590970565,104.399427971484,-788.995549871598,-828.302292218394,-290.040758802869,-168.25634374731,-9.40749841453409,-578.580253300643,-385.407241384199,-574.593992472111,-228.350174076268,-428.936821131266,-524.974600616072,-318.867855293157,-313.668275513642,-447.851811646611,-324.204996512405,-419.137344633639,-447.103947288742,-299.799224018106,-425.982691051985,-285.597115855129,-323.85345628096,-378.69409040597,-419.602553113585,-319.290851563212,-369.466729419593,-287.913085640675,-314.989841548194,-355.029381351296,-383.98609864539,-284.178615204776,-349.154942343612
-242.399080990901,-259.823649033965,-225.153277763774,-220.834083689631,-237.424304026331,-205.945099390979,-190.884470704276,-193.251350109711,-187.06524241203,-182.830051404146,-200.288461410412,-186.244984573568,-159.964688496161,-188.127336672901,-34.385988683259,-52.418605750939,-26.8423448842271,6.8690414549994,-54.2715812188668,-83.886974685926,-162.776116896005,-215.165184415314,-255.276799919162,-128.392928141095,-259.085393228389,-230.95270853957,-566.334146974475,-355.501056872346,-513.456275729244,-594.789281826345,-658.880216185593,-1250.00346888103,25.3938075146173,-670.757139385433,-694.231399507151,-307.652200532026,-45.9558471964954,-65.4317974397822,-511.701664613065,-377.099130735047,-509.381728680926,-185.116296334825,-383.724481458021,-414.351703543359,-283.710205494262,-261.251570194722,-408.804820732868,-265.184316815506,-379.177826368472,-416.913315851924,-258.283724344659,-387.096630297588,-266.138689753914,-295.428631512647,-357.04329553509,-384.748359994668,-294.458336135415,-348.331579521523,-275.879168748139,-297.438473456994,-337.075131765874,-366.545390507887,-275.710310135466,-331.598485731482
-245.27376333424,-261.136584466385,-233.112113466324,-233.213316102067,-242.221890015556,-212.142198192266,-208.69949282628,-207.194850517763,-207.387071487258,-214.854082230612,-214.300507997987,-215.45406460074,-203.996098473244,-226.483532035279,-71.7651872645388,-91.8973588067033,-18.1039066075907,-27.216874009056,-58.5356101707255,-84.3674284640829,-143.884125730613,-130.388392315097,-276.474956703723,-114.757976918545,-70.6777178325836,-99.4173976657858,-353.9229368692,-137.877087363871,-348.248480594914,-317.497688390396,-441.346794904093,-887.015932351276,-12.6062484499231,-499.20086439301,-350.079990493964,-231.225435653323,15.4683714882718,-131.727521851441,-361.737936906631,-238.512134849153,-326.719617222586,-140.011662838598,-250.848850466876,-278.931418610388,-267.694263901716,-239.669807185843,-362.98699588585,-227.37491256283,-333.770107171782,-371.762396314182,-240.739277481241,-336.276927415105,-255.2749416371,-268.787443007081,-330.717504061259,-352.083893355221,-278.910410577433,-326.61694509734,-263.5339406586,-287.362411224437,-324.49830801869,-348.263876922239,-272.334748249816,-318.359726701251
-229.861084785431,-249.764292488292,-223.272724230789,-226.023590340244,-234.114376702802,-197.836013182234,-209.824991685157,-198.515031497383,-215.372047100718,-226.686299755949,-211.858550533469,-226.592308527522,-229.451514530426,-228.705805604514,-119.773293743586,-106.049510077172,-45.8920158598427,-46.0889862404126,-24.1133464901559,-99.2844176491243,-87.0949527358128,-75.0618109108823,-295.673114790744,-48.72978117425,51.7457765017201,130.852782399488,-161.154624229551,120.422835663221,-26.6744664551543,-108.976377977018,-83.9412721396418,-295.803914492274,19.7674063351993,-338.786376030437,12.6731058731326,-8.60277146174182,72.8482813304657,-138.807857927644,-146.155486510203,20.9686399628771,-46.5198387357081,-49.0438213751918,-11.5577848771333,-107.083177415305,-245.907267223556,-223.878112068043,-304.495907853137,-201.144711967103,-283.525442382346,-314.951236923818,-222.474085861664,-275.511144466716,-234.972920445689,-226.186174110248,-280.316977882466,-308.863043429224,-251.854437010846,-283.04601835973,-240.008283240735,-262.64775025011,-294.73263100679,-321.611887356206,-255.387742520446,-291.84789677286
-173.959138804665,-196.432949399949,-177.979123365473,-182.162873375317,-181.05465637563,-157.589159391805,-172.920967875212,-150.257977865587,-193.146535221168,-196.799490377678,-168.566398405865,-205.406196185914,-214.228111359505,-179.613795100832,-126.929870894283,-68.9831432673261,-86.1958384084957,-27.8759898378607,50.7189472459474,-121.71494785147,-0.862646317240105,-66.5166602274747,-265.34217233445,39.2833017687907,55.6226381100605,339.200923945609,-25.3205131608273,300.581412104697,283.367198003377,-21.2977668467207,240.647355725019,227.299796467136,112.587251427361,-242.529068227035,217.080696759313,255.550935634512,192.515790571985,-37.1165767772459,43.4105674081518,258.148279701665,231.410854009656,126.55480659524,225.882409406949,73.2353851939304,-170.506526277957,-162.286659542503,-216.761445997495,-141.902670672621,-203.364568005442,-228.393418533316,-154.908302305833,-182.295256154928,-168.614935639315,-141.590160954926,-179.851028942822,-222.566572200237,-177.266741821948,-185.755109139036,-183.79179098447,-190.039924899889,-212.778555250217,-260.412677822179,-193.405530799263,-221.909783552784
-113.044919990753,-131.143546941962,-127.734035680038,-132.615009768853,-113.965240156704,-127.230670691512,-126.951918124005,-99.0112757401885,-158.461452523052,-151.799762168632,-110.756616149447,-174.133707358462,-181.413163625502,-127.050102139428,-87.5639556405967,-21.7048620457108,-129.686527084697,3.0686523320178,108.020423322608,-138.479243486799,54.9964495357735,-106.309521929515,-181.426046630806,88.559652290017,8.43229978153339,415.212703639365,24.3921133969117,368.763827465459,395.821191345871,-3.44943438957122,382.536793903062,429.183991465267,147.050640045455,-244.43474910852,232.105564818115,363.193379349464,264.512713074978,82.283418301529,97.6641695621361,322.559225695744,343.106533123899,284.936188519995,279.943408824503,149.718962968023,-81.9920994624293,-86.5992817074154,-143.224257910339,-74.1490422708816,-125.950032173424,-145.390910412153,-73.4115464869296,-89.7444974934809,-91.9297915830831,-58.2551950932215,-78.5139534119114,-127.526406467913,-93.6872547695924,-79.8826695994056,-120.009210275318,-103.930202548058,-120.805603124447,-191.018497295156,-117.782944476489,-145.752184956561
-102.298161926952,-112.409664020249,-120.638864965279,-122.378984696187,-96.1448052123199,-138.091022202177,-119.860141726042,-95.5850916774784,-151.975430146466,-143.978137818562,-97.1913408139616,-169.115375646659,-180.108989815655,-126.880852240077,-43.7458212771181,-31.7891890927009,-186.554138390637,2.23664676897954,93.9725385497317,-143.189679535081,42.4247416955606,-171.659326875535,-120.361036700103,73.2567359074816,-27.8513657271119,364.029238901874,-23.0619792551788,347.758273775516,305.088891508433,-13.3640722261092,360.918217028778,322.195304321622,1.28011935175183,-303.317135481212,130.992737346388,252.143099547838,165.720424134702,90.090924111872,5.9899846197458,216.911440173488,242.331202995759,282.1896088747,124.570286826139,71.0502383884608,-74.7580231394464,-67.9633842292427,-137.721045814738,-64.2520222897589,-112.694885012287,-127.970735062092,-52.947293028396,-63.9112021775231,-71.8612412062605,-41.5255692050887,-51.042160098245,-97.8572364568478,-68.0408100075301,-41.0686490001828,-94.3375873752532,-68.3759737148129,-92.0559007552661,-166.308512760225,-90.6020755153875,-124.885119929701
-123.928648397525,-128.894046950532,-138.542017282007,-138.28931469573,-117.408257761572,-156.894195871788,-137.35326371458,-121.555453432355,-167.376958571674,-165.906761080547,-120.159352443242,-170.508857105346,-206.497193660532,-154.952415917207,-14.0867619231295,-91.0689750135447,-229.41007149464,-23.036571524104,46.9535774489935,-131.348050091133,15.298306452494,-203.750331138929,-118.136715021169,44.5411715081815,-53.5864485437733,266.081442746424,-118.958457057967,282.179060870091,192.277362647473,-26.9513496157125,298.714704387104,162.086854463366,-269.864246739189,-309.158803087082,24.5995710602432,84.1098796364215,-34.6339566632187,21.9949585236994,-103.247731949621,88.7387089285537,82.7934311315529,134.764162341653,-47.6749153911827,-34.9556702149026,-143.75985619878,-94.8918658770174,-167.654424406589,-101.124169690865,-145.050414549328,-157.101334325902,-81.7843926198828,-86.7860290968371,-98.5317675141667,-69.4702986263753,-77.3338957641967,-125.979355489188,-84.0357902908753,-55.6731602561459,-98.889498193594,-75.9715492871505,-109.289202126622,-171.277373416864,-104.824805386874,-141.248241494527
-112.135270412396,-118.147283537864,-125.833874936213,-127.265476970198,-110.454446315627,-137.80297964898,-126.080335008007,-113.878321249056,-157.632229036439,-156.186015595858,-113.813235543708,-135.185231341616,-204.840863093429,-143.086448454227,9.6688437217947,-132.358324539581,-223.300325503727,-29.9274624230486,42.2695099165985,-102.749153558101,39.7761567733005,-180.857852976477,-109.486724117496,56.244853398617,-100.271341669248,178.775879238104,-214.664779996326,213.794410185896,168.376956420655,-28.7550227639822,264.300950012357,120.613607378513,-499.468089405158,-208.264336662385,-26.3343887503488,13.3602788023329,-212.948120931083,5.81871040184554,-130.010502557439,34.2651113441968,8.70519572498759,-29.1190230980346,-79.0801363799094,-29.5137649496681,-185.894070064776,-99.6027083759651,-160.814935599696,-112.669280490169,-147.958713679223,-152.671124993741,-85.5609503248586,-79.2267018775947,-111.414955366438,-65.8768184793914,-77.7603689843976,-138.277261887598,-71.4915215761128,-51.1158178002097,-92.2454561820686,-65.4411668889217,-97.2294986498148,-142.642906598515,-101.001323380378,-124.618351445344
-68.5134877806832,-79.3665829183628,-88.8322050884282,-89.2901030898859,-71.9253149742046,-105.882784524221,-90.7519995508486,-73.3808926759599,-122.161779947724,-107.511203313474,-72.531388256701,-90.6671529593333,-163.763896086535,-91.1176362621536,8.07444678891153,-137.271698492951,-209.206772560808,-25.9126430964048,69.8562080863604,-89.7803200815938,86.8570367814443,-187.381592583702,-50.0329925562681,74.6999143391614,-181.849171982629,82.627802640784,-324.176769080901,155.562650505704,123.131174647661,-52.6278354650003,189.889677837388,86.0734670704463,-629.197189019845,-89.3894240584704,-70.8829322707673,-35.369983955871,-400.797021213291,27.994645648675,-154.909322938661,-25.7761255456121,-62.4420219234264,-166.93113882761,-70.9124109728818,4.52730614654296,-173.28573820696,-84.1358929239408,-129.746427381387,-101.213642160593,-125.123933750143,-115.625652509943,-64.7047934702925,-60.4026706073734,-103.140481871123,-35.3640631649571,-56.0752006328092,-139.406885496508,-35.131373934646,-35.573242941949,-78.1890624555189,-36.2117651951834,-60.2037088726405,-82.7986596195089,-72.7901616461189,-74.9459122594238
-69.6536989262459,-79.3042001176002,-90.3551950442338,-88.4294501154055,-72.0271483198939,-127.659745252316,-97.7264072791681,-74.412130135645,-122.946965328916,-92.719623433743,-65.4110401876047,-111.781790334025,-148.018572877162,-70.856754202787,-62.2410876653669,-151.08978159427,-270.282837234341,-81.4205342448033,36.369259753604,-154.547850654595,60.3548014704921,-324.230726516272,-18.3508065664866,12.5843626921017,-279.807322740401,-80.5872398898467,-472.269776089948,95.7192084974009,-80.4768706644398,-143.74788086154,-16.4516875608676,-123.330077039465,-738.004010491029,-77.0443029939685,-183.476414580906,-214.056787997853,-708.152812608861,-37.7099507305729,-293.42238095842,-201.156574429581,-296.59930462302,-329.87904843949,-210.758886225675,-119.670379345662,-189.90377329333,-117.277775168001,-148.170366816816,-158.701552115121,-159.000456538899,-126.338806480694,-102.625936013308,-141.15929771549,-114.361990818725,-60.6951882775564,-91.9292196690531,-195.046116677198,-50.5955711270129,-95.1094765296817,-97.5762154958316,-56.8663367546066,-77.2795395505977,-63.1576051913286,-73.899230171254,-65.9351808889302
-132.993359146063,-134.848378451759,-143.397863062201,-143.705268143077,-126.840081745468,-202.730354304189,-162.296523128941,-142.082180575853,-178.825030353906,-143.994627298054,-117.122225015417,-191.102516727592,-191.325224230283,-109.842667433199,-182.164932401449,-191.194682461703,-385.664631990447,-199.436123196379,-99.4658308179888,-293.169716487294,-74.9487136788503,-513.912180502949,-106.436792974354,-148.437912825404,-350.112779552447,-297.755545610032,-631.010221905255,25.4759979125632,-346.807437172278,-270.129737521165,-282.080505171848,-445.633175634941,-878.082447260417,-181.74514753648,-349.944517655155,-464.591313982981,-1095.04384766367,-202.531305624878,-481.412827842974,-447.158633269613,-641.032296611651,-514.677915628506,-457.075853268271,-388.631781088681,-255.019938052031,-205.484658458309,-201.187471257716,-313.879422281111,-246.252469904133,-177.907944945352,-217.56313462647,-302.638920365257,-148.372829820196,-153.074310427164,-187.988008731057,-264.237066834947,-125.567728890289,-232.301679910735,-145.553015708639,-137.563898543405,-152.914565906332,-94.0406383236746,-117.530361754686,-112.324221123928
-187.966730499989,-188.985390303241,-195.243907605947,-197.992024398568,-176.425394269821,-259.151700378092,-221.262402258156,-212.961954576776,-227.407021680866,-201.927767617724,-177.388509748729,-234.638566198971,-238.973686511987,-158.561392428391,-261.576901544296,-232.633159568572,-429.092199140429,-273.630469940819,-263.56846923835,-403.68051071026,-242.897719371318,-557.02538117087,-268.360442366846,-316.941207291232,-354.721849875039,-455.279856706984,-725.614975429771,-65.2064106912016,-427.060152210398,-351.873504071475,-393.640337654257,-625.576255034756,-1026.11130052933,-337.616915710192,-506.806090780207,-584.717077778469,-1367.2011941091,-362.603955257135,-571.384529311558,-639.581203381151,-879.293659559482,-647.416819320491,-614.190554296593,-622.971212751148,-288.129232838186,-274.227281557124,-194.467763787251,-450.740295322944,-272.200921125979,-172.684137021059,-316.651446014662,-360.058425143053,-170.583486696988,-230.387364417325,-257.62280202492,-237.33772592299,-186.451327512489,-330.187855813234,-173.691925894106,-204.632734615147,-200.57490083275,-109.424925880332,-156.439080962969,-148.533019408552
-196.771444342801,-205.585144597249,-213.427471397645,-214.42122827044,-193.504340609072,-257.85265363509,-231.092268882721,-238.465305183348,-223.034706758475,-217.319646970772,-208.380700371283,-201.076783920863,-239.583977969956,-181.476595926457,-253.493057514781,-264.447182408578,-349.554253215969,-267.64259815885,-360.916266583201,-415.802631588758,-341.076286052919,-426.850964845441,-373.639455746252,-390.587522075873,-304.212963211703,-460.891990826869,-678.612229444898,-188.856894801671,-238.25845031308,-362.088862975431,-235.003542115019,-544.712351492038,-1169.00769063194,-487.846411901232,-624.298824099284,-527.078036844726,-1421.33143127898,-467.323725343728,-548.099171589812,-735.85761710009,-943.856641542065,-688.161754961902,-636.658640446687,-745.585000710244,-264.124226368995,-272.670641691013,-114.113162464587,-431.380631885183,-184.329962559134,-98.1175614250472,-319.741260807303,-232.794289332544,-166.831741685478,-244.85820946052,-256.352688201776,-126.433158925443,-193.984033371542,-302.997627371272,-162.720659895679,-211.676099112689,-183.424921991526,-89.2617668228136,-160.740613715025,-143.036325071359
-184.782452473248,-199.090077742695,-206.825548089556,-207.649713951906,-198.463762194283,-224.86132036151,-207.881855686068,-231.580866490634,-189.583318760512,-203.891502680243,-215.750310144315,-139.191926535736,-206.950791016317,-192.66646303914,-200.745908153198,-277.450472560289,-239.441424163785,-259.708702246142,-370.529067850716,-360.767762393753,-335.947221710439,-276.195488178652,-363.62416257951,-358.236418176316,-235.303580338678,-332.759049406561,-486.37316397457,-305.239800540235,34.1546243471728,-339.609763900584,72.1048878997786,-358.942190093228,-1296.92444669764,-559.914401067046,-674.339679422744,-429.63094733013,-1359.22363973968,-519.604089049279,-493.585875994006,-754.537588736535,-940.944189412587,-652.173513274972,-612.975486099508,-787.002757549904,-213.63394435011,-223.101868517903,-31.6973137076345,-275.92314106278,-62.4285924848802,-35.3598004769892,-257.927977092523,-64.9597650877495,-159.708947211443,-226.596675058059,-204.395675115874,-40.0368394869038,-175.124873541132,-188.29569924349,-133.586735016174,-178.306341370949,-144.355677416244,-71.4615194749533,-144.042843657258,-123.81975166268
-165.389775125835,-181.438267801963,-180.030624033895,-184.320065810806,-189.217755570298,-186.452960265489,-172.605815201367,-206.170381127615,-155.321484161974,-177.799210006722,-202.57169741303,-87.1521569289788,-164.205342514703,-192.956275670274,-145.554332119387,-241.189797799979,-189.894833518007,-249.289084167293,-318.463554289602,-272.936291593036,-261.6940326745,-166.36868153578,-269.255739420399,-273.105477729091,-155.355141216668,-140.494889941842,-253.146474423461,-320.640758195103,172.503946954081,-326.918806132454,302.384525658642,-294.702059310535,-1308.253019448,-484.495568779322,-587.407998918251,-388.204243993728,-1290.08490409026,-488.132214243394,-417.970265749471,-676.453499794019,-920.410955264386,-548.725501577484,-544.895836932837,-713.288385522179,-102.463946691508,-184.485722106327,25.8465917610048,-145.473101383545,9.79009626571474,-8.08990641401941,-228.831872804222,7.2613668859076,-181.403573374747,-214.494673616524,-124.653226289745,-10.7901764869659,-165.625005712628,-76.4248345794925,-109.467751020297,-139.473860161052,-112.850000643784,-65.1345871965201,-126.788949304483,-109.02387957312
-125.827008059958,-144.394249696388,-129.377652714768,-135.85622523216,-147.022577430195,-139.169882718513,-121.709961901671,-152.179738097959,-106.687316463972,-128.328735705356,-156.091445829225,-32.358264890935,-104.67973397285,-149.966814326585,-74.2451493160928,-146.233252414349,-172.461339310744,-155.197605479424,-217.540444938933,-139.87506306621,-159.894379756191,-32.7451628452386,-126.200711214135,-161.56885908799,-54.9650840303404,66.4621697897303,-94.0636346865466,-211.961867140814,143.603224896588,-338.908834635248,340.88253002313,-409.440784163901,-1074.33344970068,-291.484993852122,-352.715517625383,-392.501619358238,-1154.25666209171,-350.304445548937,-276.184830311876,-485.560015972726,-848.679046365261,-364.831921493301,-393.008089630223,-475.031370299087,108.312482687698,-182.96753624966,77.4617603386279,-120.501233948862,34.9727248647228,24.2896075832832,-257.53891352187,18.0858934677278,-219.682901174165,-204.513402935163,-45.0401002237793,10.2494885495373,-166.958575328689,-12.8644498733722,-94.033083361681,-114.493040170372,-84.4318112215671,-49.0309021647146,-115.793630874128,-90.0682709827248
