116.864257925902,116.429279298386,111.137039330277,113.311932467856,115.704314919193,112.586968088663,109.397124820214,115.921804232951,108.527167565183,110.992046454439,111.86200370947,105.047338545057,106.497267303443,109.252131944376,96.5652553084993,95.8402909293064,90.33056164744,83.9508751105422,88.1556685098612,76.7012313186128,64.3043404344136,71.8439699780201,65.5367798790415,56.9822002045649,77.7161814494829,51.32747804686,106.207281551765,24.6487888925599,50.0225421643127,95.0428301121941,71.7714735401008,73.801373801841,115.414329167516,109.252131944376,120.996554887301,96.6377517464186,49.7325564126355,150.212619368777,116.791761487982,137.018267667465,66.3342406961538,93.6653977917275,119.329136815158,104.612359917541,124.766369659105,119.691619004754,121.359037076898,119.184143939319,123.17144802488,124.983858972862,118.676668873884,121.069051325221,118.966654625561,118.02420093261,121.431533514817,125.27384472454,118.459179560126,123.896412404073,114.544371912484,118.531675998045,121.14154776314,123.098951586961,116.284286422547,122.15649789401
550.675926653181,549.55441668163,524.007880136005,534.110209144758,545.896987927035,530.017801762647,516.259500543431,546.856473321367,510.029176514767,522.884913620322,528.317776831873,493.662460074589,501.339799773375,516.586462786134,453.342672178879,451.13517218267,422.309264229296,393.560222346236,415.976749992346,358.87084218619,300.917835002911,338.21563038392,297.486187998664,262.767114068252,362.164332207057,223.10371691801,508.663396547356,124.932549159576,237.863296483179,454.745875465517,327.939624444893,334.671597362464,562.717618068443,517.818902230762,577.6057216958,430.560302426708,245.18689325716,706.448262042421,556.784115683915,645.726271605092,305.90989341042,447.195040397057,552.80219094668,504.140380170125,601.655604011292,565.686612106669,576.425833899446,564.438597504792,583.575753743153,591.885616593568,561.378171954933,572.584979233856,563.406615672541,558.427219334018,575.102409771387,593.914060311177,560.201197246843,586.798203870232,542.132999331759,559.820226811734,572.421498112504,582.651788295715,549.518896734736,577.962377708869
1044.06095584002,1043.77715608055,993.554359794788,1012.24118260185,1037.16302402009,1002.69312962185,979.83929078991,1037.5657207391,961.584463790994,990.533458248064,1005.00435186206,930.388880641835,948.961936379134,984.350736066134,854.091251941183,854.3569987624,789.678849154338,741.385614147395,790.764618825532,675.996038604114,561.586331197284,647.787038379898,522.028008238509,471.755747720503,679.385538601531,356.874061489718,995.649474134586,270.62282929437,456.592932254007,883.130024356903,567.66674669252,599.637530592241,1133.91602266694,987.806250664222,1109.15817244728,721.020572863109,516.257332397014,1331.84447417314,1073.7992175138,1207.30924916905,559.782514291404,866.577079274597,1004.26472284456,996.598549127003,1188.57929946592,1077.43001044818,1106.67157303459,1078.60592905384,1116.28444505061,1130.53126291693,1071.03700618157,1092.55442810587,1075.61184881525,1064.84515005362,1099.05694016698,1136.70102718483,1067.28244161689,1121.77706713951,1034.86351810358,1065.0096872774,1089.42874821273,1112.07532264492,1046.20614944676,1101.88713884252
1026.80807109753,1027.48207221889,975.761929309754,993.522809995137,1023.98667127219,981.651235752321,962.530739942656,1019.17572997753,934.16755163905,972.271700891066,994.103043178882,903.321033142375,930.665089543641,975.475650614711,830.667327814861,841.163588403439,758.188444922968,727.329457007495,782.371392768399,670.729089230661,533.228695948886,670.219078162537,423.339798161459,388.414142535263,670.579707245479,216.724807023964,1048.04712112573,333.764443474017,457.166888400914,888.097406374047,395.596768826655,569.144613853749,1248.19146355568,969.39421316101,1071.99198785198,490.708349517559,652.870513133345,1287.46829434645,1077.01340011586,1098.41943159487,524.329868783414,887.099935732441,868.588315834286,1062.59474729163,1267.56084760601,1067.05717725454,1109.95286630296,1074.42548977784,1113.96656304561,1124.48018947169,1063.67060982235,1086.70329900835,1066.97045507706,1055.28311837323,1093.93927225121,1134.3329513654,1055.20462904693,1118.12061792578,1028.28178354853,1052.98263935978,1076.93662537937,1104.38772506849,1035.48095942893,1091.48279868546
627.817332027093,625.886703589809,594.414086377151,605.555484839059,630.815848281181,596.421369421449,584.657633249398,619.403634750219,558.884448607152,593.895076335147,615.606322115868,540.278484571321,567.841205947606,602.848402027642,502.394184374543,523.409152373556,451.897026914338,462.533007401289,489.268838623637,452.446478451018,313.746379817653,487.033576345131,146.616337627462,109.817220414335,440.966412766146,-14.9076777436189,727.739108304158,269.883202263784,290.846442210272,499.916623247137,-38.6153326077828,447.431890419942,898.02592119213,553.471183127016,519.458092797013,-12.6774793244931,652.209849725331,738.83503757149,644.40761477242,445.967079572337,333.189382093266,589.67570955741,328.764168535761,728.57057653427,900.51840777785,656.940898679906,691.926671009899,666.851726703417,692.35975710569,695.888288045034,655.720719745098,673.637905187577,652.67879066742,647.90813816731,675.646927832834,702.979043167794,643.602038501281,694.243952880879,635.148904980181,647.702612384015,661.415639760539,680.797802020746,637.739333790856,670.567738839291
417.605901151688,412.613255049971,396.058352742433,405.437205299523,423.879117943463,398.651588422007,389.833680315909,411.800248475275,373.387944481922,401.4771971857,417.70415391796,361.032887332464,382.879154055979,404.782718632813,347.823285184804,370.933695362938,317.132213796164,357.309397861211,355.763865811443,386.167694922214,253.811875038628,413.927002907581,68.7798788096246,21.1628767548094,338.0042700968,6.71222073569904,509.027296294161,188.681720886305,223.658584089614,198.221441285858,-179.733569829399,519.01447891142,560.785744467965,273.015439746398,106.897706184612,-189.002239539311,630.467727537002,406.041713860256,349.029078528077,11.327123897329,320.350334568461,443.098519417172,55.9630204962786,430.97541642911,649.498677106523,431.196917857667,446.013758701654,435.993958269122,449.488889675934,454.269295834167,426.428244193292,438.761733270818,417.96753365197,421.562252871574,438.360337499108,453.132889994343,416.365741276368,454.810389787679,416.891303404392,426.479827373635,436.079394938323,443.893121272368,420.362729300092,439.977164909925
407.547548124567,403.747329402484,390.687902608323,400.582447800409,418.329840833434,393.564028323228,391.178333840718,409.059241992373,379.020352817552,403.983526414696,412.766936205912,366.174641155428,383.288938890343,403.136937145649,367.565996832027,391.014235014256,338.868019534426,400.963765097815,406.104020750189,439.00414870576,357.164626609078,425.424695836044,167.938509707083,217.875819052177,324.866830762644,225.217722140194,422.67412393128,211.701376775016,282.791735814328,122.424616419485,64.2964557299396,519.547248689321,338.154307213598,179.343840097655,18.5736696222456,-53.9257807312342,550.720195147701,295.496247438162,267.819181543294,-81.4217885518357,404.24475798712,475.129196598145,83.1283408574403,234.589014187266,549.71582013552,408.733645699469,413.963221526487,408.597221229415,414.966472933349,423.496588226695,402.349720641536,405.756025228386,394.782987616414,399.535805835557,411.976551570585,418.506040055793,397.821211966605,428.660307135785,399.193908512879,404.832671465773,415.972954701168,419.013974309247,400.379235258922,420.662883825744
305.670051773174,303.400508042897,297.271473033538,302.67002980019,319.886072869856,298.561320107452,304.281296901389,313.61188392968,294.903918837,317.254190419978,318.678981729605,285.481616858125,298.41260286223,323.266314657216,307.084384108286,338.895823945301,275.604311507485,370.169137333918,404.494887918166,391.602217208283,414.162098235477,325.780551955309,231.637180894636,499.344639433627,204.961269357282,384.926527657135,198.91397388208,304.545251876265,318.321071581157,74.9881452968855,285.840325468336,231.283293624367,91.7766501890184,52.5458631672845,-31.2164523658722,72.3954345380369,387.646248212131,108.217323674007,136.136934272214,-173.602458061034,337.299664469794,435.292821429774,69.4671651120658,15.9066439424683,342.906920988727,291.434797945087,296.79533300957,293.710544315487,290.618707628074,296.989370719749,290.684805371206,283.132038458811,289.782947575105,288.008802870324,294.559660996268,294.380045196538,290.251055458873,309.392457503862,298.159150089424,290.226635151783,295.602816927193,300.85169164992,290.126492820258,304.303592590101
122.228273785598,117.004330640642,125.31685986054,123.127313324809,130.062639612833,128.200063312812,133.563417146838,132.216056238045,133.785056066483,147.03027578861,143.126789024252,133.722232490772,138.47944787745,162.304468816042,171.809943888273,213.339347846558,141.164254806533,270.419014721716,321.89344912736,262.629897086128,393.839922756898,120.908870861034,270.913194128757,700.896455322019,7.20837852552606,445.146371590026,-201.144047008839,324.888365570994,288.588337264856,-25.2961601984779,230.758606510279,-76.4360970883221,-101.788816333135,-73.9073999585107,-151.01979292647,149.691925311503,242.116282394143,-40.1613526322692,-64.1002444327671,-292.621746266204,156.292288216498,315.038016649281,-11.9780969662891,-143.722409566207,102.99848184108,86.9960157621517,86.0295099532673,93.7253771189098,82.5547298712404,83.9863570916889,93.1926368229972,79.8221373269752,100.515350991484,90.9107933391211,86.6278888423524,82.1551784050866,97.3359083259519,101.48156218126,116.269088242138,94.2770166776115,87.4939555950258,94.5888682314342,100.02568508146,98.4534843251286
-6.93157825659299,-16.6820922309035,5.68262414393377,-3.16508950308997,-12.8680066687116,13.7991529855519,10.9867292155135,-0.36040141306993,25.4186831983923,24.3181248751553,12.5135693215573,38.3565529349492,31.4362681551574,37.1437967224624,82.213740028125,120.819448390376,57.0636343842505,200.636301104013,242.581294589452,182.685648997679,374.394765241238,-47.3253166632472,377.190996598674,771.333382872015,-113.856185072279,495.085495960758,-541.93103384507,270.123864773149,234.267961526792,-95.7447994289608,50.1606987314583,-190.438343800633,-164.392428601364,-97.1631826479935,-207.892602282564,229.397095144937,145.294226254813,-35.0342130016526,-194.390092310957,-285.980089793794,18.8147080423017,202.92927512091,-47.9940707485102,-180.170020510792,-19.8160048979981,-62.033001880585,-76.0274118103743,-58.1229511442461,-70.5939099201297,-74.8697390458279,-54.1319114741445,-70.397185711346,-39.818948115745,-55.4209217978441,-69.1930455932796,-76.4886224690244,-41.8150081433311,-50.3267184694581,-17.0179189351482,-45.2063405192838,-59.9068738730651,-58.6864588083521,-33.8608396742562,-51.6780029314541
-100.877636556978,-113.295100112669,-79.1679842792875,-94.1259732512396,-119.442768631277,-64.4274242405229,-76.6264918499711,-102.099417927865,-50.1644892437241,-65.5734775798695,-93.1413986687972,-22.7831353285522,-41.2412816794645,-69.7355160913316,31.1971642922027,47.3753005804705,29.946862086019,147.578579086086,154.805130731754,162.280073708955,345.191636227027,-87.8758986442649,481.157250114636,699.628932435142,-65.6432204415074,522.359447914168,-568.780794426948,267.504345658439,160.248343615107,-82.4734522868523,-24.4804892823325,-201.65383872521,-235.919164332431,-64.6661568619473,-146.960058913655,244.233363940413,19.1955206465284,-80.0794583278382,-225.727594881865,-198.665608911328,-67.8943695024606,59.7738432535943,-69.471412011233,-197.775413005821,-131.332482852713,-167.631003947579,-193.836211596054,-172.819425643433,-187.719390543765,-198.784660117003,-162.666055224588,-188.133353687251,-145.106417162605,-164.249459243509,-185.248720629807,-197.011049368044,-142.735112645009,-166.025267092436,-117.413550638275,-145.712654499846,-165.283557714569,-176.480711824071,-128.8339089486,-163.338528616965
-208.428525436719,-224.897745710035,-180.499948673312,-199.697525786206,-238.231078759511,-155.389833434705,-174.858033576238,-216.254271309545,-140.224805891452,-170.555184299079,-216.082628294448,-102.66325843529,-131.28175145341,-193.212417606529,-25.1065082932598,-46.7325487962595,25.4838200070208,75.1383553252286,33.9363917192694,148.768132639683,265.892834177717,9.18117834949291,465.18173640704,532.670644948465,115.752841560197,480.619573915471,-289.4874127714,320.717890968226,87.5077021923352,-2.4781982198371,48.0543942322328,-169.404659771747,-401.706720902574,-35.8142840623105,-52.0512587916996,187.894426120706,-133.708699214321,-285.090605817714,-201.937490625419,-140.746563118069,-134.653721890753,-120.101611986548,-109.898041751822,-250.669223243046,-333.604455575398,-281.455830787685,-319.405329314913,-293.269682130966,-318.918831273688,-332.466982032011,-278.679799108355,-320.196303056106,-261.814907297491,-282.270275745781,-312.229942430781,-331.456801739109,-256.182927227411,-301.122263049585,-228.589764138592,-258.607523856529,-287.184516554929,-308.197775087304,-235.137778097701,-288.039535333835
-291.953392655678,-316.775990004958,-265.43319268781,-286.079810377026,-331.493718092184,-229.595271558852,-254.439664879922,-303.772537189188,-213.67189649656,-258.084480212921,-314.345062297129,-173.130743286969,-211.853465972548,-287.932321822006,-75.0701928918993,-131.388766636156,30.9940855849571,1.37635626940194,-73.7078004979703,122.18709381036,162.327853231722,169.717312313572,324.658968242831,364.09144072402,275.19302318541,394.786927907409,11.2394620492664,311.973215258706,75.3219797397184,91.2966656614923,188.746742686116,-71.8339831423362,-524.429893462905,-18.7160590902688,10.0221877126644,161.446568734074,-215.131554364317,-470.378238105166,-164.856429061876,-105.342308064496,-129.735122818072,-242.134311994095,-120.130603925119,-271.645364844198,-508.786228218912,-372.627158375479,-419.974287946604,-385.068913580094,-422.064611981251,-432.114264384804,-369.645859625196,-422.259139622393,-350.207882215707,-374.682708431943,-411.531047452991,-437.300156847127,-345.76085720328,-409.025809112602,-315.598405960358,-350.860479317665,-386.748307730927,-411.743487055082,-319.622205408575,-387.565062243139
-345.257973478251,-376.313735521316,-319.922650036678,-343.509442421306,-386.018083858276,-284.229239901224,-312.156065872032,-360.520380024728,-270.718627349123,-317.932211072408,-374.634021001005,-230.0568619061,-275.987017486761,-346.894000562988,-133.904521457319,-202.623785424482,-3.34302018077118,-84.8819757964183,-157.002873474224,41.0296656953737,52.4947547109512,250.093807771214,100.262976660317,218.305915120221,268.753032434665,266.109950917396,87.7718190927595,191.624096162599,106.736715085375,105.723630366147,298.556864923024,16.8404040450215,-503.19366557849,-62.6434876913251,13.8290602285662,172.004370565095,-208.55888080456,-504.164227099688,-180.511351436986,-84.9435251106922,-61.7002243777901,-286.044113348823,-103.858959850885,-250.566160221818,-552.997124258586,-427.837481665262,-476.30729380792,-437.97677266578,-478.749570970576,-486.417423853618,-425.061160063741,-475.401673605867,-399.683729682914,-431.502426455722,-466.760611138369,-492.354254499536,-398.48780937751,-465.904372512367,-371.74553583661,-408.210108220719,-440.47969007888,-468.227967028467,-373.767639527613,-446.44762775605
-412.245499986702,-440.104158259988,-383.045112594066,-409.812617024843,-444.486706730634,-355.897974268421,-383.691979047042,-428.706684459051,-349.4183922123,-387.440527659225,-436.46558891763,-309.538342393185,-355.274434136099,-413.937360380649,-236.733774309212,-295.300406906936,-114.749109654294,-212.493900887806,-254.842863037792,-133.420088292925,-71.9257043775388,191.963846494865,-158.494565372968,60.4394414077943,112.277631558426,102.703931923007,-34.3444888984976,9.22342583496906,97.7343141593648,-13.6555153508673,305.488172871541,28.2388455504307,-408.612950510126,-200.670717066349,-50.9261053511523,144.401286312659,-183.36265743666,-451.908742988607,-271.906186492592,-106.576262418021,-31.4285017082162,-315.673655938935,-114.290308143827,-252.958151810571,-531.210548418716,-479.513639142047,-523.043727629564,-487.060072483258,-528.374949378432,-537.223908513487,-477.033358675508,-518.112849080652,-453.635944725501,-487.855512954909,-516.267076488893,-537.525957180827,-452.512522862602,-515.86858700632,-433.000675987177,-463.113324897558,-488.115093519755,-515.653192877044,-434.836927173446,-498.857076371114
-474.014399226806,-492.496715434493,-447.203276253744,-468.184428166127,-496.281344190993,-423.726312614786,-449.070705193704,-488.690407374478,-422.053776450861,-453.012475867423,-489.483110298505,-388.527534918977,-429.396395272872,-472.095347356306,-344.956345443134,-381.564810606191,-245.016295322651,-335.461152593961,-345.853427393241,-333.847052913145,-167.161025695774,83.1879188785716,-341.659975627789,-92.3582371701436,-74.3001862102018,23.8481788174343,-192.529983489522,-166.101931876388,32.9810425085034,-211.467371370708,240.269159219851,24.3713693369582,-303.209792811729,-358.543997363493,-141.369752776039,93.6669239477666,-157.093441958159,-380.36157197883,-365.353350235066,-123.997506087318,-62.713619809905,-338.152664684417,-137.137816771194,-277.19029556773,-511.427687283739,-515.7493186588,-553.194975155461,-521.079605220885,-562.98363374867,-572.290370707107,-511.705946768183,-544.925761929229,-499.515640824041,-525.679105104704,-549.075449799014,-568.89052939205,-496.456552953473,-554.649462707826,-484.489469752309,-504.953706318495,-527.969748520946,-548.749897252967,-485.82992830995,-534.341398171362
-483.044357905072,-492.638925732142,-467.702784314539,-473.999575399799,-496.031851632032,-445.782694570411,-463.932690454849,-494.762019523394,-441.759299191052,-468.726697746678,-489.91116385075,-419.8481002712,-452.070587630454,-475.121162680284,-394.721737892573,-407.443460500579,-321.637383769278,-387.549860998618,-376.299630019186,-452.186115562917,-188.287747718896,-12.1118433607709,-356.448877497966,-211.662532348184,-220.396777912277,64.4725590524229,-317.06696846639,-275.20754852525,-42.3123623589857,-389.888549634406,180.296907355974,51.2630913791561,-173.210258840373,-450.53477877468,-200.718104631421,67.654566608032,-108.945595162383,-287.713748456683,-404.223033801091,-91.5317038841919,-89.4499703986147,-316.589175519327,-134.751104789894,-268.786242527212,-473.555185786806,-503.282971583858,-530.405800329218,-507.448505559629,-542.099702732664,-550.433616059109,-498.550805294511,-521.518433542448,-497.380582616691,-507.813915123741,-526.114707494341,-546.01703525641,-494.518983517689,-538.929639691766,-490.965550334867,-501.02243096316,-517.342958094791,-532.178528597763,-486.44003791831,-520.087453449248
-453.921759162882,-456.939854259308,-447.152129080479,-441.596372020725,-453.35422096269,-435.780269242701,-439.420921201865,-462.132308014071,-425.337092837898,-439.709353418374,-446.163061951828,-411.573746352308,-427.804216895672,-435.696431845571,-389.492848722594,-387.354841658744,-347.247287396049,-379.419922318064,-361.36349149217,-474.866214681708,-180.837437694441,-121.905517508041,-238.299937805048,-342.020131676583,-314.021147939969,22.6077374552195,-431.838801665072,-277.979174833746,-117.204453201264,-477.303567132586,123.033099304429,39.3523842718222,-54.454918306723,-473.387887629638,-234.875931306045,16.6050644936388,-78.9490739146142,-208.487482614727,-413.71998707312,-75.078789140628,-106.945026640501,-276.072832540704,-142.391334025931,-240.311062917378,-412.757082670996,-459.958210277704,-473.121393702288,-463.476838188233,-481.263295353375,-489.290989867353,-458.758487905223,-463.783733493508,-464.600512257728,-460.002014338701,-467.285971055581,-484.245111888124,-462.877228889541,-483.546072190384,-467.025372910853,-466.178084230735,-464.983658614292,-479.17013236905,-455.098230823251,-472.927616804521
-419.546037545011,-416.727395649702,-414.425282359958,-406.4776547241,-405.242690301447,-417.71664239342,-407.442060946177,-425.473588162819,-398.471085824535,-398.475703569555,-396.367118496267,-386.816661896921,-386.676571254969,-389.78503295058,-365.984978414127,-360.86072390378,-357.438628098522,-356.123709383152,-346.817490289724,-461.171633650249,-200.685233594875,-263.973058500021,-93.1011638808076,-492.583801981353,-350.887856589131,-231.335312996908,-521.00677894309,-197.905706909238,-185.822222315556,-451.598371102472,41.2604222047493,-48.0709414631396,-41.7205190008103,-445.424782364201,-266.872115155666,-108.756180516368,-138.594990596666,-220.016734949455,-412.775817414993,-121.815725607353,-175.188193801417,-291.990990620099,-201.732013315891,-249.055246023636,-387.089224480225,-418.374756372361,-423.780214529643,-418.118318294591,-423.278901378943,-432.432164045294,-420.88726183613,-409.948557056341,-429.921827055065,-418.36925798311,-414.983793985822,-426.749347963656,-429.15724946516,-429.784591278147,-435.602486644541,-426.707400019627,-413.682509490562,-424.839186892689,-424.27897456307,-426.054095706958
-374.224063856709,-365.21357193339,-368.287865097256,-365.343223805112,-356.535068297973,-379.256855484648,-365.672033688569,-382.99308194506,-349.720377135995,-350.98541499737,-347.699492708242,-341.943726851595,-336.889017092566,-342.096009319907,-332.850557293882,-326.539996050567,-367.17382474833,-323.542252700441,-328.060305325125,-451.455585812298,-210.626636583263,-445.43432620741,44.5397637961061,-533.220983190805,-347.275290128343,-479.74802386001,-512.371355003311,-123.554276592668,-199.382065606636,-357.315156709997,-25.9874400628294,-129.754589326566,-143.145752752681,-357.016285539488,-272.140393815736,-242.371450263337,-278.104627357825,-340.125971398946,-370.949649687563,-155.230858838142,-275.407686104702,-392.19696586328,-269.686044028986,-290.2259869155,-437.709891665887,-372.006897303585,-378.601966069881,-365.468606535779,-370.568080807133,-380.899628217248,-372.675226244393,-361.243088339006,-379.662843159791,-369.353892029333,-367.210370882766,-373.357723003051,-385.30595829694,-373.920074429638,-383.696767100791,-373.983692573329,-366.519094195276,-370.176227857281,-381.248534806201,-375.95655957859
-323.240572412569,-311.566234885473,-315.847310798127,-321.242384351333,-313.946572812581,-327.402784579946,-319.402634618035,-341.997092449461,-294.907627944501,-309.202870972473,-307.180133110506,-294.267097578711,-296.468970689383,-305.799110378288,-303.546447220724,-295.126587349212,-382.096223487279,-293.670569918574,-307.109113771837,-461.785696826231,-191.98638484109,-676.226815416382,155.521874250406,-399.406163543314,-349.843118014692,-487.967711713651,-412.296511418134,-124.138156055735,-160.397540384061,-276.402350344172,-64.1931823671325,-157.601151536234,-274.33851876622,-247.346256942777,-245.269386777395,-317.959800303235,-411.214280486933,-512.011062248167,-293.505512355483,-133.195437102925,-323.815375247829,-530.761046168754,-294.019496823344,-314.804203273383,-539.468038191665,-319.089432093769,-328.916665795799,-312.865947569637,-321.238465852321,-330.232697561655,-315.428025816687,-315.01158279439,-317.767092794822,-312.709621634675,-318.267021875171,-322.472167168196,-333.843496160391,-318.281296063227,-317.829548108158,-313.778338563203,-319.150784676516,-318.970808632484,-323.271336255381,-324.168062979654
-320.771170101912,-314.491578208144,-312.118271916323,-324.28994676431,-324.209910743374,-322.609294904831,-321.223116215002,-353.582867343698,-300.296338517594,-323.625769500924,-323.627758352987,-302.235094739191,-316.815308321538,-331.771680195841,-328.029477100086,-330.742839051947,-413.05293184975,-331.819245031791,-357.411830543571,-498.28920309944,-262.978219397446,-853.791047072053,92.6179911630559,-298.970679082338,-393.612198417408,-408.782332353109,-346.429718327497,-201.107242005231,-187.872803507694,-275.134770846789,-152.217780849804,-210.422331407182,-420.767688326179,-221.398870745705,-260.624322329057,-389.726373581277,-510.035196178052,-706.839836730123,-262.533587832737,-149.818117286317,-334.208319387981,-667.028678799944,-310.222687871858,-332.905362129716,-660.638668098618,-309.670652297917,-321.200553460733,-313.14877618399,-318.532026073097,-324.620264633,-306.735152737656,-313.285395176198,-305.419866272574,-306.755681394688,-313.016663972729,-322.36664633292,-323.164087022271,-320.735761682062,-299.988637905889,-304.144576060249,-315.926719075387,-318.677459265716,-308.059104640479,-320.444691108455
-394.32532205055,-398.333744565718,-384.815367123509,-399.454390565532,-407.89113212474,-395.526878901648,-399.201113083359,-437.672482096715,-387.410712869707,-415.125231765372,-419.974147248856,-387.135159457508,-413.174997778947,-433.493973240929,-422.651580993642,-456.252092771901,-460.163643257373,-463.421029455365,-518.133554721384,-540.665757495776,-502.695502652262,-828.994802457141,-230.060740061229,-458.427835427336,-465.031875392997,-501.124590460167,-373.522737341627,-325.156753266881,-365.428198875896,-355.220708951249,-332.183742358358,-344.980950636631,-630.455765787928,-299.455790612659,-372.235004594846,-519.593274393739,-622.778228061356,-945.855295037097,-329.450507785208,-273.353284680273,-394.782359783356,-816.52812165781,-375.89305182602,-404.560845271688,-804.696979270166,-377.620548108319,-391.45047262893,-390.706261289501,-388.508239592753,-393.446938247182,-380.893504415392,-384.639448591773,-373.337435058434,-380.985094493248,-383.578259201092,-399.510458358512,-383.848788433393,-406.199166474885,-364.672912442931,-376.951059309711,-386.958598486568,-395.109815040994,-372.254946962927,-392.791796607307
-481.168473300461,-493.719860471757,-472.166297837211,-486.65229866562,-500.147584869619,-482.994970608935,-492.777309147338,-527.949188836575,-484.165920164256,-517.444031293105,-525.446592791792,-483.990587761697,-517.489243678626,-537.358809786948,-524.640406674607,-589.326443487309,-502.802244471124,-609.489616526825,-699.98114479728,-572.235678330112,-780.104348368334,-660.039952753537,-615.117578779032,-777.980092583175,-534.922577696577,-697.170511493198,-398.519205113968,-456.664465663035,-594.2583252372,-434.347609386545,-513.560310439704,-476.011042452042,-836.611111353371,-366.615353205012,-505.568303845332,-641.51464035627,-728.804545452616,-1185.16362581476,-425.425042196572,-421.00206839815,-489.066106804203,-983.597835577362,-465.014371001004,-526.572515880867,-948.422799359624,-464.269104438666,-483.737120871226,-481.86315046269,-473.506784644834,-479.377517347896,-472.638827816852,-471.877646799535,-456.76475034362,-466.599238898651,-472.374651190444,-490.617826846977,-462.135176560758,-499.918851617357,-450.465156906955,-465.766845686377,-475.350388461016,-486.537833301669,-454.381443999461,-480.889571690206
-501.19004366344,-515.836303256264,-497.059323940508,-510.583827710637,-521.791043927599,-505.584500912082,-521.054018689654,-547.115958132571,-512.81638317747,-547.874068198686,-551.229652850757,-517.270711190501,-553.091654683477,-564.673354781336,-566.703502442688,-641.61180099735,-513.355013594085,-683.469353758256,-786.073454009261,-599.965700786063,-924.738288627883,-538.462030600283,-824.082549826686,-982.586078971402,-579.87668021656,-787.289024114191,-337.427255099355,-531.631438742395,-715.26114394653,-411.287851329498,-594.04124296913,-503.525800062887,-887.340052836261,-333.526165907008,-533.360993675704,-652.424214591254,-726.579646672414,-1293.29585480668,-440.615336000524,-474.840289771787,-504.375003421565,-1092.45866692446,-497.657878054386,-608.947712138264,-1005.47004893026,-480.695765427588,-506.719042377883,-500.724464582052,-491.91778946189,-498.089336556053,-490.315442775465,-490.393352354786,-474.969037890475,-477.899944098368,-492.775384826258,-509.284451571796,-476.518751352171,-517.3671401558,-473.279376996521,-481.514630413928,-496.869394849555,-505.292860585262,-472.097679193091,-502.546855496031
-452.150283777323,-458.8159380495,-454.173096946375,-465.821310400314,-468.725367074548,-461.591172136015,-475.241912523749,-491.164048131214,-472.9931513235,-499.373167799889,-495.079655814253,-483.351978255948,-516.78368129513,-513.938083933796,-544.808043662083,-610.894495901059,-480.586654915479,-672.853062510793,-755.181240368905,-609.147160809878,-920.717252993679,-494.747033800408,-846.109667534383,-979.393038622997,-556.54229673059,-741.279525197534,-202.334625233517,-489.433458197635,-701.096738112944,-265.537713945753,-581.411926286117,-450.112912277994,-762.647334350539,-231.844025058437,-437.135184407293,-548.581035528996,-591.731925466084,-1196.66465264526,-355.397925506671,-428.08808279679,-400.079139705732,-1053.4289843256,-446.426753212411,-583.981510766871,-913.785894752899,-416.213999557446,-439.663847903526,-435.319094079619,-430.367365858585,-433.686191169609,-426.788284411744,-428.220252087431,-423.065428599523,-413.819466296893,-431.170318204302,-442.730441310161,-418.030045861121,-457.848432698367,-425.595631821369,-421.700372473163,-438.352402545916,-439.696096043374,-423.407700008625,-445.897025509636
-383.114589320256,-374.395096106874,-384.929784768961,-393.090364900419,-387.208582274582,-397.531390961491,-401.003634593732,-406.450093616314,-408.969524163762,-420.38496831386,-409.609787024799,-421.836284655659,-450.212897131707,-428.912075267869,-491.816154124282,-540.664124488371,-423.833038073387,-610.517456747731,-661.110546613907,-576.53140898314,-841.620764693186,-445.901950242937,-787.413501734149,-869.895170845923,-454.381201217041,-634.879797766245,-27.8625906825912,-342.68680892003,-628.71302961434,-76.8548940263553,-537.448049809486,-389.129030463481,-613.086441186798,-132.100228762543,-320.912478392251,-391.768454190048,-413.931931565421,-956.040971366331,-239.647904357367,-356.57291046433,-251.793262741015,-885.413484334362,-357.898737639857,-483.562473134686,-718.872544752114,-324.032679026316,-332.139682608988,-338.210768241857,-332.721777708842,-331.818917330037,-338.357881206546,-330.918408212289,-346.302302462335,-328.069536182641,-335.129426247757,-341.840038350047,-335.51182865041,-366.728176079375,-354.802479283642,-341.844613393634,-348.58391651344,-343.029702517568,-354.552208146691,-355.303169674631
-319.839836735599,-297.587630300499,-316.224886806048,-319.077005346038,-309.039222193803,-339.703642381297,-331.749167809355,-327.534234228619,-346.033721629282,-343.932459303828,-322.061271350257,-359.419964380714,-378.196037281077,-339.759978488011,-436.772493731352,-464.23707195097,-379.280835358705,-537.59756044956,-557.932502358732,-528.359587366438,-745.051344024801,-403.603371966621,-719.288524548431,-757.886665280212,-353.864720650908,-526.666474092133,136.869665760233,-193.124751419851,-555.076317620841,59.1252607210785,-495.877553651127,-358.890304886547,-582.845440181691,-59.0529002078905,-274.575260988767,-250.131113768313,-290.90282556457,-681.820254887138,-153.315424026721,-318.056979835757,-158.585530103582,-709.318638454921,-283.162187226533,-391.3866441385,-520.120901746047,-238.642286840961,-231.561885941582,-250.092389236659,-235.803297013534,-233.202831436502,-259.320900729178,-232.456718541582,-273.575771722911,-249.922544723422,-242.451253303995,-247.747559972119,-260.610521819654,-271.485721073062,-288.923728674303,-269.770201635209,-264.119443764381,-251.986014746872,-287.036028236053,-267.60460574862
-266.808094195533,-237.70502128828,-261.913908415454,-258.830921054206,-247.5339633153,-298.188889154231,-280.335407846412,-268.450352558978,-296.126659023473,-282.39567259491,-244.897416145877,-315.690113863768,-315.052159770005,-265.661129268454,-402.528803289993,-406.473705155481,-368.565829645896,-486.624939691775,-476.815509988904,-501.329813264152,-668.057392111465,-423.118672334513,-670.066074566174,-698.905633365566,-328.733707190791,-484.195150187993,216.963097955035,-131.329493739616,-494.288047263617,118.446869817994,-470.878265210244,-391.784119782013,-659.406178869615,-8.59696233887369,-297.074502996491,-206.482086905452,-275.592239768869,-435.748115193674,-108.393916192634,-338.470592026509,-161.728141615054,-604.381474660114,-239.935390978702,-353.868236348734,-368.310665723974,-174.172500813832,-160.11224486934,-183.855202372879,-162.578910992003,-158.359894589338,-198.468950275724,-155.801573212974,-216.342483519441,-187.335837158605,-173.093772851141,-174.607691852037,-204.912908310455,-194.57823093855,-236.567212409457,-211.419031499164,-198.455948265175,-178.895919252131,-229.910798705792,-200.197250487388
-237.258389522425,-206.45966445963,-237.8279957829,-229.129232171208,-213.177922151066,-283.518562132342,-254.531682840516,-238.604426570808,-274.548919289732,-251.649774791313,-201.381331203748,-304.265012735159,-280.743676380408,-226.05318139688,-396.283683939377,-377.389400435726,-381.165649222904,-460.901039582059,-425.953011919024,-482.37239530503,-620.074145314502,-481.987556603139,-632.136815480603,-702.272699276089,-357.470908385797,-540.326634336679,209.709687778176,-152.634203510789,-424.713746290516,129.278820281241,-471.737256143637,-486.956918440142,-699.127942901055,10.7256927940499,-355.546625446958,-294.12014955754,-365.881981034236,-208.477701604176,-101.911392202927,-427.796011177379,-225.192515778002,-528.329253999229,-228.667740217163,-351.936809944533,-251.18674208436,-154.379725847424,-131.696200542781,-154.061028042535,-134.863913324603,-125.230569328115,-172.516689774789,-126.603387861292,-191.118165576267,-158.226278619339,-148.105966789788,-137.346038898352,-182.927962324916,-163.102883281157,-214.466745600658,-184.214772567247,-169.590471188158,-145.587829276848,-204.912814694584,-167.630972477031
-228.683644707614,-200.5377283137,-233.314078749962,-221.002689106278,-198.176290839137,-282.735425777602,-241.299754506052,-226.740966565843,-269.772409498141,-244.675684619913,-188.074077647769,-305.435957300004,-269.674758720228,-212.800946372293,-392.420653645386,-353.044797675613,-387.067795362579,-437.251346774441,-384.527026637032,-448.926501606444,-570.888653706027,-518.591500239613,-584.901464870329,-687.243494854971,-414.83145158633,-606.004690243835,198.22749346662,-231.413026965782,-307.009547819335,77.5068640902159,-486.937412718674,-570.11135036211,-602.948346703698,-11.4514954260651,-453.852790220852,-416.653439786109,-500.346765283778,27.3120053366205,-129.841404261626,-543.781241030068,-291.292296005737,-411.37553454616,-237.333161799565,-350.230469640851,-141.718410927141,-171.67060466517,-136.29274565466,-155.899023486944,-139.991209323961,-126.562663076422,-177.515706590196,-133.448173306055,-193.903447216455,-158.852305952145,-155.722803288187,-134.340031918896,-186.438244101208,-163.37379975954,-216.766154549525,-184.526953724802,-172.008934443506,-150.138344277784,-206.571812500802,-163.762704046349
-212.227236750222,-188.782682686143,-214.902216872902,-203.327064061333,-176.886536421361,-266.152435669352,-214.061535586171,-200.607149440399,-248.576770986257,-223.84219249659,-169.573598914645,-287.533360068509,-248.300466213859,-191.726484511348,-362.443431538061,-307.510186316832,-372.150915396281,-397.982380607849,-329.562635052903,-410.58566971979,-494.696065696343,-516.333907267364,-526.759731605956,-566.411860305965,-523.032865378353,-549.278677699212,168.803353346191,-383.557877522782,-183.932785449201,-101.381662424053,-491.367439447595,-620.921222535105,-421.681651688217,-67.3280247974572,-587.916691970706,-438.63591693947,-623.094767551584,251.51525801062,-181.219702244166,-586.872939386956,-357.516296557836,-253.217065902884,-243.484758921633,-341.527198463634,-27.49222263782,-172.523283049796,-131.698449779962,-148.968798587829,-131.942018990091,-120.152373948421,-170.760947709265,-126.414930420494,-187.171655334013,-148.7022940774,-145.453259595996,-126.167423826435,-177.786669120171,-146.007030036354,-203.446418834391,-173.319179567005,-162.0046179032,-144.593428758189,-194.78690760693,-152.940920791659
-196.394826821817,-171.616826441081,-197.026840032486,-186.13855784603,-158.452912728968,-247.636732370239,-188.929737975126,-170.317624857165,-226.614053720873,-195.554742281544,-149.793394634154,-267.606780347521,-219.492485211541,-169.52705738933,-328.368877256856,-265.278235107131,-362.310225878895,-356.603918314433,-281.035146230138,-381.254920666643,-413.772763946448,-515.369183367158,-466.604383561439,-392.592829936784,-635.075809743419,-379.527311635622,-57.8250942968537,-573.169721307507,-176.985935549697,-405.264829607934,-484.925900883674,-727.5494653412,-254.267736534478,-150.289463961489,-696.312070932118,-337.403612855949,-707.888008783932,400.285589208753,-255.288489416771,-501.61057042694,-451.393887990747,-82.4364028722489,-250.197055750239,-326.740642969341,75.0180847692092,-151.861478006296,-111.793887582998,-129.385033151117,-111.933975988551,-99.4017532586656,-148.003476169877,-101.926659190183,-168.915169533778,-128.070482553942,-118.299395153783,-104.086126274791,-158.147143666504,-116.388845880974,-177.794074236506,-152.485549703815,-136.909061870741,-120.510653792478,-176.426374961814,-133.736615203623
-255.431869050152,-220.713758091043,-255.345118983136,-238.839208996571,-211.637317999894,-300.711115302731,-237.084874234975,-214.275685771118,-280.464913410996,-239.82507072386,-198.10769915239,-315.075407773005,-252.741855311594,-215.533161913834,-354.316558625336,-285.687058360114,-403.242530301726,-350.773469852185,-288.431099294228,-368.442952186046,-368.959989746793,-553.760068104538,-413.553480578726,-291.835343968967,-639.028279915216,-240.376226697487,-570.417360394251,-685.721830194369,-315.49359782281,-726.901015765432,-497.122085538709,-900.010255693181,-150.070620395354,-275.441554170282,-785.913817145322,-216.581058504636,-690.514510140674,409.117872399373,-388.4127750057,-378.535821203301,-545.466623807123,81.5649614651045,-303.598639010474,-309.566377675406,104.505516628069,-199.78477052217,-153.827712806142,-175.11182280599,-159.163450860772,-141.719105228803,-193.109622196923,-142.753413591403,-219.619073737827,-178.142910463667,-164.511896004048,-148.267961010573,-207.621968175435,-163.369762783083,-226.217100829744,-206.015470110569,-181.457098965745,-164.373174324773,-234.076060809471,-183.933281149774
-428.964882198659,-386.613040306035,-420.011019184593,-395.901820166413,-375.244004852276,-462.908831986807,-391.059874552682,-374.374353051136,-439.052911677034,-396.760264033921,-352.458380780668,-458.468259465664,-392.510568602952,-363.224332927637,-460.428627125054,-383.298275957392,-499.816877137496,-394.579619121396,-360.016658928613,-374.212531835676,-361.208999334027,-600.960968845449,-365.328658071056,-292.91116734948,-525.381959665096,-204.591415301399,-1114.99684262742,-656.770966301809,-529.457427634809,-959.791172855377,-507.337222266927,-1005.59920819043,-149.465858683134,-445.765182005253,-954.690156858227,-206.603081146222,-531.468329176605,276.465552699524,-606.222239530267,-368.017975994038,-569.302675346251,201.853373767306,-422.935571440356,-324.037326502988,7.44891149686714,-375.009609986605,-314.934873894458,-342.756205526103,-325.398588174266,-308.897659851331,-365.215167034863,-307.897330567755,-398.494015746045,-348.840164480153,-337.801158231725,-321.014788151703,-381.977705710087,-338.31891686539,-403.783662534776,-384.70554323039,-353.78229532105,-339.082617525378,-409.571149128775,-358.862660157192
-611.292704092588,-571.859169721069,-586.081830402879,-560.688604625411,-549.015138008085,-631.187993916875,-550.008527609589,-545.878537595672,-593.030388021756,-558.299746576575,-516.887643141318,-597.717453754478,-543.044909754368,-515.11575307783,-556.711760809317,-474.723336379335,-572.820897483607,-429.176752252879,-420.056304410027,-355.758584243116,-341.296355539076,-571.048517419811,-281.459584404703,-313.019729936527,-369.022634115954,-211.790164057638,-1340.21065951623,-513.481900483037,-757.80972914329,-1034.07504732587,-425.829425435612,-923.099124763133,-254.695445403035,-607.383936065604,-1096.78602672448,-320.391015333848,-341.876454758645,147.846129609566,-813.689261474211,-462.891099033381,-492.578455054004,275.368947064914,-519.92925057391,-368.212696307809,-144.925115498902,-569.389556028788,-499.428205906614,-536.841711816714,-516.165254766788,-506.168132327639,-560.705081726479,-499.822863668996,-602.159128478259,-536.696820885851,-530.854426130013,-520.378859088807,-578.219350636189,-534.966212834419,-603.068286878594,-578.331883782351,-548.517087684623,-539.190136806465,-595.646244549548,-555.853569098466
-626.592341027143,-593.358947403056,-594.217557899691,-574.233154046632,-562.014377917928,-636.242328124317,-551.753020873096,-556.863805103012,-584.642979640804,-557.930224281284,-528.999654558867,-580.838587217723,-536.105173625715,-515.877469464291,-513.665157781024,-439.230675643716,-517.575334856922,-359.846385347558,-362.928688188093,-242.92551742471,-248.850756375684,-421.810399763561,-118.704777375697,-237.669177629221,-186.730235129265,-183.266886949064,-1276.38908095959,-303.498652667645,-843.839522446775,-897.58619375964,-249.777044760981,-641.275706167797,-290.138165760022,-685.111616778759,-901.538212476701,-379.853044188938,-231.136579480838,242.794305440034,-840.563119942654,-481.202699196893,-342.650611171062,394.467173960416,-464.460777173502,-316.703920345402,-177.81713521087,-596.681535533205,-528.01428793737,-571.957300035314,-552.161895201367,-542.704388819562,-591.175661392087,-533.725213862451,-635.698522460411,-564.876536109053,-562.657771990683,-554.702693283401,-607.297774003199,-571.210705700353,-634.995835987826,-602.023926347916,-576.693263135416,-570.908752421173,-620.14678325862,-587.441053938502
-449.198634664084,-415.997959855356,-423.930150900449,-409.764821694764,-387.608888076189,-455.278697027436,-374.592586221477,-381.175948123091,-403.306075013177,-380.106185364602,-359.277654328245,-395.632043621247,-348.634048328995,-343.191917101583,-322.783855475159,-261.088535896715,-336.795527180148,-174.763735390813,-176.602898445033,-43.1703409016293,-74.8582919674773,-217.080490187884,83.1026217035687,-16.9631695766822,-16.0013268687149,-70.7815157711608,-1241.27903850853,-113.631865451509,-560.076169833247,-630.175634923752,-113.313239124621,-249.979725830142,-17.2425937330607,-668.638278582037,-359.144041677353,-202.607342491382,-96.6222512803388,583.837692364054,-658.477166461368,-313.138616160221,-169.813642247134,624.002287723882,-252.996156763492,-52.293514292714,-28.3010041608034,-430.431036193988,-365.398224960111,-405.182743164293,-391.421006281507,-376.698371074281,-423.647342308984,-372.416958288377,-462.804879998245,-405.42874056029,-402.114295945439,-388.088585331995,-435.907459314679,-411.399649278163,-465.144115146551,-429.377263332911,-408.438701585533,-400.476188082954,-454.662270752754,-419.192174285908
-256.020574079911,-220.215735833076,-238.716102490896,-225.281078237249,-200.488814470462,-258.777407644683,-187.809676167407,-188.880340695262,-215.256679625432,-194.635328916001,-168.636288367851,-203.872552162737,-152.520576545203,-157.521250573268,-127.413913295796,-72.4756987183251,-162.314414912955,10.6350028993476,13.1316091510152,133.816009243092,97.9823578789508,-68.8687645695504,209.11659301984,233.172924859938,-0.798487856438161,121.310159537204,-1329.58243006719,-83.3967361705941,8.83597953021311,-446.495551546857,-86.4715104712465,147.227484984548,493.329528066246,-634.388427546429,138.721866826199,127.62044917445,167.16915122513,903.859149328622,-427.218812178595,-54.5067517324678,-38.0252355780136,849.633419152113,-47.1000920623918,327.88712352794,149.384757143306,-249.674074760737,-185.352466778791,-214.002822713383,-208.025560478788,-193.332712454355,-239.361960146532,-193.464000851693,-268.943228382183,-229.920437273117,-220.757444238582,-203.10033267105,-247.470781055659,-226.908119695904,-270.533402280852,-242.475303226908,-227.913579613818,-213.725877631107,-267.58114523483,-231.509099207851
-194.522584526989,-163.85052430474,-177.903366848143,-162.382675788671,-153.228179444518,-188.688739778278,-134.53163341481,-130.11073676001,-152.590889780498,-138.848709301249,-108.13452751244,-133.097164503683,-89.2673479758985,-102.806850102201,-45.4602925117104,-2.31700023403098,-87.230107544755,80.1510593192686,72.8570587856963,205.092765393709,161.792581929761,-7.54320972410441,194.629997539055,305.681592233131,-142.224107505498,285.604212576963,-1306.37008524554,-230.967775156918,437.194261259285,-403.105371397027,-78.1210212985146,475.370455547297,870.286622852675,-653.84986361895,347.57564394102,325.359938391807,389.126379247512,935.690739538941,-281.176888454977,136.216239944463,2.16937398307754,882.098234549196,-9.99897761604577,591.538662758323,178.630223946875,-202.542979915087,-148.935283190117,-166.592506920876,-169.767442641235,-161.667726346083,-194.525504759928,-158.323077003562,-212.386148452492,-186.525141194419,-173.787365011499,-162.120561134424,-198.858801690183,-180.088151181147,-207.647949901252,-193.832604538398,-187.700605886476,-172.057936259287,-209.652562273025,-183.625244760927
-207.631358801293,-191.249183793711,-188.167858869459,-176.97284645593,-189.912060737589,-188.117464059285,-157.815285423144,-157.627726101332,-158.163385001674,-157.917746362789,-142.074112724112,-124.092695880731,-101.460894277781,-136.238462168783,-29.8327384223423,-24.6480148437995,-43.3948380192271,57.4811134888263,11.442056630186,216.890827588211,108.926566614991,81.9564504559929,101.564974428023,148.865890964338,-173.614965870634,310.515700410673,-937.693128811685,-363.595119382459,488.376064280254,-344.225654266095,7.04661601267713,625.961532487387,892.983925017419,-696.334839361493,408.240908147734,239.07204059164,364.199161147365,683.264406281211,-193.029609693279,181.064452046343,-14.1075466621932,686.901183033775,-129.226401516823,625.588039962145,65.4035361997002,-235.690918269912,-214.119761478643,-216.756724361864,-230.749031583007,-229.531295549269,-234.001066988714,-219.740799002114,-237.842402149871,-225.211960395683,-217.415800692656,-218.26056275811,-230.577338730472,-231.194136285314,-228.323361727933,-224.90649538122,-226.507896182485,-224.652663857279,-229.803630750063,-221.952215420661
-172.600413512366,-171.342862643763,-150.542723184245,-153.140600335195,-176.013336880765,-134.441631925034,-132.827146386945,-144.950890985322,-114.257884357398,-132.154502522258,-149.81551421376,-64.023256330505,-70.8097626097131,-139.133330215579,22.776172206579,-31.9910635506187,64.4883608776611,46.5182928202271,-61.8697957202447,251.359582972557,29.0324002114697,304.09835777679,28.7244616068506,-78.0832385882349,34.1314910841556,224.374569057128,-292.058578011882,-314.971393001525,323.563826498253,-236.019842547563,144.609330410397,540.99568216462,660.035147531872,-671.716514969704,465.388742099716,-1.27280311381893,201.667848638843,313.013032805108,-82.0111659481063,100.698653929455,21.9895342963561,397.237313853207,-234.499015235106,505.80287050401,-72.5405176773019,-223.358346372658,-242.37501447854,-223.80867808328,-245.385051859396,-252.094335667784,-223.436895548792,-239.643854908013,-215.781251597816,-218.518621278649,-220.513999885979,-237.186652580457,-207.314659455187,-242.337920957072,-204.322838720494,-204.503358348318,-212.631673701783,-235.000244261639,-198.081509631037,-212.309601607217
-96.4704452958451,-105.748813424696,-74.9242328493534,-90.2406033807154,-111.965148570001,-41.1917094788926,-65.8701954750109,-83.6565139794601,-32.9629135830937,-66.6787663437382,-113.880521123738,24.8975736160918,-8.93274862271318,-100.97339493612,99.5617783212482,-5.55802133925974,185.491119977389,69.3330850223345,-93.3804332530846,283.956687638513,-20.3989883966476,553.748513458812,-11.2995362394263,-227.61350120675,243.053248873117,108.993735162255,282.786397485125,-146.591485417752,137.979759093356,-181.817758650104,233.763420843926,330.345123288942,346.689861840908,-547.575025527257,445.234035328804,-180.19692909434,134.841956888853,-70.8422818249745,43.5090653359299,-15.4740476036308,140.407648082046,127.856404208971,-202.940259440089,359.295864560497,-168.488603842119,-158.468943618236,-199.968206689828,-170.947182848829,-191.028725000407,-205.921428991907,-155.125549476903,-194.668131208824,-143.083486573009,-157.685366097119,-166.773079156632,-194.735581805328,-132.125591445663,-187.775640298471,-130.35580164432,-133.484125065135,-147.376774941983,-183.008543853503,-116.04135374825,-150.45294976036
-58.6270337989242,-72.2619637140143,-40.6688143042384,-57.1528231942558,-78.808800776561,0.0265335178120578,-36.9289265749957,-44.9855830124843,-0.0187790961052672,-39.3073448108403,-91.1848176401398,51.5175853285814,9.73954280373394,-77.8959330740043,117.786398232954,1.88204911089737,208.814909609622,69.2272461939583,-102.726204587117,234.408851990139,-48.3947864709445,631.481801592467,-50.8221341906337,-284.870054380323,246.128756150499,-21.6847833291215,510.548030212872,-12.0556514714246,-36.6347151247039,-137.432907102343,183.986650812194,147.548051044472,71.4394773943795,-371.234841585838,311.336844187618,-226.191978208735,170.471792948119,-405.17318624236,119.7785833724,-87.5112502451992,224.331064525546,-103.394223978788,-89.0098697201284,245.902285193447,-200.753825154533,-113.655973013336,-151.50149397437,-132.255302039844,-145.018664252294,-161.25546415631,-107.214499365701,-152.800211473944,-95.3005364356153,-116.127829919777,-127.578698010023,-151.820280807371,-91.3907220359227,-138.590804909769,-82.9699163953263,-91.6703052009133,-108.157100313968,-137.124386889933,-70.9361662756472,-112.639446636191
-46.2277551292766,-56.2783253859428,-30.041255021859,-38.8975012900962,-61.5997634306393,0.98205990754332,-31.7230736621212,-23.6878811231896,-1.61757776977936,-34.4075771780025,-69.1107752512862,34.2496681522297,6.86769488801404,-53.8139824621858,89.0232241632834,2.41098584822819,148.858840214868,45.0195566371678,-81.9407080070873,116.49176167778,-43.9887806193835,500.880610604933,-49.6021686236068,-268.017656540961,140.077141819398,-137.308484431088,454.997428479342,36.5709002269355,-173.367960336326,-7.41039084871495,-7.16594560561199,55.1425343258429,-72.2145847031645,-196.030820022919,220.234466086915,-195.079624066689,166.489812663317,-588.345999832584,150.972215252712,-83.6906376483294,176.039349942921,-299.748102577037,-2.67140292139688,162.872625947127,-138.470596307175,-85.4063960785031,-113.553087465171,-104.676202019924,-111.764598888204,-125.115733892294,-76.8764015625847,-119.02631606632,-67.2835559227758,-89.7250979335112,-100.55407348878,-110.527617297271,-73.2184700572914,-100.101796322732,-56.0057461634312,-69.8727585147294,-82.8348328425222,-100.031541586084,-55.895319174671,-86.7366166491529
11.7755825036343,9.09915597531554,26.2804332286377,25.0693492340911,6.63202459019301,41.8921584781694,18.2217747824345,38.1405165110622,40.3346298469623,19.6558365785053,4.87275757082436,60.8838670470931,50.1623405598204,19.3057673842109,94.4265185146773,49.0385033009391,104.982748836039,54.758743329818,-8.61728701492283,28.1725748881804,14.2327185702583,283.87752299505,47.4951410455559,-191.508988145897,77.2239298371039,-167.559657375892,373.655156853067,40.0492558247282,-220.270517069829,114.546185965257,-213.050845744983,26.0789935753407,-95.2386572710017,-40.2233949521988,292.903049230684,-142.789966861577,71.6051830439766,-618.30286701021,194.645316117032,6.80760298257115,44.2920874395436,-461.035844519276,39.0610571060968,82.3098795118977,-19.3525178806202,-12.6350502644398,-42.3387584579244,-30.3734943764601,-31.8326619416195,-46.7732346713613,-0.760270419134051,-42.9975720062836,3.64689993144688,-16.8433735182373,-25.2287127845242,-25.6084548665294,-2.13799802345867,-18.4481891583449,13.7919096839023,-0.984082138044693,-7.32791016753844,-20.1142425457925,5.73241710650807,-7.94446802129331
101.303250083945,101.247782481878,107.18806850668,109.579355922875,98.8541941087535,112.814401764215,93.9924577292706,123.059829475753,113.937717473646,102.244866120307,99.6267408600881,123.17215792746,117.807696510808,107.666056907582,132.573624694684,116.280864663422,101.33859089243,94.9368959210007,73.7654828169848,17.4562876916629,71.0597325794413,94.0164216542416,160.899034660638,-116.925306839338,56.8346535215054,-147.06539970981,392.699833620684,44.7411982342057,-207.360486772741,114.420543161514,-278.428892977638,-5.20728527118104,-139.952144017949,80.2758202146189,442.272762193188,-96.1476753331852,-66.9188634875483,-656.289304325368,250.358678992784,139.123225874429,-70.7299797943285,-596.301981126052,63.0129381362714,-23.7008876106345,36.3047728328343,91.890809125162,57.6734610999422,73.5963354875632,78.8401357732297,60.8887150351119,106.003322217305,62.5993522733828,106.213149344599,88.9463305155685,83.2643837666244,82.7173368103032,103.897975718587,89.0255955734772,112.251748097359,99.2059422267327,97.5955702544486,85.7694846714024,105.840764550788,99.6468376457378
157.139725674659,152.69106963471,148.750089158029,153.430493057906,147.982559509534,149.703820375611,134.456993536551,171.089428695848,152.470598751279,143.362872256206,149.146835796029,148.271639775731,147.30430190797,151.855967675283,144.548238541834,142.530023527875,101.437561345108,109.662605244724,110.877897069624,51.4071327943087,55.4796848116217,-18.1398997904881,160.523129296409,-93.2142705101938,35.2656541229836,-190.520033417377,439.160976308184,77.0629327258252,-177.567329981521,97.9260418839475,-188.051730295397,-37.3174256099583,-263.788168334701,138.627877951646,526.426357769957,-52.3010770937491,-169.65262956217,-762.253219409885,276.963045785992,222.597110422973,-103.154233924821,-668.231454543095,77.3856883796476,-134.411545763056,10.3507591894921,168.429118519083,139.181497255244,149.308758309431,155.268378515095,141.246628036582,178.578208048502,143.212201283959,178.93305832005,164.645355265727,161.446985164082,158.908077280641,171.288211618971,160.928200350791,177.937423888543,165.699666393992,168.221551289772,158.822807085063,173.274544281347,165.930753364629
184.138494866647,176.436909066315,164.474950399429,174.736011914537,172.612432510546,165.793490002607,154.834260988893,192.163483329506,163.067421149121,156.109589567973,170.139391237596,144.469409400653,153.275855614992,171.864643864143,140.378748478689,143.572140043936,111.909136697925,105.592567662631,126.329418406527,97.3116445587256,3.99239670544004,-44.5304282027135,70.6419701631858,-71.1008544281068,36.5532636863779,-289.210095295902,449.038825851408,141.427217829433,-91.6242901216493,228.818851133809,-51.927747497445,5.75533882528558,-340.328260702158,145.199789937982,522.36479708912,28.9296042261731,-164.041887176899,-762.957766707065,290.413621064771,251.954651418873,-19.1102601393755,-592.231431919325,119.182595505388,-188.774431761566,31.3992517461871,223.043877283148,202.326566388159,202.787841051104,206.476142003674,200.94308793655,220.899143577179,200.522166646884,221.518327665498,210.790198780397,211.589767063545,211.712932516349,205.699712992211,205.765015910607,212.914769423642,203.623512549859,211.014772505909,204.602918485494,205.054459163254,200.205340477176
220.649120370567,218.868391739193,200.062972127027,215.210664823795,217.362755095507,207.218784211113,196.701279911325,227.915259757136,190.543710815057,191.622808572874,209.28278148835,168.242370685246,180.692020282933,209.44205221101,163.358778086445,168.504275150653,149.908995666238,128.425986858569,166.585860095236,146.8721607427,3.77211535293923,-19.3023334795285,13.0842333588255,25.3813299717684,92.9392859593355,-302.488803304569,476.941134106528,216.480776274892,68.4640573010564,463.026976477447,66.7815462442889,130.979371268308,-282.576799077426,166.181630947218,477.430890873002,153.468694039058,-68.119044452087,-553.904784711409,334.445242398661,292.119312013924,134.085503333973,-359.146367392791,223.67963991589,-180.558181497643,149.273240509565,288.784803563016,274.379310434201,265.568800925905,275.003266603754,273.053496713676,271.031657410968,263.31290936785,267.094456657127,262.736896304252,267.778528253823,272.20986201864,251.953600534484,262.53901920429,252.564252966442,249.882539689423,260.000285302895,259.378414590732,243.668410541482,248.246300336378
242.844783780316,249.592395101884,230.948603693511,241.448732134851,245.819737920708,245.021184022088,228.197262742254,253.921095114191,215.080458126244,222.476479255186,236.309371170911,197.266080672081,202.9229984113,234.301270189343,184.706075812313,192.626300564642,173.435596106708,155.988833238502,208.214687068659,172.044679700255,49.5582875536088,3.07494464830775,1.3126979147455,174.472895749796,170.288560141236,-165.158232516546,558.296232390864,264.519370723521,207.542195004372,610.82022278915,170.684239498416,245.140697126327,-187.045085281112,235.387087214072,403.103299161737,241.782023340086,19.7231218689305,-303.040634790662,373.122572883977,313.170556878662,224.862615825989,-115.942815666514,323.431757321729,-173.528159664289,241.993007477902,326.493024858801,321.885351103635,302.441005973287,319.206173629681,316.505702109807,300.069726646145,298.496804663393,289.497940244124,292.282515405858,298.533975732958,303.545980519895,283.306813644877,299.238144408936,276.108290167494,276.476231337843,285.568764504173,295.271100174922,269.273128778428,282.267042496062
210.35217736057,216.869478043737,208.118876592989,206.992215129647,208.815278093699,226.547299261392,200.962849621543,224.356740027756,191.523951344493,193.732798354553,199.417663925356,171.862570744787,170.134779285635,199.955016843991,148.815759630406,159.709525377768,143.33443708975,129.824572776819,195.021790221349,142.043257015945,60.2335944245876,9.17670636908653,-55.2229858381573,275.218690619016,199.413857492022,24.0525556017086,606.791836564277,242.356503955271,224.304361172808,567.728497601304,210.63175299313,273.131076012366,-160.130251303969,282.285158886245,284.119331742055,224.160862108706,51.7083652237188,-189.769475459353,322.054963555748,227.338834089228,182.314732728202,-36.7638749196293,304.571548254371,-194.761698080189,215.98942491514,278.266748978696,280.73456280586,258.120763435079,268.100398693853,269.69854958961,255.874349533095,251.214269730995,245.420631559588,247.806326848455,252.29580623621,253.984621143427,250.904502878235,262.387714465235,245.328441203699,240.757418679969,244.208622805208,260.548006573505,238.497905041038,248.474742464848
174.028243141002,170.681773975842,173.26227392569,165.651273009593,162.024199027961,191.773207709529,162.745656136879,182.945653161221,156.893013719465,151.034098431816,148.066766092666,128.253490586371,123.034129092918,151.127336011671,95.7802579400085,109.247208431698,113.199171952728,76.4096763976887,151.840943818216,96.9855557047176,24.3522428368387,61.8911951446134,-173.415757189334,273.766661106335,174.098313259852,140.46166412097,553.533077193309,150.03989359495,143.572457685191,401.429638505093,144.450137660474,226.077804158979,-140.712006259469,254.546095631105,141.581413308617,153.231775019619,82.4713746624877,-130.988788688725,198.998959551403,84.5085491730635,92.1761457142067,-81.3569150458309,184.622038480788,-188.414533409761,166.861279832664,193.260888801267,188.11828417233,180.872452640745,176.040612584114,183.559024628115,186.751588368874,170.309685790816,186.271788631299,179.228703900012,179.310349037944,177.147337047063,199.990878981399,197.689497317238,204.31000478755,190.924539127917,186.133919976879,197.081299737503,198.324041799043,192.191025926004
216.742418265984,199.070259703006,208.120732538521,202.98544582303,192.595682155284,220.541294389525,193.826295994447,211.248836727972,183.246493082052,180.134234091182,172.226886195068,151.237286782768,143.449456168243,171.625585400232,114.213859269525,132.448864373785,156.121614943634,80.3598516393406,164.193379946971,108.403603592153,17.3231421601172,208.566714310007,-256.328654905636,208.223880611128,155.992716056464,154.6648500659,465.303013977404,57.011684895343,65.5736792146716,252.140126758236,51.7579107450414,163.61707565474,-32.6075971334906,225.320065681549,20.0373343786033,133.207256212928,166.534748726304,40.0791682516445,107.756179487495,28.8714450834507,66.9938977206839,-42.8165033749813,100.452282606378,-117.96745060274,229.935249399106,173.61337756723,157.425460202433,173.309981449072,163.645985421157,167.864147327351,190.103973151777,163.077538850972,202.915320085152,187.386735339159,180.165858171953,176.50159639431,211.335697906451,196.169605297445,225.063856277853,204.917272049578,197.36283181389,196.677252614266,224.526863944108,204.16431446407
302.367638901208,274.905309650513,286.936441697333,282.60972853365,269.071721803999,289.08976468097,264.715305688014,283.159157584045,246.669107744329,252.822151882357,245.685557953671,221.944884078242,212.42084608752,243.514699704953,183.704929563608,209.385988630167,229.344618526033,137.567547323464,232.842656937672,152.22185108499,66.1687803320954,354.746467690473,-235.621438933714,143.765938808714,162.522983412545,105.063750441291,413.760692499524,14.6716748486553,32.9086392331719,173.371639434919,18.6255856554809,119.114954945366,97.2756568244032,253.642262373456,-74.4858818416265,162.958559169172,257.33876120711,270.816216347537,71.7773708432511,73.847740840465,83.5193755670094,117.040973785762,94.4564949994784,-41.7860052343272,356.79181638133,214.217335948219,199.732489234816,227.010300864071,218.89171933232,217.352447904982,249.580071460052,222.16657684891,272.511325331889,255.961790212053,242.196690952092,239.544340227466,266.146408207566,246.147930729361,281.644542506777,261.294324327284,257.764230033759,250.25495167308,285.064431582508,264.858284564586
353.453275794577,329.437270682611,338.587485646487,328.10747990238,320.480087146216,333.043126922954,312.201811535289,330.783205024093,294.31427196684,302.656781799957,298.06395516019,274.414723966913,266.69274894907,300.403687855726,231.108084134941,265.791411930718,256.352095904021,189.263886544439,299.349966226804,164.204959249582,145.447887547896,376.235703445233,-116.479843221421,151.997974725492,172.337976725947,76.1810907550274,389.197326336261,24.3883024786874,54.7451356840067,127.387919709931,39.698997201006,103.744195060407,159.008628325197,304.638963169807,-133.882664798988,185.90434309163,299.709911030131,428.144238150739,61.3977958652366,135.066842721831,80.7553614271653,259.959185621815,106.10602842838,-0.984884553903406,435.878656718944,261.807252257217,253.915749625815,279.575741343035,266.276347239032,267.742001892186,301.301178065106,278.718441486958,327.125576302144,312.64566512463,298.199550908845,297.620626883839,314.739797979663,295.919905602224,325.563757293457,312.717458369369,310.613768541756,301.274155586419,325.067666357619,312.013141439844
406.031487952626,395.073172244147,392.466782967738,380.338529809435,381.558829222977,385.034500436875,373.223736863938,386.994412125255,361.364361399631,364.928437244845,361.777723845247,334.169469376353,332.041553564568,364.012368755314,284.685537503294,329.565199326611,279.192264586426,260.558778359065,382.244325338901,183.5261170538,275.182011695829,317.461657723825,87.0578763690614,293.617050113747,214.714870840327,163.731502709554,395.337097698162,96.0614096223123,173.18088069032,114.425269416066,110.270286949159,152.808950572985,219.389860265696,365.665429736702,-95.7853330802971,228.396782913608,337.570847320425,564.016273262403,105.917465066385,221.167913611211,110.481124223371,370.49631843035,154.233871086677,74.4636489040228,511.285790850969,349.180907315291,340.852945558653,361.589771917537,343.557796724835,348.081166303171,380.534521149579,357.8457122501,398.890627283305,383.865879050184,376.864341611749,377.223591968326,388.986322759462,377.498090025503,396.652241832012,392.830770644022,387.628877787238,379.073681521702,389.061716224428,383.475579099796
503.421174595949,501.055402311225,488.743729531841,483.093809554432,486.637338581778,480.191739313392,477.469283365676,486.353014232947,467.150643587806,469.734169091515,468.270488135858,434.036835710501,438.053211415336,463.951704287241,387.646095594759,438.353104020011,356.034539611677,383.674515156643,503.104897227257,268.112911070601,452.726143405763,300.616319499295,316.734764387151,511.759796908095,303.637550961052,337.186710633478,444.051804202449,210.422709505661,361.565156548813,171.314325345253,230.207740899511,263.941125932419,325.341302336491,450.218227624559,45.9926786372692,305.183042944057,389.609503204229,752.198227143478,205.770228802133,360.472522277284,210.733676614766,522.214525446341,283.255635916078,230.080527807613,645.062708959166,490.323736244458,480.562690607342,494.840400775034,484.910676758096,481.679132467536,510.441007422446,485.889364195512,515.833247671804,499.446286138999,506.213797722158,503.419951506583,503.714075828431,506.454988484599,512.218879073564,510.600000906188,506.889841981206,503.684701338919,501.818557772429,507.938392079647
576.630391528771,568.54470585949,560.841801503955,558.639690515192,559.083727608225,549.151081356881,547.974374800371,556.585878039657,536.495822768417,541.074722614957,540.471510647708,509.740401733192,517.424557791766,533.213784574017,476.188498877023,522.579739462077,428.323435550535,484.636241186813,581.854656650234,365.305577860656,582.149527815096,335.416442355945,462.179029963893,649.736325528027,372.997055853247,448.150640508329,475.710086284607,289.167449132497,488.931835535087,263.258423582314,333.732765138763,353.283547958209,380.005858090038,518.264564656138,184.235368264522,309.309967289518,366.705664067777,881.117310682903,280.129459064404,463.01754197406,287.822518961592,653.843255321045,407.223330888393,372.819398174773,743.538975788177,589.033343401413,583.237452202955,586.842284936475,592.0905368168,579.385580878404,598.244464076547,578.943873589936,595.434258538225,581.349439595536,599.507372992042,593.014824254087,578.576282477712,596.463151403446,587.853258262278,582.463882011689,587.52615959618,588.663300716045,579.128557610554,594.667976689575
564.981600621295,544.71176812061,546.516798200477,544.162807538474,541.43261827337,536.272110966483,531.896652650612,539.996075294949,526.026927910849,525.41661434296,522.498710467802,506.895336505707,514.842545792465,518.055069981496,487.221545803978,527.313549752739,431.796434876641,494.32771296173,559.83613341458,401.651735905883,603.747234378311,357.201281127441,488.963203920811,646.735596808238,373.380580630161,439.124955735728,425.46313010609,281.579090804779,498.072892987032,308.842855392544,366.582055636524,370.424180031236,361.406212217972,529.09277115706,253.421192455706,180.107559001548,230.155802775665,845.15483282461,296.391218621004,456.467097310429,275.523207369976,668.170709782475,424.988085319406,408.825766559227,713.963806035931,582.536685559757,580.729337487657,574.972182322544,588.57953500795,577.419015995067,583.304371707317,570.002633874656,579.576443918445,569.134285223969,585.872993880208,583.538140392895,561.96578383498,588.659090184682,570.256991008729,562.916804543192,575.317322172014,574.422931453525,565.65586933486,575.544155357587
519.973429062508,495.563945424785,497.210527731353,498.022714565374,493.684889673669,496.84701929943,489.234245465866,491.451419939803,490.744007841017,481.062307211039,473.505317909966,472.424581641095,478.105796423274,471.322109223894,462.669151510744,504.985035401877,402.564222617219,457.226198953384,499.948238023125,388.341664906952,573.924829226469,346.19736519764,466.165905393749,593.825710030734,328.362617290969,395.656110598144,324.194607453887,200.975957443606,463.759558524893,291.094910566726,365.926772540478,359.151102842391,412.69063542488,499.266268712439,303.135907100911,46.0101051530354,74.4254499919859,729.724741580811,304.336661416346,416.548875092246,238.875121380255,617.116797801308,379.241267529074,380.676288515124,618.932811298595,534.68414397269,531.02360039419,527.910255243764,537.902971068622,534.552562869526,534.18959606671,517.310881680425,533.585573292839,520.762761499987,526.9268448002,532.763870596579,516.163233984612,541.053319742415,522.469068329901,515.590022586558,528.740978407472,523.329845204175,521.047143682098,516.048959195563
502.615719197128,477.750103606957,476.962038602337,478.577693472883,474.865890983924,487.09501498544,475.293718517659,471.059023090298,473.976101830614,463.27658524869,449.04054640503,456.593270467196,459.456414747168,444.541503901247,452.242688286894,499.821124787257,384.509912113997,431.114872992602,463.748483752489,358.466164912645,543.397053543532,321.766007010671,434.796084488897,569.665709877927,264.838299832285,379.123164629785,243.559435250703,86.7948277574743,415.291191914228,232.872566443893,372.440435678964,339.987848652287,587.89003175001,443.16505315543,358.402537684541,40.2184604064259,-6.85650902508613,639.756881025717,319.546168078242,420.575003778452,230.264187805195,589.655185009265,343.642765677683,363.072973156796,544.135995922829,510.747680157164,497.020425615938,508.644006297526,509.667459017246,507.83107187079,514.4931290347,489.888783408019,521.10876691761,497.582125067255,498.655632087933,504.654408001329,502.453720479521,514.217682712435,508.422412669631,496.768938058975,507.050944770723,496.356243744576,503.49201113226,489.411557837209
477.303622021632,445.55176045407,452.107128962068,445.83466121454,443.758161377806,465.678030761456,449.263408692275,441.229990910474,441.33855748535,433.929268085806,409.560851534322,427.288651966774,426.711128233185,400.626082751528,421.456804201821,467.874916431917,349.998633728467,387.35527587712,412.529793474492,297.822003766581,477.658280651435,284.601857224627,363.40432498302,540.762584827387,175.783806463181,351.529532044288,169.190729033173,-0.339841915454035,277.389191388625,115.580884011786,347.59338044241,245.991769262043,732.739034426382,345.311360785404,348.258345250148,112.798252892408,8.85410711278292,530.245924157571,294.12950041527,418.410144714349,204.353259893618,556.649510381411,289.42423627038,339.14157075327,458.976299433953,473.321887869283,445.105845849895,469.365436293582,464.959306781236,458.431653763792,480.365467346662,451.868700316434,497.14850319206,461.201317940274,463.735076067441,463.155149162876,476.238744366527,470.229419577814,488.423299454386,465.733571361295,468.94632782335,455.181094030378,475.260671942343,457.878045617226
401.649546132879,364.363823332101,381.245767468488,366.366265907234,362.160654374962,394.698982220819,374.603779488857,361.114481737767,371.864813424365,359.982720341246,324.720795881337,357.69129069631,350.833320065647,314.274575209621,340.325003213434,380.254462129612,277.379922145823,302.231216969961,313.869513878147,202.173347251086,360.453272393571,223.927860773247,252.268565266677,453.778980430242,79.8682366171811,272.209057261679,23.7877097542752,7.88634341386141,41.9524711271113,-41.7309753138553,254.468022877635,31.6217121986802,734.195958761023,231.448847513975,220.052808845671,163.319447131905,168.553214069925,357.437422524944,220.182653782082,360.409071490643,141.819331225224,477.267575200131,194.373277379476,288.888599492382,328.66951928229,379.791376544658,347.487366223345,370.005000308388,366.299621913123,359.40979002154,391.033689349536,360.933627221434,414.714253969661,372.324785613019,372.780588411495,368.736372239136,390.558717147048,373.294578952365,413.164711089928,382.369006108547,375.325452163852,365.475194393239,397.615484608052,374.606973085434
343.130135612419,309.383578669217,326.955415967705,311.082557429461,301.544870562689,342.124821083996,318.072760373114,298.549952324738,325.119730229966,305.229995000504,268.021235806145,308.983331379914,294.605199257855,257.563482570159,269.75688640339,298.267286928631,214.322303918322,240.898711180285,235.155017098157,129.895116251138,268.323707529234,161.136574404703,175.139405533317,337.120044673077,58.2610459934482,163.678380172182,-149.19986066518,130.514494808685,-155.435310112026,-83.7465526897261,153.607178046593,-222.608338855224,688.148543423775,194.798765502797,59.6445016511794,193.689501058952,513.995590551426,234.346530530529,181.463186469707,314.853055659416,128.70530532484,420.503379028266,153.766467564595,287.449660002066,240.98832528776,299.660802380616,283.915868036501,292.516554951126,294.751257127369,294.813686257734,319.594067228865,290.754915882347,344.650448827507,302.93866323521,300.83549249644,298.544431319701,320.004907420287,302.358970807968,345.817988648764,316.505256819952,306.336155224329,301.467759630806,337.605990451846,307.891259091237
380.383707056811,353.903042369631,360.56154668817,349.6295511529,339.443065161931,377.415088933188,350.19166544709,333.091712355099,353.833222602173,334.11947193575,312.160771217171,338.640772536447,321.1897949026,297.926582785526,272.32929049813,268.130649480016,199.002345404202,251.927541965059,241.633417745248,126.006768470089,263.837853130655,139.877892135639,178.05571639709,267.268241043167,162.964644960108,83.8291162172094,-140.699511994835,324.746111816633,-178.339687369273,130.78917430085,145.154511595934,-326.765698676523,692.978089498927,299.213037932956,52.8705201069609,216.847043980038,886.879876171567,257.60605798445,262.660569887387,353.278419135423,239.014730292715,440.16332345609,259.404258996766,394.335959029238,281.763306640867,332.626006119468,342.063162708723,333.626047209098,343.74928518476,350.5625066394,353.150356195318,333.938503884227,376.342015162298,341.264080209153,345.346589764708,347.838325975989,357.480680087152,347.1164146102,374.019484198933,354.731609873156,351.352463279938,347.355847401747,373.939189277121,347.054224584293
434.373078295932,414.495802828709,408.161843602928,403.242296089077,399.378787874663,424.571414329687,396.621789821369,391.433485196996,392.047701481985,377.654036870864,378.344571938089,378.173126184488,361.577443650227,359.829726157675,291.729465518856,224.774805693648,171.02702747554,265.212236499683,266.839033147357,129.670638723888,284.968259235141,148.860850613002,196.449164048723,258.722373667935,295.864281458932,63.3603058529886,131.423603651153,512.522942934282,-35.8781454397817,474.194865719666,210.066999320693,-146.874249991765,644.821712618984,450.462697296895,235.385548422827,166.604886762172,997.025818444929,285.119951778141,408.538714936466,389.76013141071,395.608520664925,429.77912666681,419.700184473129,502.213089312691,348.306268553448,423.932224648474,447.623760454646,422.784703556174,437.335759418334,445.27749996329,423.920842725254,422.088897579521,438.921040499459,416.164820026956,431.271019823121,437.362699864743,427.012597527542,429.034082580276,430.155651238262,424.095226027844,428.138937175263,426.861308417718,431.721309597666,422.095657180226
337.394483420854,322.864529896857,313.17550737921,311.066692673109,313.018348396479,330.423826527501,302.933682281527,303.731425169765,303.214170718161,291.19993360502,298.714289481112,290.692535719323,275.704199556717,283.59414808577,209.380262354088,92.2894481077003,28.1593204477187,187.798659031061,176.890760585058,34.5028261118808,224.519952249077,86.1954500153183,123.850536182727,233.864456996117,266.574851243317,59.438112775007,382.35515584641,569.189536617802,131.036341118185,606.944015550365,176.686560670859,184.664655178445,395.579401295272,438.642698493371,344.981578116784,-2.52077010756989,772.7026416309,80.4555161072201,426.708381474833,244.010492493489,425.61956251898,233.03589663413,414.454523433555,418.595990486015,224.996640251111,379.014494595335,400.533168402437,364.869890854085,377.344228586572,383.446739963458,351.763177486582,364.523183262932,350.120453361791,341.861795148502,362.366903324693,362.453052283883,340.020259710299,352.826546475947,339.818777512653,340.001106890013,345.403579649733,350.819622021012,338.777674797478,344.861920850187
84.3748585942227,73.8836848992074,69.242564742871,65.9679957695884,66.7680593153157,91.0850573894097,65.0017794204386,56.1943764404925,76.1664305278281,66.9520400227668,61.1687838585718,69.3078999916165,61.8964011641169,53.3090543079158,24.8704679815486,-78.1163128039927,-205.254902386887,45.5219939901523,-30.6508683336469,-153.924499976882,89.481678156746,-117.640662396408,-37.2726166317324,144.366708556481,7.31748034284411,30.6162766777664,282.1058995177,372.914448601627,209.609731773672,380.019518996538,-28.6206074981453,381.480419042866,14.6552450256095,209.320354736693,162.122539161163,-185.366604975908,428.584402381593,-343.706325608105,230.74422229257,-78.5102729841858,280.455880952349,-131.147213050681,189.761520756989,122.62395826308,-130.486491439202,140.022715184581,146.154064757794,117.665151030344,121.981211985125,127.209652217228,102.486607069367,115.665040479626,87.2691517873955,89.548557619898,104.636985145048,91.8012298235895,77.5413490489792,86.8304499480182,88.9340807876068,81.2072790909567,80.7558413612474,89.9302993869192,83.5088714019495,84.084261396204
-130.994811995033,-139.519094586448,-136.929234392036,-142.206542530165,-151.24349955998,-111.899498249304,-138.047975131842,-157.778620620764,-120.726473239512,-127.337328707867,-147.246866995855,-119.785924969902,-121.042011057305,-155.36752283106,-126.578360711663,-180.052478989348,-348.200742583002,-73.0876899101306,-207.439102090086,-318.562830467363,-27.2690195726224,-363.488050248871,-174.875324408831,40.0703407888898,-337.941813995374,9.12184516424025,-50.3834778972874,-39.4787729091949,194.439810195993,29.951851443713,-205.886194573785,332.698070222919,-293.56547020676,-24.2663265102386,-150.498266978242,-233.377603739807,135.567953485155,-729.643553556785,-9.67633717912863,-317.789399584755,84.3708712292622,-486.277000546924,-49.1540610840589,-203.600293732039,-515.216074835753,-105.041589333289,-123.625786443706,-125.705045357023,-131.499682634767,-128.009877564682,-134.274814389026,-134.79941651816,-144.161623326185,-142.749265567275,-141.494894795018,-160.638366771146,-150.318294397766,-160.949571850733,-125.791844688215,-147.759523370759,-157.323096325528,-152.51723854826,-134.550534046277,-155.780693957616
-188.90392206321,-203.732012106368,-185.316148452772,-195.57905482051,-223.088679640432,-162.461348548281,-198.316470850744,-219.254241468512,-172.430862561956,-190.229482794775,-218.819561716601,-165.552623332516,-188.140401537107,-231.823830096905,-177.868356394039,-219.772566173907,-305.398328825374,-168.574522173814,-284.652867277,-410.22481390496,-117.845478159017,-491.401679779086,-243.407258987703,-60.1557279945495,-560.725042808139,-24.3114005539721,-193.469553737939,-441.490073693053,74.884764309862,-155.998472802774,-182.885668241415,96.1828712525193,-487.487972170281,-79.4305618886411,-332.023674970812,-201.126324217431,-159.311111506772,-940.943339247096,-122.7953530822,-325.942011274815,-100.570603991415,-750.404213227371,-168.159198850208,-458.571668669374,-765.488929817063,-212.475986891751,-258.307537438928,-230.171380149065,-244.591336121073,-246.529888216172,-223.968884313406,-245.499280816186,-209.501340898675,-224.814232040476,-238.898971808338,-260.000725304731,-212.943329790963,-250.488918347585,-185.367221144835,-217.625065745677,-233.939714315532,-241.61167535238,-191.416072756635,-236.556161224059
-184.86362480202,-214.328750943051,-172.898191666232,-195.825534303548,-239.963092741868,-149.309322050743,-204.229965984366,-228.10051683121,-169.442895252472,-209.316575568383,-253.220032190519,-157.582471091394,-223.954392427915,-264.328425889759,-213.64854473641,-291.799227248629,-213.916851086952,-300.53638338017,-352.341614065497,-490.293284239568,-251.176449930976,-484.047416615703,-305.068504433644,-216.153417023866,-570.30221166839,-191.995048036125,-13.6714637743804,-612.653868914397,-177.298773207078,-179.510914662306,-109.784256669373,-265.643576905961,-679.26301638019,-25.5239194318993,-390.043093316177,-265.419674135953,-512.370409687416,-1065.20594024441,-164.953665202754,-274.460194006574,-336.602980162633,-982.907004457037,-274.962675122467,-707.801422962766,-915.076692583596,-263.347400462122,-330.78068692751,-279.42766485642,-303.023581681811,-312.186822247326,-249.976096555599,-297.442579890443,-209.918324537829,-248.102144538192,-275.481452365217,-304.607044102758,-214.195827084961,-279.069347561133,-186.020796519627,-226.993628320157,-249.075078448379,-272.76332528252,-186.264782853553,-255.994021721739
-237.802328787318,-274.338273474945,-225.781587204183,-262.47487237567,-303.141871632586,-194.510806059161,-262.327967479544,-293.385885866721,-234.663816891515,-282.397308896951,-340.597240295883,-223.479412451925,-313.184289881629,-346.545954852782,-307.100768444356,-424.20651731994,-221.939711064283,-458.201999710652,-464.234193458429,-583.743759763589,-422.491512819223,-440.067522729662,-387.784169498644,-426.96077620909,-435.888408974301,-503.077509161106,208.294395879206,-531.259281761273,-479.971772702159,-187.064233059572,-217.614828103572,-619.432036350932,-856.403544310984,23.6609892653379,-448.874266309389,-421.693240769287,-793.500821446261,-1133.50701706985,-229.743282389917,-329.308416799095,-585.897173699003,-1170.55605726164,-425.804336435502,-932.985216826287,-996.588343553466,-341.616506824516,-418.780264299641,-354.028505909517,-387.059259916949,-401.523829218149,-308.107948669732,-377.22371693967,-259.284967512895,-309.473801516874,-345.061394438285,-379.783711908335,-264.223996445352,-346.861306876747,-233.655753169977,-281.620505963292,-309.568512382538,-342.471534622143,-233.083077789343,-321.556838956477
-321.290564781227,-348.297074113983,-317.94042671429,-356.938492895059,-375.632444488628,-287.399645440132,-350.338328580147,-374.37240190901,-347.045741255477,-379.904061287982,-424.455032939531,-347.903202204866,-425.628856234897,-434.298663363693,-413.608281651759,-546.053959603286,-292.446186756583,-571.434787946662,-557.607524743299,-637.282788669232,-555.517120167492,-411.283132835608,-451.01263613279,-616.625689984581,-289.210392492757,-762.505778578361,236.188172485787,-358.023324210391,-689.270949188009,-195.813774304551,-481.679394755937,-777.339572930404,-862.780314326181,97.3920906739684,-506.884756209423,-521.829159963315,-846.823289288671,-1046.03718377728,-257.51084919041,-402.242575022144,-705.96318102126,-1194.0260133298,-488.75608088502,-982.808005957391,-932.142462734085,-378.917729963364,-451.701258000206,-390.55939761045,-423.896100044499,-437.27322607903,-352.446873482352,-418.343346472506,-315.057154027015,-361.016601124082,-391.745728174443,-417.465419864392,-321.240528656529,-393.456867454256,-296.489347949118,-337.182686629436,-364.396585446367,-390.385471065473,-299.889657699781,-381.675101831244
-334.721925509947,-346.160319129199,-343.642274550991,-369.038419879825,-370.760352718951,-330.747329589118,-374.415714508268,-375.651570316153,-399.31505964131,-411.593195468219,-414.830883907296,-415.961152488731,-473.981565331899,-437.880976679166,-452.30561269354,-573.391810316494,-317.669502281376,-597.457432112853,-572.88863225798,-616.697666058277,-606.973968812258,-371.55316360768,-470.424347125605,-739.962221418487,-190.057102955365,-808.528527911256,164.544947816474,-251.516014217574,-736.119658314725,-129.850866163686,-679.382111288743,-699.505929862765,-641.901289289147,227.887640367623,-484.566855256994,-522.599448698323,-697.106963556869,-781.699592606557,-171.452726358949,-349.395514395184,-666.350703250293,-1004.26721042311,-394.948033926465,-809.974511946131,-687.92498688393,-301.455619419029,-353.062178226342,-319.625077110348,-336.213759368923,-341.501202357989,-304.77014260025,-339.241190306716,-289.692325284987,-318.89668826281,-333.037320500495,-341.026324224488,-302.117364828935,-332.987114080449,-292.829949300661,-308.994296488225,-325.768724524034,-331.888104551858,-297.141765166203,-343.317495497977
-239.421242808861,-238.725087813244,-261.503081005457,-265.924041648463,-263.035844338256,-267.437702007763,-287.466464524172,-273.9350673174,-334.237111056621,-332.991689751141,-299.722541875909,-362.600399056768,-410.067319175346,-337.36474815136,-398.797693655361,-485.840236864003,-267.799048207528,-545.085231774504,-513.344005003153,-531.880783864011,-586.668783914703,-296.904407978235,-457.69498291195,-776.289033869441,-109.124252482651,-685.482063856558,170.592793002065,-224.73438166482,-625.213161017446,4.75368712430466,-656.940962791246,-500.571014071871,-304.564219278647,331.075853803125,-345.717361453404,-479.294343767506,-487.938579116811,-436.164925756406,-15.235345731806,-186.74328227744,-545.711615706106,-667.924208298297,-243.97794452005,-532.909522796667,-356.413952328546,-145.701487569902,-157.897938632041,-165.519767610168,-158.688894451559,-155.069491879538,-170.441802569668,-168.016566425902,-175.439690210898,-180.25064250429,-179.056475213449,-172.170881264562,-193.255746733455,-178.74928494577,-199.19160837937,-190.339954461331,-193.435789173742,-181.255013495901,-197.365549475828,-202.415565845641
-88.9327706257791,-79.9664250498463,-118.801372334578,-112.37474604621,-99.0106179352011,-132.6993399315,-135.530735986467,-123.646580109559,-193.725588087163,-184.519069917433,-138.01442069612,-230.682838567433,-270.24120442026,-187.836089652565,-287.045524158386,-339.579197026064,-175.553882099586,-449.793550557305,-412.201969498209,-392.245903268894,-525.446932561679,-203.805498376145,-426.628196883151,-707.193091824171,-38.9826091607281,-519.227148848029,214.043059957125,-204.445055949128,-403.31554036055,105.777291010476,-468.919049892619,-277.592765440914,19.3971388576117,316.071778655754,-143.927480695833,-397.020034071185,-300.271010319528,-79.8736970912366,112.854871672712,-37.8236788537666,-381.705003465102,-269.831922092882,-128.681237230043,-268.710590894712,-50.8087163707066,6.30546156234185,39.6768726940572,2.76248410032881,20.0351896896221,33.9249835758974,-17.2573589422922,11.217649762033,-32.3952200968669,-14.4140730625056,-1.79205065259675,14.2993439990951,-43.6375963096577,-5.42382391252386,-59.9731929430517,-38.397243906293,-30.1468434094303,-10.3381276906654,-49.0741689712333,-28.5533241144057
55.410414543208,68.64014391787,27.5598058755134,29.046799730323,65.9435012862141,10.8692776674342,13.6878078007363,26.3367371045859,-47.6950925074827,-31.1767738147015,17.5769029541403,-86.5154182284647,-117.758228449747,-39.0934696468054,-153.221099833372,-189.969458974605,-65.4982972400602,-327.052892513221,-287.304677492832,-207.041153789381,-433.736170044969,-108.94005814997,-358.65053679247,-544.355836607673,-12.1173185037045,-349.779551434104,139.090610106774,-156.682823042771,-139.206568882267,108.302961995718,-262.108046648934,-44.7774899806553,285.064137714093,202.302472614397,20.0349841573467,-225.969340680263,-98.5249954674228,297.395492080968,172.843909076786,35.4036442443525,-156.466481228359,147.489074420314,-27.7103395836437,-23.821799195461,213.957331025946,124.901074167241,195.573605005864,148.61676504759,164.899549164358,196.180257944923,114.791648941613,165.607027260195,95.2768596951709,127.360089754387,154.595655711104,178.332022101849,100.631895126854,147.366854473459,75.9505649986103,103.336401955015,123.185035899883,147.444520440358,92.8709264343812,129.064714966658
198.028538075713,215.129033237653,171.861428253525,169.803493173821,227.783499733729,153.185556373908,157.203863784587,183.262862251897,93.9012194205723,121.892045299293,175.105123876438,63.6501380036693,41.8629659607269,116.879981635856,-2.04773424952177,-20.906921148303,68.624911988981,-154.343550922543,-117.431807757011,3.94573693403839,-271.418111914293,1.08078617414435,-183.621937113543,-303.008443735125,20.3626350420815,-132.927039091799,-44.4909531950249,-63.5259313242175,111.502051174271,78.1295112550848,-92.0605144464779,200.723283013707,487.896514593432,96.0042453739925,110.188732411942,26.1086980657405,158.080444822354,719.525374171056,214.257321134434,88.7463060218588,116.513537390656,558.128738306701,114.920889870163,246.518796676146,495.845725933058,253.732420113922,351.907282855568,297.081384305399,318.81812013863,366.408567016411,254.793805945916,332.277866492242,229.136696482253,268.656267635061,312.163353512379,345.686504959143,246.11233668205,310.296430925253,213.261166226639,249.309089991796,282.18549030626,317.846709663562,230.001298178327,290.462302395228
349.220682108559,375.975157701322,318.070323872154,327.669024700937,390.834170050961,298.363341285462,310.8476973129,348.372367485844,245.66329962157,288.230881744849,344.456185550801,224.220187392495,222.864797380744,282.862003743499,160.733112196243,189.328247289907,232.3141153062,72.9277458125868,103.763595043236,226.771812290808,-17.8069009700358,125.648632771114,140.36082053398,1.22285863521753,174.745113102434,156.039867231444,-154.797312363655,124.84313454304,298.066890878959,129.836801005025,49.3873790119286,404.264921792363,562.461037836238,89.3594957001411,165.661485234073,238.795591206691,390.67343673093,1123.51623229412,294.042185173694,155.022352350013,344.231200270067,891.633814798175,276.228444282494,510.172141675404,769.740272630124,416.289709933696,530.53786734508,461.787879348672,496.410746228561,544.542599389762,416.303044378669,514.582489217131,381.618849523956,426.774954832746,480.895554430352,523.578802695137,397.888400311552,492.821255826957,359.235437641883,408.451096171999,448.272709720256,495.917311959651,371.909640934741,463.169967325612
465.330285135077,503.097247357882,435.613610211545,460.196492341577,515.611619356337,411.489986259514,441.811282549417,477.173249568062,382.645615178466,434.695660451498,482.675809169127,355.927234715186,394.946645132544,419.398168057281,309.434555722149,392.726954484745,411.123899048359,304.014113793787,322.600182315961,451.911467407779,244.909312671464,235.512500946102,511.487568148011,300.601140148902,444.763744289372,454.364114095132,-80.6082624410417,400.480859302192,399.545202094438,282.267296740136,150.179616275275,495.073361295887,436.997002450009,196.474494539413,218.433158247248,310.106243187995,466.709514821368,1384.00904031598,399.228295476292,168.565635121309,439.556857048724,1061.26728920177,389.448193004925,678.381513823435,914.151974935939,551.41280416141,666.399553842078,588.406282278855,631.671538597007,665.271869559623,538.773304475644,640.790545294476,494.867725541001,547.967039652104,602.998956031496,648.44215470346,507.737565648719,624.11577131716,467.707262627049,527.89056799745,566.174014102778,613.111563664405,479.107081834941,586.22632558578
524.781722754137,566.430788033229,510.231121516251,535.574943650332,582.375459742593,479.117336282107,525.980025999966,555.503585004378,484.58380793901,540.756021543794,565.437961012798,434.706752775349,531.167861205411,517.878199423041,422.488023726702,537.570223544405,590.840963954829,483.429425652052,488.074742184675,648.429683975578,409.577565631989,326.912395941253,748.270162219583,510.029348139319,652.215047395386,647.50584386398,94.7831408657538,630.2656423278,477.9377995631,452.449007915031,234.122752412776,489.01851713354,203.96896808156,371.429434895166,272.035331157526,296.61129767953,372.135671233183,1459.23165339102,492.587814073924,109.215132806363,424.906587051678,1055.80917693295,451.261381535394,741.47183844382,890.389100334493,607.665505459838,713.96000610289,637.130010422055,683.550733606189,703.243297171085,582.646214752611,676.391893103911,535.969129506826,598.030290744844,643.083291698392,685.221863650089,548.849988431141,661.862739445372,513.515065254599,574.157155939945,610.903540984713,646.162739055877,528.237261199386,628.637449883399
563.387987797598,603.848076705495,565.890096846699,581.413585884648,621.325896466477,533.472785757466,585.827238015763,616.96632930589,566.947752295394,625.153033984612,621.164593494599,489.095910063666,640.093377074742,602.921346769918,495.753202899044,633.338461233991,750.91579787737,599.945768693493,598.447882668414,767.863842995689,472.423473285149,411.821475810243,785.098184185858,619.425181694415,650.725532328914,690.803615634148,223.406460228696,672.067740854374,591.000833863656,569.120151024331,354.473097285113,446.697027554707,51.4240640905345,551.987910475107,309.205897546755,298.087978115545,204.396156399603,1402.25504164693,568.577809342533,58.7926389566149,353.191104179549,927.294005546781,475.510451348979,750.777998924963,777.157628186897,605.851284473698,699.352655263285,632.855635810688,677.733510042051,694.221241463428,582.054338791775,661.27079343735,546.177625282497,605.636370092562,635.577888575708,672.704841517705,555.978839567231,651.516291908348,535.16318132275,584.279612331138,619.486160759483,644.117213016895,552.242161108024,631.894636872015
590.939336620275,627.72315185216,603.010416463961,611.677839936734,639.406461277105,575.311154534736,626.546791125958,659.093688320641,627.834191684503,678.389351153765,655.928036053814,549.892952483434,716.96797303132,658.28686355238,567.717676918583,702.404729361836,851.659839469471,679.602816482656,664.864516767932,800.288787780837,518.479081947716,475.302385653071,725.458994139497,707.205063901375,508.778348191444,696.118280890438,274.096935503121,560.566216536095,695.979889793293,650.97238457769,502.737909155407,387.30090747831,37.5759593830922,691.543600777976,319.245892065919,319.099619316982,55.1417794944733,1257.98507258036,646.301550174449,81.4724094078692,240.730447986675,764.143453236239,444.125552330252,746.553402854453,655.215314537594,575.299925800458,650.063597466167,603.706653756509,637.667251401824,653.897863164355,566.85022685028,623.311330831264,548.791434372949,587.461801161932,607.382979311426,639.82712756199,551.456360935136,627.79322621644,551.329929743301,584.340789233289,607.015843079183,625.732695356193,564.162022534427,618.320217217777
570.968637102093,598.333373071972,587.427321795383,595.839126448334,609.357772937837,567.380682293559,620.350576541177,645.115214613379,638.975926144332,671.934530866118,641.993571745635,612.599576072346,741.487469370429,655.008473826228,692.726641365339,744.26071492477,856.588534758086,754.53102013145,694.948350553225,790.660294155473,614.438175734327,505.482259935935,686.702714172514,848.784626673577,406.094359941595,802.707736779952,299.950817715949,491.992582304781,752.789090679938,719.931063293225,637.082048570773,354.339324919059,116.622282833122,766.564879845652,327.17750320811,361.122093049256,3.2670145441259,1060.48750499348,733.020171603916,168.269723844739,165.569021223999,700.421652085583,394.949911739988,785.415243227915,571.821705518009,523.998559114189,581.33401153301,553.114918613409,571.612096522223,582.801748656479,527.285357570756,559.64129420644,517.071449193776,535.142903931484,551.467450099138,579.332081439595,514.486607822973,570.340969758849,524.801784370268,547.950843799908,552.458524777275,566.389260796331,528.632906497978,567.226408904524
486.547181776053,505.735215529046,506.240250075429,522.253303147262,528.792627872701,502.800493207573,559.374622284479,576.953872247652,592.130608804729,615.931310211629,579.920060984186,645.001164020343,715.413902472117,610.506946528283,819.37644253675,761.675897313388,752.794200996873,827.094732547379,709.795945409717,776.61475537748,749.366855606053,512.51853247039,666.261845620892,1006.65931424662,383.145264660514,945.11622732645,281.936279985529,561.870392273429,804.458301375104,686.000457513195,749.664181039314,433.037991039736,277.763258852679,758.327965898969,345.880224261611,483.681543488121,115.408599427625,861.948097610403,778.006219039912,268.679918440404,247.638672755394,773.301849421031,399.44135720952,887.591481725265,535.275171128528,455.233456610219,508.776714290816,478.583036640333,489.325480288601,497.980853449099,450.25549639602,474.328164703425,433.871996617052,450.134564291513,466.957616669555,488.82684957339,429.87910408316,469.365496179842,430.40975185683,454.376342808755,456.549313173671,467.463305219567,431.035129098958,473.814110322343
370.928725774796,397.610328648843,395.694068422676,427.284157231648,434.14835711139,418.962276076025,474.369084025306,495.490735996002,515.101412433135,547.033043034107,507.217622833759,628.085873110557,662.079071042388,560.982369960448,830.363779366956,773.802333147331,598.72069417165,873.487545628192,748.444358536321,779.701619283376,877.277870554703,519.588665883029,622.585451835213,1074.45630254544,353.113051639167,934.376754359299,188.718054265974,643.521989968486,878.29183388978,509.733805679513,852.628709045198,608.177136230417,499.392746935653,675.438412670969,372.868819818006,693.421470146198,363.94325681009,698.720809509396,723.191416679795,334.040447619421,487.67709311691,834.535516131426,455.65470712372,985.129907395237,522.826912297078,374.151144876222,431.950602356509,386.990942777487,400.237681286229,414.247829848963,348.360564420712,384.322334220238,324.028024202723,346.963181024579,371.816116635131,388.674768064923,323.859536543951,362.744565649757,304.657967946002,335.794492961126,352.681250744,365.98493432306,313.127338163289,369.059912197928
290.453184611056,336.308683611349,323.052800769768,367.359845987073,378.933230038527,369.520386502172,417.423638509681,448.441788129019,461.801091215041,508.203171311541,472.839608814242,603.186005028036,625.992584181999,546.369137665755,764.05144427634,808.212633062888,533.460603186872,906.32614143196,862.309558155786,846.589600204259,1000.58806656307,575.580890086939,613.118891561057,1056.36768512476,354.930445739459,783.676322555065,121.416134132365,617.747369523901,970.271391020075,379.135685202958,966.602489177591,764.903270760372,709.80045130185,581.801111487825,437.689112552335,907.837176582009,626.863396951711,590.563243568281,606.379949419548,362.922524924482,768.639417320607,782.231738415504,530.017964500461,1046.62714799332,552.012147539345,305.484267897466,362.569688786464,313.29544504951,332.880035984127,353.281549608513,266.947539040871,321.087497858147,241.396911180416,264.819397018007,302.908729865661,321.829107993539,251.594214738189,305.938606236832,217.86450260556,258.415227809905,285.730084966718,306.750457446992,237.093755987899,303.036706381764
307.873000940929,366.153087547411,345.036088120301,393.190210399236,413.981978930678,401.293707251288,440.821531373584,486.256423217702,490.113658268936,553.129097510479,528.783010106031,649.811547666427,669.774986565597,627.118461751887,804.12408370829,893.344317237657,606.27633332421,1012.02859835049,1087.94362834321,1013.5077148221,1179.83182375232,714.22486298159,757.866230946524,1102.15570661971,565.971024165196,750.283611227468,227.098405901922,585.235629873399,1137.97139789189,491.076361882168,1136.42206375996,880.472088580046,901.056600500754,555.630772491292,574.953806526758,1079.32896742609,832.630255820645,593.751132606521,538.392992651785,431.222188069953,1020.8685335255,726.26696018761,647.409474957412,1140.2405652217,688.740901893501,293.700388855419,353.15177871048,309.543221079264,335.894092704932,358.735607905808,258.351275079556,328.769760946942,236.333189960808,262.806528884989,308.939682124732,336.889624194106,259.104153247801,334.045495434214,221.345177990566,270.48782525426,296.432946272925,327.970192630321,246.164393232344,320.604696138778
433.029439039989,494.873860896526,467.540529133266,520.546903087319,554.110968017291,525.200167445637,563.829430640384,630.80580066357,620.50206616225,706.951831427448,696.39456137189,806.720084010302,820.816460604422,830.26103372161,1018.62765862933,1054.28370841105,696.462602711104,1259.84364039924,1408.97146583045,1264.03860475664,1463.7477130726,911.824110550282,1111.11615741504,1331.14784750778,1039.33732265645,1038.6913560016,564.757242630888,763.140990894869,1424.94525709403,830.251182738945,1395.00321923631,1051.17795481113,1140.91599790066,660.268298277136,816.799569048988,1253.93437015938,1037.83456446811,771.564980910513,612.042219349067,664.708771027414,1284.2586307871,813.650410461736,868.713791263176,1306.80906742175,950.634732827535,362.521580036133,443.218404756128,394.012037183475,429.487119563446,452.969753101186,341.569725104125,426.6744304382,320.941584381332,362.135785146064,407.056917515805,446.645375028596,353.143056927739,446.482157538188,320.298297062368,371.388870213293,396.567133556809,437.876310489506,346.730055571998,428.591524000611
586.926415556524,651.265225355657,619.252688088567,681.405107551056,723.285185662611,679.932313405453,723.86948850821,806.887948774854,790.060204759273,895.661906359339,894.172807547763,1009.13831030978,1008.67788515119,1058.87578224119,1263.63801570154,1268.39118715423,748.88706321655,1546.55226348491,1707.17642141632,1523.10495757018,1784.45632674724,1119.26364641674,1562.70913902428,1654.62745854822,1565.58433495027,1530.52716611191,1049.34461754006,1184.6775228291,1706.74115212435,1224.01086242398,1659.75195962538,1271.88176122281,1394.98903023177,872.127606782807,1139.79666540492,1426.04219948153,1266.23087592717,1055.4194949036,793.352396624388,1049.8805737032,1537.76591873625,1026.97529015526,1144.5577294737,1446.30104985549,1221.0183363683,460.22139937302,568.004515665045,502.365389152293,544.273477698514,568.677960681498,461.7169547723,548.942044827243,437.649486894184,488.833721363024,528.275867076371,575.699494916083,475.133092288527,577.666837401563,452.879169448763,496.510388437057,524.581263636738,567.067807342186,481.884227333421,559.156369044969
646.169785825351,704.082534197969,681.236422605158,744.087633137917,780.037871129321,746.662159667131,791.130214342563,863.848672877007,868.00405579135,970.546503341341,962.53884262066,1100.98570278604,1091.12921101055,1135.2563530321,1343.16316298774,1407.56510861358,849.711253351456,1647.44652759112,1782.34043301883,1650.15055920021,1933.5232005947,1260.53072486224,1842.20375897436,1811.03778637311,1779.74990486575,1851.8835282704,1389.79216892051,1545.64393712283,1772.24322912246,1380.92522702135,1720.67751336544,1341.52125081529,1472.32715183382,958.7638738656,1341.22214101301,1437.49046814434,1370.62464426362,1244.24806330168,854.585258444642,1294.73838065577,1576.31857499484,1184.58362858307,1232.19947177927,1363.674660363,1287.97010022856,475.33586724794,576.930940793782,519.954771225617,549.03487853787,572.533805131796,504.554082647047,566.528677979108,486.10173804516,520.380197667024,550.309489490624,590.466925081386,521.521383194766,607.274001527107,513.56253002012,541.308742054083,562.369557166794,591.625702439574,544.16472783928,595.136291997513
570.391969711005,606.480836792655,604.393616237417,654.323620015526,675.366236488849,660.197762693075,699.95884313748,742.863398950304,779.115038877362,864.387919242249,844.056875702389,973.32830799302,988.907831029323,1000.13446056428,1185.12917019674,1336.21301534267,960.140686403857,1482.96340317741,1566.71976036106,1538.86181609432,1778.0127431184,1246.73393341555,1755.68514608792,1653.14230302429,1455.52841052759,1780.91587144366,1270.9277888494,1509.92395132284,1556.42031834798,1068.79705218656,1452.09628108901,1115.20625508989,1265.54040105639,669.231122890252,1192.31631827206,1166.10453348067,1221.19341664399,1237.78278292411,588.423834032606,1130.00401650187,1253.29867153764,1122.63403354705,934.61900557284,959.040236430995,1055.84425884111,366.706608557088,406.000194042212,409.340561989751,402.93872341307,415.374592183003,424.291231642116,434.348534189348,433.608119658362,428.678710198439,435.123567470228,450.799877540848,454.0981474404,488.084653839581,461.942263159281,468.453896474081,466.282045218429,473.883268975545,485.541830770646,496.797912016308
442.46979845331,455.962671006557,464.894911702162,501.88214255269,512.729496349402,488.154226237248,528.215477072155,554.674890681004,590.621545081687,668.208001680948,653.692470283494,699.305332438965,766.815246190296,782.27717379436,883.82619012433,1081.97738745877,916.579196432441,1199.24149296449,1245.80842663995,1263.60762967668,1456.55080538159,1107.00726297977,1423.86343924618,1322.79441771372,806.854184600946,1478.96071753352,764.534958205307,1147.92566507555,1194.80809544721,490.946748910205,1016.66382745668,741.991514230495,983.199575263832,141.396435439378,776.363525334986,762.150707575688,933.217095757883,1138.17648354853,117.151092567064,707.660952307772,740.652805849589,907.332626977211,411.085179905602,388.824879429874,698.016439263106,231.606674293162,177.686646518092,264.019027426051,221.608782570145,209.301855096609,312.127785916151,259.775290160255,352.281614400652,312.876897610761,283.21500268733,270.066673483786,351.358014610265,320.457795326455,368.840475852215,357.97482281717,329.498380782804,316.975369818286,379.12641446459,357.187742645639
344.865254781573,349.300847808029,350.444353659417,384.031655109619,393.595835769809,341.35277299764,385.970354767884,416.444553658373,419.497611438216,497.155508734467,502.688702996108,451.737062125021,542.534994604972,607.814434582267,609.909039485686,796.880482596171,732.246800406877,955.37975868701,1007.48216606569,1007.03047830486,1183.12364935619,999.233616907239,1122.40432667918,1023.54525290982,342.573892551097,1213.77113503554,315.404781530128,814.83668143902,855.134083767342,145.705941003275,714.772785860732,497.183785957775,927.07003810404,-202.944769143845,447.421707298061,530.460438608251,750.307449912147,1024.43114349917,-211.934008032955,429.734448189981,335.211467573885,761.324045111761,38.8260683318117,-31.3566115660787,449.475643237069,180.145339867669,55.5443154729621,190.414991675282,129.200298960852,93.8815995747208,263.414586871282,162.723074059264,306.95166609732,256.878566709894,201.27314930218,167.285395696914,292.746630185671,221.472426666781,306.594982470054,291.28912266598,250.740725307622,223.03652320752,307.231286109063,270.667267863879
249.611991917404,253.467096541043,242.887936990648,273.750796853101,287.345222620509,227.696804497024,268.003433387027,297.17106008677,283.123482325117,345.196618000055,359.331565085602,288.418803042417,349.732675688397,446.252712134383,440.420010922587,562.103545948483,553.303017381492,750.808897509049,806.341658205034,811.521912466244,945.330657526341,965.176074120678,915.114255410423,747.216813175504,286.396894649117,999.965619806763,163.925663605672,622.560982491812,546.543674238936,148.072757114826,572.163660851713,427.927840384837,989.137555618629,-249.601366527608,377.069395170957,505.806128437943,721.924991154131,749.178217059995,-279.472484646166,393.036433486072,98.8325338540299,697.37915735884,-70.6563986393237,-179.89434341208,266.750036955437,172.742380882353,25.5208611763075,156.698904998079,90.5748688058537,50.2864917710251,229.61273981681,111.199274828627,254.445611938848,210.806067067022,152.354831201601,111.296834118581,237.092316436654,160.479555524696,240.485510649516,229.93684646975,192.930000576227,154.572082756241,236.449860837106,198.37754529181
95.8418595174569,97.4122569267996,87.5247903647649,108.16509311141,120.585521699555,86.1013853560962,104.376500315151,119.022416982167,124.870753991507,153.658832474656,158.677141490069,137.955815211369,152.004963236263,225.317621103685,301.431906957267,343.530731985243,396.002738370978,508.086025246635,524.09571866004,557.230812627206,613.563432886695,858.517993898119,662.263353321864,394.508231077272,380.789680040872,684.820411493681,98.4092654139928,391.757197641053,163.592773361885,138.98701593137,303.951152198982,353.724457079773,741.304132365482,-281.570197244706,378.473621833139,382.071036041372,620.499207130827,117.199001738365,-314.087803264931,298.16311451139,-115.281025504225,461.006161259555,-176.43818603681,-268.781287569843,-84.9257279419006,89.9344124952276,-57.7996741268943,52.1644316037141,-15.0613861376178,-49.3448949511097,110.767702468692,-5.2054831411826,125.89285702252,84.1940824730387,31.2590483454665,-5.99625882362583,105.844165715242,32.1098408174959,107.141342506874,96.4268056979955,64.2607100017012,19.1015317259048,98.14244686783,55.2932610301249
-64.4295387143806,-66.5587590940918,-64.7774684100644,-57.1739663260286,-61.2523585679626,-54.4329959884026,-69.9237163938064,-67.5291400733784,-32.990031001712,-31.5077254400192,-41.5560486652828,-11.5819263674938,-28.8249713220332,3.58171163058804,136.274868610407,136.858851284126,218.404864116343,249.989322382616,221.814013308143,224.086285840858,246.9199735499,625.026878609282,361.981444784462,54.4712723763041,355.193733012721,286.611797822403,-59.1612378748877,108.128703907152,-241.1758786667,-51.261747616914,-151.531097517339,218.249134720348,112.014386710701,-435.501133551668,304.037024638974,35.9038522471941,266.110694454993,-724.368231281902,-463.309790654724,-7.2450075258279,-336.397831523365,-19.5351234727401,-428.192735984355,-460.258310523925,-595.328202261291,-42.8405004876306,-204.861721046368,-96.3892457286976,-168.852471711739,-202.80130471532,-42.7436346148801,-158.279108668163,-21.4071492671113,-73.4669616878035,-125.997300161714,-162.83844107175,-47.9779694975469,-131.294050424747,-36.9256400212338,-58.1153231203505,-93.3503595310869,-143.014715277895,-52.2358100944926,-108.641831280352
-133.913571694597,-141.367873122349,-124.772273342691,-130.061297764638,-156.679338514699,-112.003087094205,-155.241737876935,-163.424163618346,-111.581477120478,-122.403263252374,-147.152673891911,-97.3539832348683,-128.693215681913,-117.927685391491,-0.0321337634550645,2.1871338111719,81.7443925260208,62.1364623150218,40.2304088565098,-38.5662827693815,-0.866164925527115,393.564464651935,157.425880645132,-99.0524639930779,235.088883727791,-50.7643293397931,-155.437534981799,-61.9528018833729,-464.754759957502,-213.814463622122,-470.60561036964,152.446472662585,-506.248546398647,-561.762733615526,255.271292128666,-267.036026865151,-209.809637265554,-1318.78743256711,-578.693452059869,-289.852687480733,-429.152131615811,-471.830627244456,-639.119463402921,-617.801339705804,-957.428412713743,-111.96990638648,-300.422817009373,-174.130710566745,-254.864415083412,-297.22013858262,-115.007346327395,-238.663992071127,-86.7901740791176,-150.158618540139,-205.168910757948,-252.186750233295,-119.93503262979,-216.838316826469,-95.9954724115025,-129.993178536774,-171.686350662421,-225.992137927197,-114.182040344907,-187.031662797546
-143.297982202462,-164.747932599986,-128.290163172693,-150.874370833856,-190.348009926936,-114.860511571568,-171.488317139173,-202.932041751113,-131.087943139301,-158.434549324256,-195.986678538998,-133.509411171726,-175.809389046877,-178.544830768377,-81.0084566266138,-73.321235581946,41.8045332789656,-78.1072708344467,-48.415464403221,-143.567174772545,-163.7260914022,241.376011550681,39.5866836537758,-116.917911710197,116.473877374324,-311.844455140808,-70.0748873379277,-142.885421662422,-477.988885789145,-246.141986308257,-514.01668649038,173.94636711251,-828.421492811761,-613.665641752369,264.134482932473,-348.870609828404,-546.759986544437,-1457.19278089646,-542.493163629639,-388.775886227565,-374.010146281183,-706.824446636291,-684.578390628886,-642.074666755811,-997.071757527762,-152.96578657195,-354.433838493744,-211.14147507905,-296.454479981069,-348.924772516082,-147.296994833056,-284.409271626658,-108.784338543494,-180.021340545171,-243.830979272583,-299.005953277237,-144.950125143374,-257.195163948167,-107.720029985536,-154.655523688845,-204.574032562165,-264.902486994132,-123.994073813481,-219.278825329067
-207.016099229927,-247.531647226112,-182.911762491808,-227.877762526109,-274.386225147096,-166.246691629582,-231.527709403537,-297.314017267162,-192.784581129468,-251.396092406465,-298.435799557882,-206.737052418574,-270.440665744947,-293.207024145492,-181.494658903839,-197.876448171118,34.158022030535,-272.849399392455,-193.44148886188,-184.328608498796,-366.462076757857,109.897758856428,-120.756450587315,-192.434057810851,-18.4724137835845,-504.145826233794,32.537925787758,-256.165735758135,-423.368888946281,-287.04172461813,-526.176161598978,143.087921937005,-903.778423409818,-708.084347185148,190.922574687476,-342.879235298169,-641.329197261264,-1379.22004213256,-458.903923367104,-458.998582324368,-322.131119202138,-825.470833997506,-708.852632401945,-670.358554180635,-849.924935017092,-278.186367017679,-474.131351183144,-320.129975860426,-409.612169244605,-469.133706984446,-255.808315364685,-408.693704804738,-193.825487573138,-276.440282776161,-360.376960116538,-413.672689685007,-228.237571538425,-371.19877360827,-175.436981934281,-240.103408229052,-304.465456285518,-372.918528918865,-193.361192136615,-320.114577136564
-346.295277172961,-398.453134605785,-305.767216166358,-371.407659718498,-428.305826628195,-289.109352752329,-364.292015416575,-459.625601486604,-327.353017876236,-415.97734598388,-468.278721592195,-345.157135292699,-440.591172041391,-474.395632565004,-349.350778374859,-423.787327876912,-29.178933350505,-528.640997287616,-440.591279650001,-283.721832355963,-587.924780382985,-51.8189877387225,-321.00072662548,-352.181730011492,-189.258963396342,-541.97769264659,-31.403076568296,-344.389688415762,-345.589171872572,-402.85485989852,-623.26957997667,28.7978458129163,-855.952193125676,-861.830102293276,9.93640631813882,-345.859056208416,-555.253498473221,-1295.79999467463,-451.236177782004,-602.910089284234,-331.229612465797,-901.445968517332,-792.300375802592,-770.014599640094,-673.304659978568,-455.789046691655,-644.192325407978,-484.497212051821,-580.504542865184,-644.347747100262,-421.656600844974,-582.718776453353,-339.868681792579,-433.407390203492,-534.150240772499,-585.919790954327,-368.976921331358,-545.909035673771,-304.886581985197,-384.665911960961,-464.066357879927,-541.312480175279,-330.269910972942,-482.441419528094
-459.652379700939,-515.544581105344,-411.580752468005,-486.121388840041,-550.862400010662,-398.153812559115,-482.212336258016,-586.210371452824,-452.684970328731,-558.523082281262,-604.909584149478,-480.531249587815,-601.357930831779,-622.153961944951,-514.476881968115,-660.929143480198,-141.829992162972,-730.411375563399,-685.673877088626,-428.561556670647,-717.099722261087,-203.835895250496,-447.901371318276,-470.394444524036,-318.854893142789,-423.49760805828,-187.774874108424,-308.070677050583,-210.720372952845,-485.671427914294,-613.248569318372,-26.0866450461115,-739.62655035341,-945.10828408987,-135.285544453387,-240.74108122766,-372.907232337929,-1138.47705979968,-485.980821531947,-654.814227668756,-263.424519393351,-831.754046077515,-765.960177645931,-786.403872207787,-477.638119803992,-547.267527620209,-725.239819555291,-578.583150243187,-671.273825003184,-735.789425277796,-520.631672677396,-668.49578681235,-444.489099038483,-534.529141727559,-631.868280411276,-684.900420945266,-469.259818988583,-647.774572898217,-407.947709807165,-485.699862282387,-568.361393924946,-645.053564562871,-435.453794023253,-586.200888953324
-466.605351216466,-523.476872528817,-434.242126088934,-500.009906577622,-561.808421557768,-419.143078890198,-510.822796460516,-596.323129234546,-490.456238351052,-601.893981796876,-629.465480698566,-542.616535285166,-665.34469169188,-658.134471271889,-593.903644814589,-783.747177147203,-247.57262321979,-798.519209341357,-818.828929573183,-528.563936977354,-736.334849978324,-294.481904029552,-467.827806813284,-499.994775625803,-326.226333253982,-278.960585612647,-223.419353060047,-194.442616099497,-87.0620035010085,-430.181372840411,-412.958645549839,48.7782150503049,-591.311979386206,-830.49099314501,-160.907729219223,43.1711867048883,-155.624747156188,-853.440542707841,-439.605077997061,-458.248867952346,-16.8580288852758,-598.454155941183,-479.306436557337,-609.953254844678,-266.421600221947,-492.543207963217,-633.325571812616,-534.341135613041,-604.063870324887,-657.450146084931,-493.121386294553,-600.605025244277,-441.723106384829,-508.544463466827,-586.037621545201,-630.480535794425,-464.901616928591,-603.400115355456,-420.951390829803,-479.77522037118,-548.639593148881,-606.868266084892,-442.20547503522,-560.023425475165
-406.013848840432,-457.552099130264,-397.170658975386,-445.176140889459,-496.36460568808,-379.666414430318,-472.322570449958,-529.320830369292,-463.172234307068,-564.738468714161,-577.071273679161,-540.651552706189,-640.805103436282,-614.552710692952,-611.52475702495,-778.655444878942,-331.126680613044,-783.434500878142,-839.82995534451,-574.226226649858,-724.217733662334,-357.260062963441,-450.575460157928,-507.703627263247,-253.777866497324,-213.593995228496,-90.2156028812332,-102.386159195236,-97.9994294968598,-258.115993167619,-198.75068941674,112.210763552801,-442.291712966686,-520.695388763623,-114.843455160955,346.703705121963,23.5953706633923,-537.131198551698,-259.221436987202,-93.773574713555,293.138612816119,-362.045674304897,-26.8567293058454,-333.189870067228,-88.8846983279911,-355.615147066017,-429.089482360342,-404.400025807368,-437.556737195787,-465.301350816195,-394.630885755621,-441.658150126805,-368.297322266687,-400.596631968189,-451.967688149514,-476.547241798768,-389.60807826408,-470.470534890204,-368.926653219156,-404.994829102616,-446.99902936677,-476.110019360049,-385.047184164848,-453.112242459815
-354.18875662587,-393.567692020633,-352.813197206153,-390.634314721863,-431.032006349592,-340.878770680963,-424.477982588623,-466.836091286864,-428.776522995329,-511.195555300447,-521.030790601498,-513.936251759785,-587.314979519347,-569.325595169412,-625.711030344617,-724.53691705477,-396.597347584068,-765.114256352416,-819.123730183104,-627.331002676135,-723.419340160997,-455.618547559391,-457.005390191328,-542.981393949345,-214.481247662255,-245.421593265456,44.0677749949372,-62.9256463577713,-245.498288341936,-81.9935764433449,-96.4223941135934,25.2115000042244,-313.591845196697,-164.438483286798,-60.0638338837547,462.967578597146,102.147538190206,-270.063020668555,-30.0019362702503,242.825233093738,475.821879768163,-234.913611980351,371.876759516711,-82.1204115264844,44.1577774452711,-231.389997215688,-236.760940664735,-281.895461863963,-276.988290234995,-280.030501945296,-306.975621561083,-290.110380966708,-298.023094241162,-301.055094105073,-322.667568451846,-327.399207857693,-316.069595231855,-345.840713676204,-316.59761648683,-332.80996825799,-346.446434794099,-349.536689406431,-329.660271354154,-352.307133083486
-321.00230049948,-351.188612879752,-313.240457983473,-351.115791400457,-382.370131834037,-306.37828170646,-381.675444012249,-422.29860192295,-390.405876947576,-463.75434895767,-474.243712463234,-464.38743319935,-525.607875123315,-537.897352056715,-627.180384832276,-669.439902282398,-429.837276586266,-752.456206982865,-793.677079890888,-703.653925233098,-707.665353534298,-571.933908101325,-495.424827348581,-593.471134930484,-248.846416420352,-350.736684783862,26.2930101446271,-77.5626153845478,-400.376576920785,-7.21237059739092,-68.9691928814308,-122.588650182624,-226.713307307879,81.109306917946,-31.0687263147733,383.068051946708,94.3379626920781,-61.2051266540017,113.444542876984,439.34947383527,484.491203710257,-185.769445961927,592.365483404653,118.075895588577,154.410704981819,-166.16302108272,-125.816103543543,-209.357482815691,-174.588272893688,-168.115556193996,-259.05040892797,-192.628505632849,-260.487562426195,-248.978094740973,-243.909252643748,-232.159529338331,-274.007348723615,-267.398557228769,-290.253136252904,-288.292438288411,-282.872233321887,-269.786018550232,-293.674570772148,-288.49623739162
