-66.1167513823959,-68.6541267095712,-69.9590625921185,-69.6690768404413,-71.1190055988272,-72.1339557296973,-72.2064521676166,-62.926908113947,-73.8738702397603,-70.4665376575535,-71.4089913505044,-74.1638559914375,-74.8888203706304,-71.4089913505044,-72.6414307951324,-72.7139272330516,-69.596580402522,-69.0166088991677,-73.9463666776796,-62.2744401726733,-63.7968653689785,-56.5472215770491,-80.2535567766582,-79.0936137699495,-54.7348106290668,-62.4919294864312,-72.6414307951324,-59.3745826559016,-70.2490483437956,-63.2168938656241,-63.6518724931399,-70.82901984715,-72.4239414813745,-59.5195755317402,-59.5920719696595,-63.3618867414627,-63.2893903035434,-67.9291623303782,-54.6623141911475,-68.8716160233291,-57.1996895183228,-60.1720434730138,-46.8326988958638,-53.5748676223581,-62.926908113947,-80.6885354041739,-71.8439699780201,-82.7184356659142,-67.0592050753467,-66.2617442582345,-87.7206898823455,-60.8245114142875,-90.9105331507944,-82.5734427900756,-65.9717585065573,-62.4919294864312,-73.9463666776796,-56.257235825372,-64.3768368723328,-74.4538417431147,-61.2594900418032,-53.4298747465195,-71.6264806642622,-58.5771218387894
-309.8801657946,-322.137443151287,-328.256837706874,-327.315840558055,-333.470755060536,-338.721648905223,-338.485671345953,-295.179410882434,-346.760014249474,-330.302313125863,-336.369156033176,-348.135990025809,-351.648425904565,-334.91922727479,-339.244699127908,-340.7486360787,-322.622060338814,-323.494930682109,-346.741526003961,-291.575990320245,-299.234841773519,-257.875789324898,-378.046431459709,-373.774967798997,-253.98820918756,-292.028000649142,-331.487580270543,-277.091268177705,-327.022941718114,-294.235500645351,-296.734442937369,-329.049928891591,-339.952631805719,-275.459370052455,-277.470782068683,-293.546056213052,-293.709537334403,-315.435164004082,-252.629265112606,-316.717242008721,-263.364117272988,-276.742904601226,-212.868047386473,-244.42450555874,-288.727227907617,-377.500523359116,-337.20068025305,-386.914864479701,-317.686923211976,-313.975486264974,-409.852985804363,-286.726011700312,-425.713683723239,-384.704451395229,-309.699652971868,-293.332936531689,-343.189200545916,-264.184435968008,-284.877633977235,-344.72720089947,-286.832571540993,-249.101254076601,-332.108897897318,-273.162341916946
-586.468724103969,-610.228075003391,-621.468875953969,-621.691460291952,-631.663210883027,-641.730675605609,-640.36339846804,-558.780481809341,-656.531734635141,-624.80185511242,-640.583470159464,-659.823042720046,-666.184165519851,-634.356059219064,-636.679838931596,-642.988444948678,-594.882384329157,-609.559265887014,-654.819007009357,-549.782665936311,-567.730440616615,-459.383977902226,-716.864757685013,-719.116952200165,-476.777766999141,-553.939602269878,-596.972629397869,-526.334011596066,-613.826330810246,-552.368919566113,-560.421043707803,-614.939107277478,-649.698732208374,-512.440832057884,-527.247096468777,-548.529887020807,-549.69816309013,-589.746168794774,-476.666878152089,-582.751687094374,-487.040159002616,-510.285848844396,-388.684626011892,-447.17623486969,-529.687445982199,-711.19410055438,-642.53614453521,-729.503956982575,-622.613098941544,-609.683078143342,-768.122669244752,-552.020010686045,-797.327510559158,-719.873217516211,-591.182083536703,-559.479025322111,-636.875857180466,-504.517940146875,-493.420471734351,-639.903275429991,-544.225555521976,-470.07992721544,-618.248503166189,-515.054377168626
-583.062700431521,-606.934440773685,-615.586224770882,-620.824542523961,-629.011242678205,-635.595185558055,-634.999633395764,-554.950940317174,-650.379225044114,-620.364590841782,-641.767065261494,-655.326578446887,-660.073998051692,-631.668810040092,-619.20332682158,-631.616367530469,-553.711219059167,-593.818285342204,-643.124521352299,-541.27706994203,-566.163849623133,-392.814720814417,-694.758534411017,-738.116071442161,-476.880331130787,-565.872408545809,-532.752198516456,-543.102521457899,-614.103382823028,-548.314299708683,-573.56231586262,-608.639116090166,-674.610682746146,-502.56712509645,-555.743271151669,-550.092311300417,-553.471005955896,-585.442827911801,-510.489338351395,-563.250431769192,-483.655556710877,-498.574583395774,-392.188302437969,-441.102548871766,-510.275285111565,-704.655730361724,-657.904223864455,-730.711345050918,-700.871568071246,-646.483835710993,-744.931243604739,-581.418759526279,-761.851336290145,-703.26843985794,-610.588088003657,-577.261115460489,-609.046153013773,-521.370297156079,-431.167500660308,-620.41481265638,-554.724154535914,-476.514066456888,-601.553710705073,-519.037473159233
-372.953279420158,-389.432877465782,-386.762947722433,-397.144603921828,-404.476653058468,-397.5235743548,-401.777759017587,-354.241621267224,-409.753478407139,-396.671034235289,-413.18844636311,-412.210941069214,-413.846005036541,-405.95398950856,-374.152401580895,-388.170649285619,-307.400615479608,-352.886940636782,-390.65663847276,-346.772636681274,-352.612229691358,-188.359121349494,-357.821335455766,-487.077375707232,-322.619257269941,-399.716837127419,-265.843490853768,-394.271628834047,-431.66224600062,-365.74401154562,-430.147064729772,-418.728392671017,-501.561973692192,-336.949033257971,-447.085256724973,-400.342399107094,-411.847087472236,-413.767061347774,-459.507797094455,-380.334747244177,-366.188798828917,-350.64985397767,-340.05971346069,-342.139063861558,-349.25075253296,-472.825672761519,-459.491327014136,-516.198649136019,-629.764327197012,-473.291085742816,-456.205246023964,-438.609515467745,-431.462777000018,-448.419775329119,-445.565873924197,-422.432924320496,-368.032386905816,-380.900071549121,-259.113936723897,-399.299391374863,-397.347664588655,-342.544208375361,-384.626753109708,-364.988787887487
-254.126263990171,-272.229569922473,-256.806437075114,-268.049025223405,-283.160570620431,-260.858142901551,-269.158446483648,-243.284444312118,-274.276616143613,-272.195291851973,-281.639440629105,-267.522716370161,-271.666259243673,-278.013773782481,-240.604176206065,-247.727845446295,-209.463438821256,-211.369940015151,-236.823609577675,-269.038164301842,-202.431347786036,-191.004837425781,-59.3704671135667,-293.935078795549,-239.880687115581,-301.462210631822,-148.252853669932,-307.792144540026,-360.380369139153,-281.010221029093,-388.414452229665,-347.487621387393,-427.628692859001,-274.34542820723,-415.008168084182,-358.508686977878,-382.115951711131,-386.423515610116,-508.48647912235,-327.217625430423,-370.673225951816,-318.677286150487,-402.826472821188,-363.068962957819,-328.168633820828,-393.275835285104,-326.135680728501,-453.303973412172,-596.885376600611,-346.605757802852,-312.497708381019,-354.987901637888,-247.709985875194,-323.654247340111,-362.681766738364,-347.530421579721,-252.922371326542,-312.363946328172,-229.676416982011,-300.531497158437,-327.146030137653,-288.233938023452,-280.101970981041,-299.993451021926
-213.871991198592,-242.173759820512,-219.155099929394,-230.21953706202,-255.897090490627,-222.790547492405,-231.13233847665,-210.657388046887,-235.962008129735,-233.593831703151,-243.042955158623,-221.134656899279,-228.907035657723,-234.360348242339,-212.696308765949,-204.093373928074,-235.951188132733,-171.423939566219,-183.158646366435,-284.659540321745,-133.763511247684,-363.435729291136,123.458937587277,-176.8445114997,-205.737038037126,-242.864775423076,-153.021377520278,-260.075119318466,-339.24507120811,-269.722112735108,-389.167521362123,-327.827362809962,-397.705588139347,-267.853594020237,-390.23530749139,-352.741982043356,-362.998413856285,-438.570979727554,-527.296927528986,-326.138460163645,-388.318601197538,-316.358378969588,-434.026830138267,-383.42917690917,-373.127220881252,-394.33940735339,-204.295608241674,-431.520661609295,-446.177344728245,-248.400398588739,-268.515557900665,-276.700990435315,-193.132968589302,-272.252653002156,-307.800217761301,-299.691882234766,-216.001686848633,-272.075630292036,-217.659875864265,-259.895685423355,-292.799483344708,-262.336368509528,-236.323705340599,-277.042039851541
-107.298270889437,-138.523028852263,-117.351610644543,-130.380662330182,-156.292730926692,-124.559058736539,-131.66976011571,-113.024227446828,-132.591932712597,-128.797192036101,-140.54484360614,-121.280471522607,-124.270197425335,-124.829073445968,-128.534472955371,-103.31711008035,-179.937803904996,-90.8521829542267,-83.5642042851138,-202.705354603001,-70.2801789696682,-410.288306362061,223.990725993872,-38.9528302393407,-111.020459007926,-141.775680442838,-98.4038070122328,-158.724554329827,-240.991030302391,-198.985921182279,-312.695677528847,-209.053406161979,-245.380695171451,-171.10406367794,-280.143721965659,-250.096643389233,-194.007574256413,-348.440033304838,-382.600901043122,-223.084905247795,-252.623804771603,-179.136229904638,-280.290576093521,-234.338614304827,-290.967585191184,-222.395836320698,17.519524733318,-198.925291381015,-92.1485358376426,-80.5209392726399,-98.5489885690807,-99.4991152870159,-44.6998152860768,-100.515209058354,-145.702933489583,-155.467169317049,-78.5883556087041,-144.0901085612,-88.8239394809968,-108.490337140775,-161.987862316937,-149.954796047678,-93.0814689418985,-167.422624614969
16.2942618227486,-2.63013256535467,7.09749866710269,-3.88603592721629,-15.9248788301143,-4.98322811963921,-7.60279614348091,12.5701967402273,-8.87534033745841,-4.05920274023461,-11.9926499550229,-9.14063909845319,-0.472348882790827,-1.79529006054682,-24.0258117471772,6.49512374309957,-61.8197530466085,-13.0393358115823,14.2648469112662,-56.8844255228999,-59.004710749636,-260.05709421097,174.836817713344,53.3232767248319,7.71634807365788,-69.6188869381373,-7.85112722897897,-34.9404750427816,-157.697635663755,-102.504237391334,-232.365121876859,-80.3145584190967,-41.2489672829834,-23.0630430667468,-164.337636885701,-129.809647669765,14.6845556933403,-135.215432280762,-182.675296766519,-95.5317813173856,-52.6563693476365,22.519787600772,-55.2918370866876,-6.58473645863008,-108.244342525709,34.4397963491587,194.325844458292,109.298382544511,201.031854247338,57.5328170704041,116.507760827536,63.4648706470375,137.288430941569,98.1032740679244,31.9662715508477,-10.4115247638032,86.9874096716482,-8.32396598423598,36.6809467864039,65.160361257356,-15.3744600607364,-26.2377386931105,68.3692496914218,-41.0017629166432
59.155784241938,59.9547869338111,57.7995083731895,57.381983114009,59.3259836273965,45.7232351276549,50.2263151578138,73.402915165926,39.7354840537517,49.0766531753139,49.6830722347076,32.3530513139508,50.7145550918744,43.7545511119433,8.31612153355626,35.3541052911505,-4.69676830250712,-12.3291361041699,31.605948264091,0.172330393611283,-106.405248195743,-93.5247144423815,19.8000706125365,66.2627106376395,65.8193653751165,-49.4915506588308,14.4729005755622,63.1899544514502,-126.903120302601,-42.032073018806,-192.717700025907,-20.2464877405753,89.9613690702766,83.3233340194602,-75.919181909807,-52.2242923096319,130.102662172582,43.7389214522086,-34.9685684944075,-23.9998153296873,86.9762689542748,150.039482886106,91.2311514249324,143.599568253283,43.7983821686801,158.527833919869,186.570318486849,253.744978247966,267.330174185057,64.1233666726453,215.306291214039,110.411012924626,216.244442904761,183.901694495531,118.313052924886,33.886715559692,162.884782823912,39.1923467599949,65.8262579461488,148.206379070904,48.2709846109162,20.4274728388352,136.463389596353,10.6205589395387
48.3343799898021,62.0497670720733,55.9875339659333,65.3499879779935,66.6005780320939,49.0659746190888,54.0303177248039,76.3069120337394,37.1368344916766,48.6727354953286,56.1899330750021,31.8953467680678,49.7084919947268,38.0143859252403,-13.3811303530216,16.7198954785738,-16.1455137380047,-48.9054370351831,11.3499402247142,-41.9310429742157,-132.500981722065,-32.3030820017054,-97.3961343848912,72.0132731833249,52.7314954328267,-21.626055046192,-34.3254410911482,100.282818134778,-55.3979136083155,-4.12088207010852,-134.19371158319,28.6062130204907,142.814780481347,124.725626100005,20.5142394115359,33.3989311513745,168.191328575062,109.612929715199,65.3873845911978,19.7630866792384,167.046274095242,162.167376262948,148.67648715867,184.394389057626,87.7452293865855,175.855801146641,57.1865681226716,262.605953952392,234.537502746285,5.08934493362832,230.62392264625,100.042120339052,220.606317518108,196.199214651703,148.839666515166,22.3316883664634,175.842370280181,34.6321610561975,57.3193279886696,177.086076524046,64.452224204891,16.5865032872709,148.389893741398,17.3104994221114
29.9408526260415,44.1155926692142,36.8183051472824,46.217090707755,40.8263124081932,30.9976427550164,30.57437734201,48.5391362886317,16.6138925130793,21.4765966664384,33.8493671843882,17.1116584612826,24.1850179806781,11.1445049950571,-49.2310253695226,-6.22271990037865,-52.3127354519785,-86.1867136707605,-4.19951689899899,-99.8862314194309,-124.714267572111,-28.538528353658,-155.933272864819,82.1611647311576,22.0505381338765,4.21424678637713,-75.877560145899,50.6906303827625,47.5905092279463,17.261395371177,-55.2553361210362,72.5654266440644,123.998896831826,99.4701877859918,82.5452289901052,115.708913522063,148.998206502612,69.8613283470526,109.339798521556,34.2514789206833,188.400798329689,78.5671936285827,141.643501812622,141.296292159971,9.55822036856353,214.12902346938,-81.8443392868075,267.079895488686,215.933213618162,-32.6946626087714,234.874336357573,91.9533841664744,198.937396379522,191.417879493777,161.725542288586,-0.888181247810728,158.850289991237,19.407842627851,43.7835360227423,173.826693422682,67.0460654711036,-8.8165860772527,135.494446132189,10.7462233423455
-27.0866332138566,-16.6704893209094,-28.2768994908575,-23.1152141410659,-22.6895389321171,-33.6447003199327,-37.4430838241311,-27.8325727151437,-44.9714014341046,-49.2647177892784,-31.5292613708833,-39.1785510049067,-39.6637482663855,-53.9833763194978,-104.317711747999,-52.8597214682167,-111.570285694774,-140.464401167125,-37.3973142066363,-145.925302900723,-138.719595774228,-23.5208265299736,-214.041556190725,50.1506006977186,21.4783650357112,-8.29824175628079,-54.9165943960913,-32.0603741506835,94.4378365941485,10.873047530917,0.927871400189781,65.9188354325899,14.7215313280342,16.2307394046507,64.9777953648247,126.129919963202,63.5586751533361,-29.4462485217512,84.9360437442608,-1.88731028974783,131.728159560153,-43.2649434521859,81.1514704148625,50.7034348430702,-119.943253167365,241.851729583512,-181.949693179707,265.905332296802,189.803480759579,-54.5288016938086,196.480721075251,72.0625991610725,119.098246327769,136.501081642041,133.063064275232,-53.8001493992835,75.6948084504259,-29.6986003678248,-23.8809003446087,87.0420994814393,17.04596728512,-70.2602165427738,47.0954611974292,-37.3334791307517
-130.736284162003,-122.235353669389,-129.441971219902,-130.534248652024,-117.092551833748,-120.195027460405,-129.916392199398,-136.182369935031,-124.906991959232,-133.644681757646,-117.17730011202,-110.600448877831,-108.598514625514,-126.414561893725,-152.801631092229,-109.509733918333,-170.237740894433,-185.145515035657,-80.7679050886361,-171.070268391847,-169.647921881845,-21.0394290133107,-244.568886149787,1.04218259591602,37.9051122713388,-16.7794249552971,-4.78613478309849,-60.4543285036109,107.385657317907,7.09278742423952,56.2779476183945,67.1079795200871,-114.936340528094,-74.0288064779757,30.8162961943511,66.6131971872156,-17.1119293964949,-103.037732502398,63.8850494983228,-30.360493458591,72.4044724171331,-116.850264006486,35.627520430825,-0.0900718179436151,-165.861959097299,210.55044006283,-196.980053793858,229.162916612443,157.572534485635,-59.5189723738617,115.125831326225,49.5384465719018,-2.7581367766276,40.3847450705336,73.917857069855,-108.921470707009,-52.5772105356128,-97.4392567745166,-134.943676922224,-54.6403185056342,-80.4941989421011,-145.403841819938,-96.1567524612726,-114.728985569811
-196.660258717544,-194.149068954682,-177.848995208705,-193.849482992472,-180.984659839524,-144.492399327988,-168.338116672848,-193.84105757968,-137.189895377317,-152.179653334154,-150.483394110052,-111.477184373617,-111.781654750924,-132.76757994044,-133.959341603987,-112.265023486738,-163.354708978865,-167.861952671069,-89.2779087862517,-151.181127912034,-166.641586731112,-28.5693624632776,-208.73030978346,-10.730376433475,1.51527436288778,-1.00622332131984,-11.9980301416601,-45.1970181900904,125.380760566623,10.3770387895884,124.257418832507,135.813321234468,-149.333013893778,-128.161393723112,43.0176094569066,-22.9141574303293,-12.601453389512,-84.7119085019378,109.09255597282,4.26299149011457,107.424157557864,-127.605444544121,79.1553690867637,47.6696508428621,-83.8670614926514,214.329357332028,-99.1901991753984,212.252029562409,166.649320435468,-7.774136575649,80.2318771248952,62.715283889808,-72.3690105427559,-6.01166399548829,42.8640772123756,-105.790645174177,-122.994667716289,-116.974856929367,-187.026236847497,-133.826228880229,-138.830999925852,-175.508127959817,-176.376390411375,-147.712191729448
-154.207306312888,-162.120148910022,-121.36636854367,-150.92022219679,-151.318783200739,-75.5402550859427,-112.002362354235,-148.653552429335,-57.1603688733536,-85.7178271839802,-98.2187110741416,-27.3724782303108,-44.6877702583054,-68.6944322130623,-58.7783852376592,-61.1761262031579,-89.0641858572392,-119.568445192463,-76.1316161222098,-116.888155743345,-151.574662773206,-47.1374210654553,-185.251510783764,-21.3071211685752,-124.433009348389,-49.5973644596305,-97.9850337698779,-62.0593983345847,40.7317907295224,-55.6641556848006,133.012385502115,138.706329140023,-87.4850042175298,-168.514851794457,54.9130465670013,-130.800934325297,11.6464133469843,1.96469432775472,158.392806853099,44.1660873475875,180.948969730657,-175.618282871142,161.645176225405,115.922979066779,20.5594855322526,280.528482839954,27.5022902669894,230.163416238438,194.423811503714,69.3887793497143,107.069949227901,90.8602710422538,-62.4456799341221,19.4759632260658,45.2675700859686,-67.2631388246262,-99.3994289321947,-88.8257173576719,-135.888816386585,-119.67675816601,-119.726490669058,-152.959747445125,-150.570753170197,-112.369644950085
-44.306273129109,-56.4811365746178,-13.270789089878,-39.5228852892709,-44.4717280172932,25.2616138463411,-10.2601057277748,-44.7197742944852,39.1296583495184,1.06005033390409,-7.70562850313957,60.079155582966,27.9320807321273,-1.39890554002087,-8.75640950313191,-28.9039898198006,-22.6282515983387,-112.615855889155,-95.617436793715,-122.384367141882,-184.335118884885,-83.3383742839485,-252.49404516206,-88.8504374051083,-261.52313976823,-190.006996805118,-209.984045374029,-105.635774188127,-202.316800493423,-179.635067800731,44.2468610337382,-67.0287002090919,-6.2901217934799,-229.475365631765,0.343717586851219,-225.349091884482,-63.2033203433536,77.4819331403591,119.221641355643,16.9801338319976,156.086369278172,-340.545902218102,165.250934342707,87.3406545082324,36.629656016425,266.550787772813,54.4086974499796,196.679034547027,158.933234513318,77.2841860813235,103.815028387864,67.2757168399467,-39.921422356882,30.6983268184447,14.2739672424687,-71.5594481143054,-57.6665898554262,-88.2692533770956,-60.5279870617883,-99.1988174874534,-88.2751604870848,-130.232884869176,-96.4562359493371,-67.2935083350115
31.7678158469325,27.2011290665499,56.1506256025701,39.0314900136109,43.3474846144017,77.3305572986136,52.3695494286885,26.3476834601227,73.4306369208188,39.6571981872104,47.783839063345,79.5975129396895,50.6265724064306,21.3936733373984,-21.9152314855316,-50.9360409654479,-14.6515927244782,-147.711579915532,-145.939448117271,-159.53297029834,-237.136896659849,-145.267898304336,-349.30530575179,-172.985645015713,-318.581198880282,-293.27714920389,-349.031539672048,-107.027561618196,-391.478730052225,-213.411148408934,-60.8688407841596,-348.236952093079,64.0614551901296,-282.63055214792,-100.456521671523,-242.229490261144,-206.455903974545,72.061728263821,16.1783235981756,-38.197816170803,20.1743758940505,-553.270077485272,76.6096909891968,-49.209875841817,-50.2067543630729,118.436336332488,-33.3000943582831,76.572686719538,31.5502874145337,0.0100433200237386,35.5473930147786,-24.9964632895377,-44.8531493777519,-25.5180812989968,-91.5331323492399,-126.65975217511,-63.7198611448767,-140.736154768379,-46.1725281559299,-128.529105752155,-100.10428551324,-134.904179991835,-85.1420178916181,-58.0854150601029
20.3996314633639,32.4966102553311,45.4287571248366,30.5396656171779,44.5188279993515,53.0650913771269,37.0127346166166,15.5223213407095,36.0801657132871,11.9595651351867,36.2195141996639,31.2491081048092,10.9293505016895,-2.46762405877122,-61.6891865032073,-102.839854068369,-47.5498131061024,-178.094646235293,-185.907394439065,-189.420475712925,-239.724106809746,-234.287712567537,-381.513168197195,-214.675771003808,-326.60444019852,-291.915934491726,-511.116548830442,-72.9346300398812,-344.192332964573,-132.275310390958,-91.2223209182804,-484.277144420956,98.639483429174,-257.173085102133,-179.932117196133,-177.692719976335,-301.062193616699,-45.3397780486868,-43.006005213535,-35.3861857533795,-127.095204307976,-654.946391150575,-19.4877030028005,-230.195813909425,-211.26048217934,-41.9024200000291,-145.742268289578,-66.2475204050561,-155.651646801847,-88.5279774284695,-50.9418569173804,-146.346255438715,-62.9397731698139,-124.329840765193,-240.170127056376,-168.196703690129,-110.764665863742,-191.675044983569,-94.470611672429,-178.604270153038,-134.87972709582,-140.1406567289,-114.34678810419,-70.8784826015668
-41.2129792927003,-11.2023920722952,-14.0147255745941,-23.5240869447362,-1.96066744873639,-9.91670048624697,-19.3404600449713,-41.7351131775638,-25.5624740943259,-44.2992976768862,-8.75481892889824,-33.3476989799911,-56.0615332497399,-46.2046245048282,-78.0035014903175,-148.814131138566,-67.2894945986077,-178.623497794444,-202.496959320921,-190.364580121644,-193.534667192117,-310.773698798879,-344.397800564053,-232.087505275324,-354.095590661102,-263.276693959844,-551.700423459528,-91.8829133926809,-196.62865629765,-70.2031910411549,-45.7995148786731,-456.750044656629,32.8707401912126,-115.18069385575,-177.036022279505,-91.1055203462803,-333.024035814859,-252.396803267953,-2.72024490879095,55.0023585645686,-207.435997969792,-594.368867950375,-63.8561652270301,-390.163401825503,-424.791601567523,-133.896459839076,-198.796441079727,-185.872693389358,-348.005436498428,-137.288570961603,-134.912939599436,-255.91234736924,-87.229909490227,-231.685997582858,-360.942695403863,-153.652760984095,-162.82747107016,-189.792246257939,-155.626422580239,-208.768465944969,-150.041534132769,-116.759066238912,-145.67713767414,-75.5778002682382
-73.2546900853566,-33.5019880501687,-51.299713038541,-48.5406067731306,-17.4223958266531,-47.2765864223359,-48.0191106657702,-68.8283602371777,-50.3550009042418,-65.0102542373846,-21.6116339821879,-55.5994793044531,-82.0283135053832,-59.1217883639749,-51.6491669876474,-149.840459135621,-32.3343210412554,-140.117036533596,-190.808154904684,-149.334225890672,-130.345341028815,-309.891940389714,-268.509489372968,-234.787689331388,-408.560875569133,-217.892765525502,-392.345522798486,-205.048454686029,-91.8335967318272,-64.0980865129454,35.022848444336,-320.553736089202,-121.406772343769,102.430190342341,-43.5683673954306,4.4524267158549,-360.485593704454,-465.432156159878,99.2526963424209,207.960390123534,-191.031029291226,-507.084898679947,-37.9375518738753,-482.737720534011,-637.304777721686,-175.321617910299,-142.173851861388,-257.246194535964,-436.242513142953,-125.388988398557,-206.826690768753,-310.355848218062,-108.042711680407,-288.325197549658,-381.572932756064,-80.5451678240966,-175.866199959328,-123.538687688025,-177.574600784786,-191.983906775022,-118.497468754516,-54.5731959058003,-139.796050378435,-49.825357127048
-40.4147473766489,-2.02114475664729,-24.6607246530481,-15.4344004077679,18.4101802149895,-26.6933435668658,-17.6193241661928,-31.2167120116774,-14.4336582030079,-22.7728682157082,21.4799951453986,-17.4406982158583,-33.4950102067269,-10.489178668498,8.39476039646937,-79.942014311385,51.0120693735575,-56.4388309641579,-127.415031493362,-63.4456567626048,-36.6212490038398,-211.983025672438,-151.578698528524,-168.584109143761,-460.69370302388,-59.3600916872348,-185.470530389048,-319.540247996277,83.4941280127155,-24.1418839781214,129.122922973464,-74.1831381008018,-208.520086229784,299.169912756586,211.184840835584,129.7538370953,-389.424834589091,-543.853905214284,208.631733473301,372.530636980665,-108.999822821824,-480.657995642152,59.2686527646775,-507.180599711816,-724.670504733198,-166.452799360267,11.5561669375669,-235.394508439772,-346.770457543163,-27.7546872922703,-225.54332732418,-286.797340442163,-92.1836870301474,-224.595670031134,-291.08203684218,42.3537486945577,-122.149856316079,-12.0986752253421,-139.342427597246,-112.714168613199,-39.1095429045748,37.8272412897613,-80.8426710169808,9.09738531548188
26.5560839643474,56.7251540945008,43.9623786244866,50.1344034858547,76.1852414742281,31.992391457669,51.4751166524291,39.1111577519657,56.8026718267224,50.4788667296603,86.3214636248826,52.8867004506013,53.4445848630382,71.3672057785889,92.0405251343284,36.6367618136304,154.093570043479,67.0542050106279,-8.5968316429981,62.1185238989192,105.108009093863,-41.5267811556493,17.1856142212609,-11.7280613388506,-416.217638651471,234.286454032183,-18.2807497408886,-285.681909209158,410.69453500091,109.078947127623,226.395494317897,223.286907302338,-72.9650132160426,403.254441041419,501.492071449897,262.945690943054,-358.589625367681,-373.832216281382,318.16918867732,506.717176521839,-66.082107154713,-362.043694523641,187.008193016447,-465.489873800114,-561.851395985068,-121.311777349177,161.48887135154,-160.318544144526,-193.044163791712,124.394530796551,-196.821593400385,-228.056883384121,-38.2485508124271,-87.9733141522508,-166.141455141083,181.408859292209,-38.4332412546283,100.070715499004,-68.2307414565509,-2.09347886248113,51.7353114185759,124.070121403903,5.30797033488813,71.3716613436747
107.264594375964,126.38258900769,125.46513960797,130.105666563552,150.750129968148,109.324983153158,140.803964862801,113.74378611859,144.399041193348,132.10043575144,158.77447206867,138.447800234047,148.983966479258,160.25190055838,205.850064566649,158.05147548607,278.121490407642,225.363588910159,145.408090123777,240.095694811812,281.406882326582,196.702336503819,239.991627174323,192.435382218731,-125.063956750494,569.574571432166,266.221067369056,-39.8588522024693,732.199018729002,335.009694532184,340.5975534612,460.943824500412,265.641364613942,422.211857985461,742.638020399338,382.146870205461,-168.750833044092,-15.2639387272138,439.635952099246,606.403267831075,-109.095018259,-14.9603080362539,275.897096964702,-303.223305700371,-170.790511829221,-130.40340094708,252.715349409386,-157.038721136668,-91.451846279793,258.725989893834,-174.238628744948,-149.860980866189,21.8943995065365,13.5423085807082,-49.2463729387769,301.211016987321,27.9540863479689,190.884236536141,9.71687998774968,101.121582883017,133.245121723766,189.966748392578,95.4183797979202,127.217672822833
236.626893715336,246.652774118513,244.294581340419,256.387656475452,276.421664308752,229.163364863418,271.970063879853,224.593542268928,271.37047601876,257.681967811126,280.992241021888,264.041156384627,282.758448153336,289.122034718602,360.488444958561,283.225299093226,440.578175643776,412.120122847251,329.587822577854,486.791210590769,482.7108905402,508.619225696098,523.614325832667,417.216906676851,425.854639703455,854.606656031825,743.326542353496,357.849254205346,906.917933910843,637.04000293591,506.430690070171,611.497989842173,637.575525191182,404.3422282574,895.063631682226,491.156389680179,225.625059678352,320.843995882744,561.978670321829,658.029660124332,-105.9999891059,405.912866655804,281.436429772637,-8.48029887717405,251.375048104085,-203.046901394458,370.5938960435,-193.056512784979,75.3375867361431,384.975847524913,-112.657960657233,43.5476574636242,113.85381456597,117.818157986766,137.881831760091,428.996718328768,120.81513364686,308.98305578613,129.390690769436,236.438070270132,256.874430188733,292.193330589309,226.120606686165,232.002035731833
429.292933105948,440.950265304205,423.207359657768,444.869902034729,460.562701810564,400.584056086696,452.772694426087,400.143479652228,445.033176992643,445.38765219889,467.252344411117,431.508656616954,465.711592447235,475.23081402263,534.755936157284,425.116150893846,616.987171093786,591.825829736735,526.473222781827,756.135607232836,685.714378126117,821.476196811739,824.498109007084,648.731599444911,979.643408727293,1049.92774704549,1180.17451888852,731.134496398808,981.754696921834,925.206107467051,695.471504091008,730.44963676246,892.847449031484,386.321818619257,922.834980371851,574.452471750877,692.430269749871,509.126156985027,650.491145583511,618.383082668443,94.7054763119019,666.84369928133,228.580566073378,285.726226430855,529.540177967184,-139.931535022142,573.226041422182,-33.75611664693,416.583023790406,564.191332335099,108.413502580272,397.777858611987,301.089926433266,342.926736407661,450.368682256904,615.625354704237,316.743800369999,511.14348026933,333.476028741455,466.540421776782,473.871717430949,484.111631183498,437.99844157331,428.972442956666
625.816200101672,649.709640452085,611.778080371475,637.597383823945,652.152345189099,568.66789500374,631.385007025424,593.747246486144,615.567627590657,634.85366385021,656.316323331866,585.936339724453,641.375898848613,661.086066554138,679.367751026167,575.047927334552,754.226301918369,733.487760713456,682.267125473782,956.586814017937,833.323830228117,1006.97828705228,1027.64135180206,827.589406960018,1229.49197762281,1124.55720916764,1321.34759536215,888.653106322841,995.264308861129,995.330156804481,814.364721361884,864.135396762515,994.959782763141,394.155615480751,818.236075193747,629.005865782099,1014.97980472549,633.18221955746,670.000404787898,508.767073035211,422.842614082198,760.188562387076,217.507179572186,439.750360760095,699.878100802852,206.16895205957,771.067092223664,392.234407789686,772.527921433223,766.802026446591,458.342068782133,761.758772633173,552.917402402274,656.116025894094,785.273504094031,830.753525438769,583.672772732752,754.478276757441,579.360185452773,753.626233527201,727.504920066894,716.189892536344,681.89396882693,661.799933114961
752.581925855765,783.734730391725,730.567707827477,760.113356982908,782.017841481476,671.399649906079,743.866799229784,723.02385210458,724.107801183875,751.0754462805,774.589860612817,677.531784249814,749.064293311746,776.655823279214,758.798566492078,706.261239359399,818.384291210133,835.72003389641,762.156185966825,1034.03108608373,884.433046302589,1014.87302947765,1051.34475301375,883.560779453639,1129.01112125484,1030.94497381731,1150.9121152142,827.376243014068,874.873330680213,716.175568180289,821.409319049303,965.089526733053,957.317124253364,399.355173646186,646.837197930438,682.295119459037,1108.62462032011,798.070965037798,603.973002969449,409.348271552065,630.182898148309,794.18312995448,296.693213019624,456.783795526092,883.620236286581,631.3491369307,859.442771972644,799.563993403958,937.550322073555,884.102388883219,736.16724270334,948.573279763482,753.944768617396,892.473704264973,988.281776206284,966.708278420513,800.884143048887,912.121641798661,771.793463414419,969.78843819268,883.702558175474,863.269132202946,851.198064911468,816.71106580091
777.852859776812,801.890476949967,746.772407718396,781.049969139638,802.605374907053,688.667001660704,760.054628968459,739.281720154965,743.592624237987,764.614470816563,784.5666077314,690.111687516622,763.883629799902,789.496866093994,749.582798800054,768.351222378149,775.486928696456,866.329545816216,769.5408597262,974.041934239197,830.202162777813,887.81125044435,904.832180853998,799.276019417396,838.717991288923,743.863075334559,776.044127119593,679.587131878726,605.670504354922,238.494858558567,739.850628969396,902.003835182688,789.796091068838,316.411904621752,448.870145720068,728.157051619009,1025.28315977629,939.622966029312,457.575739089964,327.098810862158,554.910593775923,777.463233889285,357.27921349695,398.317531329621,1047.36966500124,812.571512316316,821.432439150851,910.614947119338,903.870926198643,850.848411269721,820.311441950434,928.590780983173,843.853679342982,951.049235576968,1002.52733291879,944.949115821453,893.043684013747,901.738976320751,859.387505123178,1015.78111552562,868.047526795296,844.652585820337,885.87571245214,826.087510923774
720.149935037878,734.097710001706,690.843653337122,721.129825739341,728.687377785601,640.741412695904,698.392890971468,667.251782471975,689.671595656145,698.7698034964,704.472459156561,635.278873671985,704.957220029889,717.544175738196,657.367652098394,744.460703252687,620.463310908377,802.794693389226,735.497557469233,819.88994524002,713.009622526095,708.909675109379,673.193327020889,647.034853136598,515.218693100175,356.571784657246,356.618913255352,511.355362302222,332.444606940433,-100.043961001128,620.092595543156,672.017076301576,580.368072761078,175.478919818369,207.970809034836,754.099804852092,865.559083115238,961.310857570959,291.485092543368,249.098978419427,310.92181489404,727.746012485315,331.934995994016,333.470189645773,1104.92916810757,736.261462725323,700.098755568536,793.248086849965,778.938822014733,707.65826083837,781.866298197418,794.724334176591,849.281279834906,873.6879335552,881.411365047259,795.495680911204,872.259468998994,768.372871549755,846.99499053606,914.235436652531,744.415068417741,707.211373614047,814.314596515554,723.743628125976
630.893032718871,643.437535720633,614.620217425179,634.243651706425,632.513665482963,570.944845079322,613.971584179949,583.219644453961,611.233291455619,613.379935951372,604.213852678369,556.102084845211,627.194350992354,624.836064788963,552.216677301244,691.227735882373,457.405041405081,712.808202271337,711.611259717706,687.997826998531,633.560475956403,580.476024561931,479.060617339812,549.2113086486,274.878081005882,68.8449061607325,119.25201149979,363.54877336187,215.524386237745,-107.201678796559,551.798903504903,478.360452874276,452.274520795996,133.353853987537,-3.4248087730551,767.196194571023,737.179195320402,913.64121141839,202.43610415532,254.161155874964,167.538624441477,747.30963300208,335.234432889001,360.920293489496,1124.37748134154,628.608340730553,572.1035248968,666.731444162505,651.649541801855,558.778864867965,726.256743039463,650.09771755815,800.452424270187,759.819595665621,727.258366361151,626.851392408478,786.654070727176,626.15957809632,759.480927706264,775.208637017961,632.845743478384,570.080989928455,707.246160145425,605.037867164719
546.173911940937,559.060514531031,539.928320403304,553.720489162849,556.60430016482,504.508981234747,540.892159303105,524.06264872054,539.87821680219,546.717805112566,532.247608830311,487.941212851229,561.148962158027,556.408412109828,491.185561118255,640.800236066455,396.313636713646,652.565894068748,704.857546183593,630.929990767177,632.656092417083,542.265435162506,379.607779481587,541.249100719835,187.492716995883,-35.296457067544,153.233360809948,303.627837089108,233.29996596953,97.5591455099013,575.855957719378,418.506465247513,369.291681189726,217.203811330039,-48.8831924780448,699.794054670274,621.611156764848,916.329409157064,201.042475003477,359.765680553951,210.092428614671,851.456354846105,403.718813984334,488.775005577398,1199.856223768,592.039472154861,496.42469673993,598.72694450882,561.249144637381,467.556637228171,663.400025432258,548.410339024727,699.443898553999,658.407033723732,609.977445037531,512.575344935217,676.393486051488,533.204072595352,634.510426543097,661.557621685159,570.280432781797,489.863189820004,603.928415212472,524.968717368715
472.620882834714,480.592802552644,471.632035403005,482.012483422423,492.288380829103,446.620504047431,482.193999468795,470.68960254332,479.292096634392,495.344212281288,483.176893012931,438.208848640954,504.356961649408,508.40501847448,452.63954184506,575.37382823832,392.430568204498,596.563330160876,673.519178156456,587.087354185097,651.60218092561,543.817108596052,349.379973866034,558.687223666947,240.412553777245,-41.8164361225902,298.534428880126,340.287674959562,255.855036035241,308.435980453332,614.851369490126,348.000263481551,238.126055350922,300.186373468225,57.0594232352282,480.305686418812,376.636906641148,1044.10185259264,208.235349106952,405.255611944654,268.082534035484,990.061015027861,375.023562566336,617.177247177845,1292.94510749567,566.031630519592,460.941382518613,544.05093403222,502.369358784596,414.452852505501,575.290678773691,482.69100211914,567.838647518861,563.528248063272,528.243990764201,438.97964363285,563.27726170823,464.806389584525,514.769606118542,549.667675870749,511.987958920992,437.615337842899,504.978304019098,468.678897008669
436.511332731961,442.26051370443,445.757356882715,449.763140744724,462.597738181494,433.221726092814,467.938897643704,439.16268229242,461.629630667092,478.714857344087,469.054926362343,437.475693218636,490.602713500741,496.487047017324,433.298291674032,547.64317794059,371.130296434076,554.245377065313,651.369217807158,550.230222422858,684.633736761239,569.53467489734,406.206584679547,604.707221251329,384.952659497437,50.9684722626636,366.088436927697,457.936305072029,278.017394010493,476.603161741603,608.532772484444,229.697055598956,181.437629282184,338.270862249722,169.833693471803,233.623882665754,57.1115639939417,1279.97785739852,188.900314216443,281.704560378917,237.787418447163,1199.28234129249,186.903895051951,724.50077001939,1348.57866303025,548.040355048707,448.146057849248,521.026912284131,473.779987193912,386.616151649847,515.684114714449,443.202160009985,483.146738579153,496.755230784686,475.565310616126,392.668394532623,480.478283794462,413.559354365858,435.946659266404,437.29160833246,463.011378389062,405.402937381234,436.124737879631,436.625642445422
483.950491835695,495.754526849741,506.941600849291,508.789621069804,522.608118647374,513.105251496788,544.630422783865,488.689381393471,540.354027919816,547.437839003106,536.885961209926,536.927289075788,579.006387032468,572.250630506053,516.001384096988,669.262715814607,397.992705901832,619.341132930557,756.194823746116,613.03484149412,813.999546174676,674.634785913567,622.868530965199,772.833274882829,596.646887507023,350.534617570767,353.542601939033,653.343612417081,391.162396423097,631.78041953643,595.71884543131,301.791104074669,405.391379712522,403.474597149567,265.473285276667,171.423868090755,2.65644974341316,1497.62524354556,190.418806294348,130.760764501007,274.721104970534,1503.76399548831,31.9877464703006,904.035975823519,1396.01145574081,618.5851861951,511.788765835722,597.953076135979,522.252430564239,439.482351024509,564.513396823876,471.70872287012,519.461404746771,516.724013329526,493.281521388138,422.732980609747,469.928322285112,432.909140230559,417.297191830433,386.13739681204,502.966902111756,441.158089118078,449.226778471939,476.582990853186
573.599241613143,594.443222888627,606.132546074686,615.227486453021,629.301866086235,635.428330328039,662.720171553173,588.544502662361,671.502579480213,664.746740603721,651.287144924764,692.13854034621,724.51245816056,701.053818976815,721.633184290632,898.319035997522,510.377037748724,812.095036651224,973.149684064073,766.35271981942,1019.25774864852,825.040936477065,951.756870127921,1031.69761685705,827.183743139384,759.808282052937,383.238389659921,823.428043659357,593.419019185615,734.862721131306,595.499351761327,670.212016031119,823.572219207569,512.821817019221,428.051354011948,300.409024012205,368.06602943764,1555.42017089178,250.109182471751,120.550345613567,515.329622623188,1771.97676468812,57.2385935305565,1159.26298490335,1434.08454934324,733.023179299377,655.588368783879,718.692169125278,649.084873385877,569.807762485612,669.548420414691,568.735370647086,608.183564809367,581.713558881367,564.386941955685,520.535694122312,477.526536198605,512.490921406793,413.579210961057,395.715230456647,612.890282520306,530.235344017919,507.960016441835,565.402896214838
568.840473621155,593.226179027049,604.740311967954,622.231900696689,631.088489095084,651.446596618266,673.191293180466,593.467383926772,699.989225621568,682.367505329551,665.094196177216,742.659460043597,760.123850367786,725.677734613015,877.210380024557,994.660383563387,570.019559654694,954.903868602388,1072.53348146861,831.026399509359,1111.9394503511,852.970698962386,1169.33206907406,1160.67337830843,947.62990810566,988.019112678145,492.099872109258,811.12079414042,779.309904232516,727.702744351194,565.862518980652,1022.62942358164,1088.63411337652,582.767461569701,583.608082975709,436.668474591089,825.42448232865,1400.91043384997,310.349370294309,147.812641037679,777.590757282707,1804.70315873548,111.644400737396,1299.54134633932,1352.62061861137,706.790968243704,714.21310526576,703.175960032157,722.658342926821,623.434050860209,648.636827044624,606.468420083717,561.865509397444,522.423023621386,551.907793640387,547.047980884953,363.780693159992,521.730216705367,335.44010325022,356.02169298647,628.153074776476,552.685412983418,480.575247141712,574.984884949404
429.469611322461,446.353325870588,461.80510173245,477.566559877676,476.230763811168,512.868997268881,523.475040667741,446.470593232192,561.364616421953,536.474119616886,514.880902629188,609.005693626274,606.66289555211,571.088481813521,801.17259217656,826.579277789884,482.585602855914,862.087569746434,905.099867980053,698.287506613249,967.846804860554,693.400017434976,1103.67546129702,1018.25096877754,882.122976057081,931.71002657045,596.609857002561,647.258471046843,847.763582418293,632.658323657335,510.662091051913,1036.95757006655,1023.04529827858,553.4847916671,551.969176994273,466.66485276534,1001.69074556655,1090.3975647019,277.143524629192,13.9771708084376,815.726539046098,1549.10132793321,15.0752776529343,1193.04722786268,1093.25398023625,510.087868798258,550.754248713607,514.830611753753,630.08302408412,481.447735622333,446.928044725508,485.019762709398,331.968123830913,288.284341242146,397.036055986209,418.920681689074,131.494985927204,396.552632274577,193.935717657516,226.692322736415,485.394578628344,447.216541632062,335.251013657761,456.860421878076
277.113919786926,282.080482663485,299.252274488789,304.816109160736,300.253475181501,345.331942765832,338.080804753976,274.592382522126,374.587773873663,347.52405520507,327.787941021606,398.630606883709,386.339670524861,366.590997468849,551.872903459152,553.812503842536,344.974608376889,603.616593450433,625.950508256018,482.81846042802,702.232442630134,504.09629259339,838.673022649836,739.148594525257,745.653015713546,778.833299772142,643.674381231046,553.00316902859,791.124199696404,534.640155641991,498.157696557416,825.931765952545,799.559655732006,480.389379924926,385.479329146633,457.831864511746,947.553597588984,780.124123834557,186.661020958437,-183.55875827406,719.209620537929,1175.81182268795,-102.647490967587,1002.6941165478,790.2809567936,339.450527047184,275.481934785186,335.644883118862,439.644205121253,241.906619123313,235.075402518075,295.392517969979,91.6031933959306,76.5636826109854,241.501228135168,241.672711051585,-22.2257484023834,251.610476824085,108.792485610701,120.643875487651,327.799672992831,302.576017830843,197.420988043196,321.703091404042
192.723763772801,196.762214289122,202.650077883797,204.516421346925,210.793197316561,243.330223600625,220.493656173577,181.928238102457,242.808966612287,223.274579845598,220.588169375607,226.420482524512,224.424583512929,239.227054058407,308.111320729978,355.334819649193,241.404626674339,371.988377664689,435.20724127101,314.963794209974,489.101838745689,399.145973453737,579.965175409419,526.726346637438,665.365881660849,699.490791434982,649.477101769459,621.496897018346,693.759287652794,512.071975729872,541.901442005347,675.788153858059,633.555012939228,465.455494027796,328.566056053906,496.906219650375,888.92612851758,595.677736707515,188.493605155601,-163.146994590724,697.15768380975,874.708560699607,-21.5270034512778,920.790973923265,598.391004910839,300.974323391873,78.3550614479064,276.507269981876,271.881294961739,73.4862485950397,153.39132771932,174.903215441428,-13.0491472632212,55.823278078569,198.155984795568,137.730762760634,8.77506202280179,190.415732352139,109.692075489525,105.976092113455,258.936389954664,209.39745719441,140.43881273339,252.931689850761
103.279917733702,118.074939953962,105.542837673947,114.612004008734,129.360315858186,143.595780791496,113.101545531205,96.6163971335106,113.356802125662,104.066809106871,127.093400220694,72.1149577149893,78.7863551937171,127.630928677454,105.441652341218,182.240396059059,117.186552788768,182.115826395882,277.852310889749,156.243174576081,315.314776899716,271.945365081856,381.489556364968,361.435558165414,568.743678882077,630.939202219579,601.723637871738,669.183478845233,587.109893810561,552.429916811239,536.987938321095,581.932417072885,488.439675171577,504.336990506755,406.013376766059,510.95298067589,795.786272364657,442.558793719355,282.995517635094,61.4725499860613,667.29550869933,614.753333051212,165.303952111127,828.562712590263,450.142830380174,261.254868446866,-48.9290684464429,219.727981426015,106.039308034718,-30.2446840789719,123.901077190917,89.2352889268094,-37.7958712956661,104.278190519421,159.732534674899,57.1278158559793,70.0558813385592,137.164732094672,71.1757558911918,78.818564837864,187.629610494468,129.215357733014,81.7479956746585,185.054141422731
-48.8318787176672,-32.6358524430228,-48.0419692901618,-37.8668706621619,-33.5068351248205,-10.1076598848493,-49.8877721931259,-60.5875816005438,-62.4760234863987,-78.0858589402771,-40.7774268972605,-96.271421457594,-113.530571142626,-54.7696240648265,-97.7549157938371,-51.0494682488628,-44.4508876047037,-45.1209808260508,28.013750959335,-41.2862772445213,87.3265065329061,44.972944829808,168.830124921981,118.346879619368,347.41189985422,457.528832465436,471.750387701964,526.982872266086,416.218514418842,541.089825201199,402.870661607481,382.97907269618,243.015680194469,485.885180790437,408.127386263974,390.433623497162,544.684834605434,151.728404531432,296.949785659696,209.692417673363,462.192156681665,276.565378241297,208.352009042222,541.392492602979,188.180389139502,87.5079506529318,-218.436124178049,41.8688087246192,-116.603054516812,-180.72350828245,10.5484492929787,-64.6772018755078,-108.091278666637,14.2772088762363,-5.98637714907833,-110.490208725965,-16.8510333371981,-17.8818390284432,-84.2146578221683,-56.1502855022118,16.679034228602,-8.37496475512377,-52.2126991351195,45.8434539098539
-188.008181388269,-191.208937076381,-189.082907292331,-193.127380409043,-203.734192449048,-145.335715172773,-202.29506308011,-219.286507074846,-205.142353591447,-247.264441216282,-214.898933547219,-218.552304466034,-281.475683344639,-235.163774046723,-249.960394726686,-266.106463007605,-145.015984883384,-261.159747353017,-241.01441980956,-202.812503867795,-155.517471447877,-171.28502404453,-47.2160244744096,-157.401178713576,74.1129400306703,227.769566014126,305.821349600299,287.609260672458,197.366755793953,416.284872984546,216.22124772031,125.027090108293,-29.7694299355178,362.559160108771,280.334932008535,195.625988241464,242.17898910081,-205.33233387114,190.029509165911,200.030671768605,186.43457793061,-75.2238424185523,113.11078206949,173.951484362518,-138.694672295016,-151.906977511054,-381.955189620802,-184.081421625807,-306.401248226475,-351.092543085124,-168.18824526177,-237.780511407774,-231.824461509336,-182.947724386167,-228.397095909605,-324.377018530591,-202.283109008933,-227.511214947722,-266.009169503761,-231.730274363981,-193.662456115718,-173.907099250034,-210.124293164492,-113.842964538288
-263.265594083173,-287.467188358646,-266.303066244013,-287.277239174598,-299.167363265431,-214.171184498367,-285.931547601947,-310.325442789507,-267.174054603264,-334.217795811533,-316.214775744227,-269.609201398022,-361.182370655651,-333.244664599108,-321.69312797041,-395.233842603113,-165.456134444894,-404.307455260123,-423.616465980271,-293.616133628382,-352.63540865592,-305.392100870707,-213.806962339996,-362.034546657975,-140.393607423219,21.2954590056082,154.117340152324,89.9858031728448,-3.18934435273447,225.8472526981,49.506887933392,-70.0848639196758,-210.400940646804,182.187226188823,129.424174387392,17.0238755755707,29.8322611052934,-457.126272652568,71.1445856406507,146.113380502048,-7.42601768960153,-325.614348738408,17.6172133295107,-93.6633276086856,-386.093726412344,-326.215677288072,-431.474056828682,-329.113446200478,-369.896627402516,-442.467002422437,-311.603059035043,-335.305285901354,-335.57469671705,-326.312533207235,-378.899109360864,-470.621528894538,-346.803154861136,-387.930956608395,-393.041813753376,-365.807051731666,-361.703132230287,-311.64977463285,-335.037646038873,-230.808381148047
-332.932071137249,-360.570766428329,-327.80565462441,-356.764662983868,-366.235748201612,-277.333956054688,-350.921246208735,-378.827659284557,-319.943977428037,-391.52255668816,-388.22879192821,-320.871033950972,-411.394629563186,-400.997976800924,-388.878058844535,-502.460338799742,-204.966799405826,-525.584427200316,-572.845630704217,-387.38221319188,-550.343791086171,-428.57337596997,-368.323729171933,-532.343668515605,-316.375588174778,-204.795012069039,-19.616919020929,-96.1494464889496,-201.791353458306,8.72044327095596,-158.397829610605,-243.549375655853,-344.849421854169,-8.23980018141346,-37.0456901016904,-186.101463082656,-145.847571532628,-638.355985560173,-41.7414227109417,53.987004799538,-177.083655797603,-525.456609796548,-98.2518726915964,-312.566594010013,-569.78301333022,-417.038047630861,-419.501760667232,-390.314078897693,-382.021790152938,-481.435538117259,-397.37399903494,-392.940525433066,-392.286384959871,-389.594803747622,-459.890478092667,-540.454589672245,-434.371098896028,-482.987412116013,-505.963100206249,-480.271649274336,-493.81714585515,-426.053460606347,-445.305136114789,-322.877089756865
-407.619814136765,-427.643299356559,-391.102185348001,-415.916550929017,-433.389895674648,-351.560691867481,-415.411622367088,-440.298958048781,-390.46565258901,-448.361620512556,-458.144687518705,-393.506323991204,-471.294065773896,-472.818661208217,-468.476391113626,-606.021903271253,-276.414331744624,-639.10447019774,-724.047275689315,-501.944488796161,-747.736555979439,-563.836248020367,-533.51503290178,-710.77995255049,-486.707275047059,-472.788354187222,-226.555532622668,-311.084110088656,-422.619204834438,-215.027492173744,-427.340716345178,-443.943483885079,-477.718752007724,-158.154009751974,-234.623836769665,-416.241831816359,-331.435582846086,-841.414393061305,-174.19292009243,-92.2793621995252,-372.611385552075,-734.038532871734,-259.887662159913,-548.748252932269,-752.252738320502,-450.357193439588,-432.985437463151,-420.927438035611,-415.666003684178,-531.19284378882,-445.545193801174,-457.506505396062,-409.17869688783,-429.084172601058,-507.066893930451,-573.732718059978,-492.717578530957,-520.490485063786,-618.624024423155,-578.220013504607,-585.349617186328,-512.319919691366,-538.831077665114,-397.248491580595
-412.016525484062,-425.947859916511,-400.880023538195,-410.17034731366,-439.730737114693,-368.263973900104,-419.827205115039,-434.629828636548,-410.268848232599,-451.011480224279,-469.988839878104,-419.187566508679,-489.256245007167,-491.68593247029,-487.154850042873,-630.544459386155,-290.758866725187,-675.426884129351,-789.253032912919,-575.294867371153,-845.970107900361,-636.724585341652,-647.702273726394,-831.119472689523,-602.89133361608,-684.643538258627,-384.737548684964,-492.977570211286,-618.068778201715,-392.330814008922,-664.276920966781,-617.680436198844,-545.879221955757,-224.928649286477,-392.230888609287,-568.65116338312,-460.56855087389,-1010.70831280074,-281.159529278263,-212.651565946712,-518.753730730912,-900.839611430858,-388.844620533543,-728.145613125509,-902.390650588597,-423.616176423434,-455.179441447849,-432.217699082388,-423.557577106666,-576.415422149015,-444.87452405923,-492.811594066341,-368.561979456354,-445.640211754684,-511.025905559419,-575.446876262092,-486.404911399594,-500.006949320938,-655.009536913902,-607.661955560838,-611.268878020967,-539.842916836586,-567.308762138368,-424.111064871
-322.581865966872,-333.947663107471,-330.774536154858,-322.471725612672,-356.897748628431,-303.277333895068,-346.327895144964,-346.888623182836,-350.019872818825,-379.987290592196,-399.237731185865,-366.46232718491,-432.018652454133,-432.228161392026,-428.59441417485,-558.320942919134,-223.019941285509,-616.338271080152,-722.041422055988,-575.155757056176,-808.178472062213,-610.022464423667,-667.924874425339,-838.428929219726,-613.262384265579,-744.17683876602,-429.721534117963,-587.384669323057,-722.064831463543,-468.361663562492,-801.530684619188,-720.613500681829,-532.898311758442,-223.589760249413,-475.189122707195,-591.624831755091,-505.619609829997,-1077.94251084454,-333.24900602808,-268.501940141758,-577.500185498076,-974.869102348814,-451.920049219851,-798.143981536037,-982.911973539165,-328.290241228953,-451.564889553605,-394.057890769317,-365.246697020368,-583.38306661149,-368.464884715093,-464.471830182936,-242.684073973964,-405.329561112186,-468.768778847529,-536.006686901417,-380.073689575568,-446.831249821588,-558.261055799794,-556.035308176371,-597.32250737937,-496.203586178265,-509.087425522176,-396.919728889577
-196.994314627204,-205.60988531098,-219.71423210588,-200.603505023826,-232.162362284728,-210.259324136074,-241.67893091942,-226.420823332255,-260.349253637366,-277.871632569359,-290.75981983229,-282.441152097663,-333.183284342973,-333.590222291247,-346.51567318478,-445.921037818392,-136.137271046332,-505.126863700289,-582.274802375561,-503.355432833018,-688.648924343877,-517.167638491918,-601.74423296778,-758.626360171238,-517.823491120232,-652.557509027099,-371.526022506334,-584.532674260591,-684.877759637657,-421.970397649653,-826.562237292093,-713.992862321602,-487.804481251416,-179.288655522419,-500.975599527799,-509.331696757638,-475.549615092637,-1063.57470285075,-335.453009667865,-264.476611808537,-554.109156960656,-926.154157725997,-439.745807359704,-761.098285511452,-976.507235808223,-142.47197761824,-403.52646480572,-248.774162782977,-246.815407583644,-533.891451432074,-195.953667655974,-363.604372216048,-45.6571067711969,-285.185800565049,-367.792903091249,-434.157626946645,-195.656000130578,-358.717126979886,-344.714757979069,-436.338241388217,-553.650926109464,-369.668939686231,-377.14269182399,-317.561923851849
-99.2823884246283,-101.124035257441,-127.380039207195,-104.044404975784,-130.312223335953,-144.844257925291,-155.540949850625,-127.961076466069,-192.458484509739,-189.877523288228,-205.427755962448,-222.152561524694,-244.852354349609,-240.852638822271,-279.886782491646,-339.034201734146,-93.5487848838025,-381.705089776933,-443.224133700492,-386.179026611466,-544.919043578195,-415.36523057934,-475.431324464663,-649.137635426604,-373.873270278548,-492.118734203365,-253.254252269683,-507.683249278962,-529.811773532347,-303.681958369107,-757.492554932176,-562.644035031576,-438.627959108008,-108.620460411423,-465.203889710868,-375.241976181696,-359.508580710848,-1003.54005673021,-282.03360748297,-182.219579368033,-440.767869899093,-749.292510951667,-323.141479087363,-624.300766217086,-874.268009838795,128.244658945261,-314.268793648739,16.0727058124141,-82.6176998039015,-454.475523885706,46.5219046824915,-224.642153756113,140.699415190857,-105.033150773163,-199.340575227941,-291.125944180613,-7.06349670776315,-223.427306889129,-94.2163844406195,-270.804158039424,-441.135062239843,-184.195482933713,-211.909378698525,-203.466448545942
-56.0278380522918,-50.3749103724228,-85.6656853897131,-65.2715583667852,-85.9462033414274,-116.333888506849,-113.254542226752,-80.8914532114865,-153.141510013772,-139.548066591756,-176.402186072463,-188.139769996095,-190.683366926004,-188.306108113055,-232.164636347605,-256.707103805895,-95.8376709111311,-278.217281357181,-346.648426962528,-279.142548032913,-416.557113055767,-342.398767800242,-338.782724975217,-551.991756776563,-264.228531462944,-363.238970619769,-124.558751167573,-437.263741754138,-385.959269513625,-229.797300622698,-661.232431634117,-346.562210920601,-415.100490959348,-60.4641776753376,-381.03470332166,-281.60767569452,-202.508964792702,-916.386234421797,-201.588697597057,-66.0561952458066,-276.956238779369,-540.130453785016,-162.240969828171,-444.595364452387,-723.412591146657,402.285543201018,-281.197785958967,307.340356673765,47.3927426490226,-445.84250462235,269.269634473363,-177.185860689095,232.722080614658,63.2572343372585,-35.2647804539678,-216.985182222808,106.557818908976,-119.71658532592,88.4491814639685,-122.143272930871,-287.401560450651,-47.3224894139563,-81.9752324771216,-131.431271101866
-54.6916573027269,-50.5020112203753,-82.5825003543868,-73.2606659824819,-88.0087524508418,-106.118637398794,-108.868546457448,-75.7257164925462,-130.107521639298,-125.650738676342,-191.85037779786,-149.154715615648,-160.041763643014,-190.211327659484,-191.824850846617,-203.362930562381,-89.5723207449514,-208.180824642647,-303.988348128066,-207.859684506363,-330.805410864768,-280.462787105689,-244.172572591983,-471.65943183953,-214.360921244184,-301.774254261544,-30.6582785114789,-428.8443345858,-351.162777671682,-252.798193199409,-598.505321436322,-209.778922558734,-450.590929412323,-78.4848571212754,-303.145751975262,-280.744526932788,-103.542228041452,-800.799804578501,-160.269331109076,-25.6326788233825,-143.923777867286,-443.231620493449,-77.154137436052,-301.685353420257,-586.9116479543,565.209945644201,-408.208481634821,479.584489141766,6.92473641032788,-536.101602514319,380.278177139834,-308.42155548487,226.928523560067,155.100899477394,20.2717721473887,-279.530974325757,139.191709494811,-149.90722457843,151.589209575922,-33.4039801292134,-212.326725983119,-63.8215407479504,-32.1788573483046,-176.958471610538
-69.6279826562261,-77.0679598620854,-92.7065338888803,-94.9419129787107,-106.483395300401,-104.327265177765,-116.159406749844,-85.0606554732704,-118.87477099126,-128.771543362556,-220.183245835057,-103.378872635941,-135.876538563834,-222.316334209718,-146.774402247168,-164.811286380559,-57.9623234476178,-152.789281199887,-288.287051625291,-157.352111419801,-284.842563547469,-202.50977534218,-200.755549108914,-387.485987097655,-170.058722590891,-258.894762468746,2.72670308335761,-410.396683950926,-377.872628809022,-294.093488376681,-555.351572744694,-186.222154635177,-529.873110767047,-145.762179519652,-263.537318179097,-313.552370541666,-98.7276166897647,-620.658323200449,-175.600184597272,-99.4924627737771,-75.9986070446928,-486.683888635523,-82.8738975082367,-208.563637326801,-461.068559533936,521.217024732092,-571.76122716703,433.546758767598,-179.719395858183,-544.538298399787,335.857742273482,-447.816419726341,163.629456987084,144.197215596933,-32.4800205763273,-371.677925398096,136.393243132357,-263.833498686255,127.215411314299,16.1957769766731,-264.559644859471,-218.635555292262,-44.4297076043744,-309.178072262645
-88.302153095114,-108.771746766242,-110.250048113169,-113.259884469039,-125.966634137597,-111.223436403693,-121.327435461107,-98.4801923812156,-117.866355096639,-132.84923878675,-244.302298614442,-75.5685330347252,-113.302172355705,-242.675655206862,-87.3970234657265,-122.908357802459,-54.9976620725742,-90.2211125774471,-257.369640748935,-128.626846637894,-250.745162986569,-143.272588266169,-176.991083161707,-296.216901543321,-79.4363952323563,-196.084998783272,-19.3115271470045,-284.345439228953,-384.965298462247,-275.637159810045,-489.599971641631,-212.582766983125,-607.074006172365,-216.56423950666,-247.533347317506,-309.320486704412,-145.581101496988,-355.066693387501,-203.246402426335,-216.7138824305,-40.9433668601158,-545.820429935911,-76.3474416298282,-115.582684402002,-300.728604207847,281.783828874108,-506.210808638072,220.157480061278,-234.023441603042,-310.687284038763,162.609110249355,-315.775887218361,57.6677398830411,21.6838924972931,-74.9488064884365,-327.693421019345,95.0236530778486,-288.963709852084,85.321819609348,50.0530663275895,-325.16182079011,-380.88726929939,-64.8604208431591,-410.584374543128
-111.222759842357,-140.277630153763,-143.078947795398,-132.786412159755,-146.730561748409,-125.733601565525,-133.73747945431,-120.468554644235,-127.367394282484,-136.211769002974,-261.207217965349,-70.060985193952,-99.9168866145489,-239.362708134334,-27.5778882353902,-86.5494293119434,-130.2466878396,-27.385940600122,-203.420198224577,-136.268441181661,-215.086468266635,-154.581255698566,-156.467301560942,-227.46426397358,31.0356414944606,-165.546467917727,-74.6696167967494,-100.86185118731,-400.276890632539,-231.56798146149,-415.268237815101,-280.588632316827,-665.648756693793,-275.394830121663,-250.424851411492,-300.710974658551,-235.007774419141,-72.5271370487967,-221.334529892641,-298.914127672026,-7.49801856433511,-510.534075389167,-4.01698304719054,2.39966961508198,-122.557904136797,32.8085202364266,-232.658542079563,12.8288757150578,4.05299681074776,25.1983997607623,-27.2795799147547,73.5297571972757,-79.0993943373835,-169.89393442691,-14.2253634602529,-149.67009569243,-2.17822543118773,-162.211689632726,82.1788623288764,60.7248325008445,-260.663941838195,-434.274404304731,-52.000296658357,-414.450062808854
-130.515233156344,-161.712444353446,-176.660294167606,-149.011923919568,-160.138260610666,-139.953299480322,-151.734220065081,-137.872652748004,-141.200280498288,-132.474383621455,-257.368793676255,-66.7026276391595,-96.2611869771438,-223.353074950232,-7.93130462993409,-69.3851236387648,-267.278240407601,20.6155547427431,-145.037857720478,-162.843209842367,-181.168374953109,-219.572124735904,-157.221685156068,-197.572646366661,81.3800046554663,-229.765491526047,-159.539068660619,-6.3639827613534,-491.766019869903,-227.88448426183,-375.210281960938,-431.446974568763,-738.025978332965,-319.397546970525,-289.450651301505,-352.591026898326,-419.137861392589,106.891007255212,-241.051741338471,-339.379652166561,25.9573852078458,-431.730328018528,71.4911456814832,101.425268281405,-27.1522892784417,-43.2259455953436,-95.1422494091982,-114.078915169087,246.492240607079,229.412990850025,-111.545759782581,415.586368562637,-213.089826589174,-313.753109393879,116.120818346754,14.7968314736216,-100.782322857068,3.83957519426525,130.851111481463,52.5330953640633,-81.0670076027418,-377.271091869513,2.93435801241934,-354.588800549141
-127.930791872205,-155.428412235775,-177.303719299172,-143.636826064559,-148.68397298256,-136.485035982743,-151.560629542692,-123.262213698417,-135.707602427351,-108.214351523364,-215.679437315337,-37.9390113719768,-80.9038391282672,-194.040553490848,-22.7151021739895,-47.2393594132587,-385.684318600511,62.2404992666472,-92.1285675849296,-172.526858655225,-145.860041149413,-280.412824738374,-193.455718528865,-184.202830618283,10.8799417311814,-361.287196368565,-294.309389635871,-67.0850223812924,-624.775156644506,-274.50017975824,-370.576604306148,-620.989066074123,-853.92081705052,-324.472647242561,-347.454226235649,-432.970584921959,-701.613729885889,130.173396811547,-246.722820216298,-360.888292548607,69.7669729164596,-423.943135786995,121.139215915583,127.496003790746,-71.9931530125746,18.8501705911845,-253.446221421526,-216.433538334265,117.159465939674,301.925053065744,-77.4073170445025,519.334649481663,-323.623591857099,-320.351607024694,223.156025798359,101.865005258389,-158.539161882475,106.000412917438,192.740785781426,60.9560603024544,126.623628706578,-262.635594631661,76.865422449403,-267.713509721846
-112.011406484303,-137.823033950851,-151.854021382543,-130.820783898389,-131.42577285824,-112.007927912569,-135.714621742736,-90.3951877483853,-104.435952545481,-79.6755675763523,-162.459424860186,27.6753904676565,-46.2562553430517,-162.527840780035,-1.09167015362012,1.47412444136477,-409.555075728097,105.640629656591,-59.0768683356784,-162.220903936061,-119.480066229602,-322.479141060459,-268.906461498132,-185.394370776066,-187.387224707872,-516.823283357534,-484.538558393359,-241.404197271718,-695.014499685973,-361.090249498186,-381.529643513952,-735.253542703204,-947.527086883234,-301.332553905634,-380.928928386826,-455.745630311397,-985.047362261779,58.5423912337506,-221.806334789782,-338.380393707161,124.404023041669,-467.399817437288,218.409462989651,91.0395813048051,-179.544954454529,83.0840185013147,-431.699170992748,-250.032281207276,-293.026665494913,359.708185704807,-1.14822905529254,440.931885512658,-395.315072439551,-212.303594174976,236.273021711754,153.163924258241,-205.261986164559,132.913275357917,222.73586082719,106.666307636814,287.083584889911,-122.970776945681,122.780542017479,-160.207790231646
-127.331136861138,-157.77006854899,-149.962228061392,-154.646862802543,-159.144166702472,-96.9792383973442,-139.734974735103,-95.6099252762042,-80.4071771576848,-85.4807496325185,-152.870131484902,91.1701664881276,-26.3875109384146,-163.446932706488,70.0743072338893,40.8953115255063,-353.696049057171,122.309335620137,-66.5422559262386,-168.606577691242,-132.246683535085,-371.107948126856,-395.528104586065,-245.727170119165,-453.211775168831,-729.888777320463,-686.004508667915,-458.61550743239,-662.114080811125,-476.248927612961,-399.853442156991,-736.182007580082,-895.429283559369,-318.695312920561,-382.120448112061,-412.149416682697,-1154.4734075556,-12.7976566244292,-199.980678506758,-244.44314795517,126.307062301852,-443.22779373317,373.577088745871,41.5966417539315,-249.087022513815,90.0798043183117,-324.405126994373,-154.219525216337,-568.873165498079,353.657309298198,31.0344449763782,236.66239087392,-437.463978202261,-84.9286522656921,98.7687305475559,129.650738764689,-231.683481338179,47.6394504986209,217.235306998614,152.419435631733,319.882436764886,-7.43229257423879,103.441813272329,-76.6720484545373
-206.426713569319,-240.76123936819,-200.406928217554,-230.702392842615,-250.336338834394,-128.246169158493,-185.78024619951,-169.721342253393,-107.844279866225,-143.542806540944,-204.829106768532,73.7540342672243,-69.8660410958576,-221.485988656877,83.6386526792171,-4.2931475029054,-296.456088887116,41.1212722161802,-125.666706655771,-243.69243864572,-210.995956132439,-437.876633806938,-574.482803257044,-382.849751363445,-678.588528455826,-995.80227384354,-825.347597328594,-655.040310094103,-580.109425252874,-586.618229062834,-419.125816117526,-703.514073006718,-711.304791354689,-408.274819469471,-383.988077396677,-385.930189312177,-1184.62975246288,-92.4573715342083,-225.096068280633,-160.705356230859,-2.48619978234201,-357.76277584576,439.53472301816,-17.6518665316086,-316.335688000775,-43.5566254960217,-69.7653753710523,-160.390444582429,-621.898788075509,104.586367033968,-95.8151387909741,-177.320485035864,-567.46588047511,-54.3851555323179,-215.746456736647,-81.5683341011829,-211.89788286188,-213.912807735415,164.528589776466,99.9318553610687,196.406331468777,10.5813891796208,12.8986296297976,-79.5162128790753
-324.129534153801,-357.247840037764,-284.83950749491,-330.229441702012,-367.715337894537,-203.857200026407,-267.810719038696,-280.21328307886,-202.807626131168,-239.505052186089,-284.612737419646,-55.2682529042031,-191.165606024638,-328.366978255429,-42.6701894636074,-174.615243200783,-276.259343574951,-183.32753597487,-239.324120803777,-397.838960781439,-352.823931884614,-499.078575276829,-740.678296037908,-528.418646163243,-769.138203106642,-1123.49056341423,-858.369316771982,-751.540090466014,-508.153707500047,-633.497023111936,-426.800668263813,-717.553523128639,-550.937878777368,-510.083823851116,-397.630608344129,-435.965244281963,-1132.75936937349,-279.633285685107,-280.397930947364,-189.947811803247,-211.46617476341,-329.491550288101,320.020183956539,-102.143698744115,-484.543167341587,-467.629711639972,29.685077808574,-560.846272095453,-766.858938888714,-323.141643162283,-454.489812693229,-769.519815461856,-852.151828656285,-186.456855162693,-623.511379855114,-407.436585370147,-230.913645617458,-540.370295994658,32.0957888031319,-111.805965401657,38.8416338706584,-60.5772762207552,-125.652638247902,-142.395177885742
-402.672982698445,-432.231308932892,-350.778000650487,-396.321191946164,-436.56758698109,-271.12245045081,-344.081926522979,-348.156484043973,-312.5119300291,-320.527189949347,-323.704594793372,-211.573134695297,-329.52187637571,-417.872835163869,-221.124922788034,-395.718828941426,-264.321707836122,-447.190554710307,-371.916334139611,-539.513600383722,-489.072258112157,-504.398876859863,-768.149091414205,-583.85088912569,-687.310754610746,-921.736671172655,-788.955704587581,-671.79354275677,-435.997152447421,-530.918095636503,-392.328427373764,-735.823308600243,-475.86412664511,-534.520099335925,-368.964717437682,-497.493993359609,-1024.13315023171,-568.128457887797,-291.473536545258,-259.32602038868,-291.487179352015,-364.875575410191,165.185694746945,-150.861283145814,-727.146101678696,-1136.58363131709,80.1952563657737,-1228.47900242433,-1075.20641924029,-497.929794462806,-917.467666101593,-1168.71452880495,-1083.47681499382,-410.035023239197,-913.497426148748,-526.205634441844,-372.441251348973,-624.551287904343,-121.751151558595,-348.936431118125,18.4186618229036,-83.5446278038883,-240.480511546687,-146.254335145562
-388.237183151915,-418.239481308359,-355.14586335434,-388.556061391288,-413.073621705625,-283.138191818102,-358.552330077279,-327.187635207539,-353.182341384102,-330.424297736964,-274.973938740553,-285.332306408957,-395.279553158192,-408.456478015312,-303.260769544534,-531.131243456152,-214.164558461231,-573.241827627048,-456.626009110934,-562.523732169273,-548.290655618938,-431.948844861098,-625.852733670339,-537.91654826142,-483.552480448677,-515.153477258312,-629.6650087895,-459.711004901947,-345.671986816471,-270.46215338639,-302.736096829038,-665.402012080637,-421.903094436691,-451.832565259028,-254.569974787271,-469.506925910557,-844.893285473669,-819.910417577434,-223.36303689353,-223.246162200627,-131.677779889116,-395.041591924047,153.734984863255,-119.366504327852,-923.49750888592,-1680.72523850815,284.739165546589,-1768.06875694044,-1215.30013937173,-192.702717683276,-1269.3123644045,-1052.24161712179,-1056.60355485855,-602.245145045701,-890.152747357245,-254.969844651043,-566.783193808588,-332.3058773427,-184.262279550024,-394.945538110658,139.980897294442,40.5766617090543,-256.316162726566,-31.6210902839053
-330.685146666177,-374.561126503822,-324.729487207785,-347.426557351444,-364.58027303312,-266.216184691553,-326.013240685487,-279.033107225861,-329.420582227748,-293.831408116767,-191.83282291623,-283.940369893251,-385.751869699212,-323.495677288656,-283.463451112742,-545.196733446354,-127.700268956024,-555.148986044282,-490.06898912319,-503.703945325468,-570.913458839749,-343.277206518291,-465.151215006613,-479.839037194968,-290.996887369152,-215.388489931731,-405.529226630075,-280.726770487428,-299.89935429952,-35.7446506715266,-225.072158768299,-548.260870543564,-369.944699915949,-323.692800840479,-119.835183100457,-384.359392435789,-656.316862167102,-962.472546377516,-140.009934035761,-127.391160030785,47.752267915495,-457.799073692023,191.32237484015,-119.923149044037,-1045.04989569908,-1766.96514163897,440.366236513726,-1948.53759710457,-1017.69931527729,236.621174593237,-1436.33608911579,-576.557623057588,-899.299087056493,-710.526924033886,-577.015913788023,171.820293867266,-662.83017683546,68.9463573004865,-169.134545771839,-254.379027671363,236.02854214802,206.101748958542,-208.489430580615,94.0949994486872
-331.690637625252,-400.874884167359,-332.6007794412,-356.985983419786,-400.570407985013,-284.57219576651,-329.26312007324,-298.712071697788,-331.745645525456,-294.611439315364,-173.121060173792,-302.702938754522,-380.665210847399,-272.985010581757,-275.799771366348,-515.037258297459,-80.71819253045,-536.781728556403,-533.150938350424,-498.653848257761,-633.801128165593,-335.662284104232,-433.450259076868,-479.887987000613,-228.431035083454,-136.597122827611,-225.312990945906,-234.585251325749,-363.475012195969,-28.8094454638279,-247.55049430191,-504.932079563602,-324.209571128451,-250.406000262991,-75.8853064214025,-354.940071378306,-539.704830474964,-1049.04625413316,-121.194673076361,-139.999539717234,-23.9386338402064,-619.481875860126,92.0668374331704,-271.596730040121,-1144.35633621763,-1527.65238575634,365.403898071887,-1745.88688301498,-651.668237566877,382.42964149176,-1438.06803566032,-114.600988677988,-787.544953126115,-698.062425237417,-222.744449720219,404.860273537636,-572.466124338833,236.033929531528,-178.927091505692,-133.644001300293,169.681465045367,233.044471353529,-213.484593150933,81.7059265590123
-402.373583200443,-489.541581275106,-392.023186884591,-424.965653841457,-509.26154815736,-346.006722026114,-391.879083941326,-375.990102550829,-393.450030145287,-349.990906590869,-226.340718508423,-377.442954467102,-413.881401125647,-297.451714383557,-337.300675722029,-486.299977273735,-130.716047566858,-567.359753042609,-583.991312228542,-580.135280890404,-701.439666908081,-423.851290372725,-499.06328558354,-508.730388073692,-304.667253739624,-167.030210553837,-213.439587066002,-290.827879264985,-482.112431999436,-223.795140279207,-384.085947794512,-486.443071878396,-207.014514860143,-273.409488696534,-144.552327311522,-362.315394885417,-414.817708148907,-1131.45985692382,-166.059960642941,-264.524667231322,-242.412435502333,-829.446431542694,-78.1873487044239,-495.151446357174,-1223.38178452513,-1350.79438651574,204.038135273047,-1279.41096115336,-305.804858316513,226.79124162684,-1266.90346071537,127.329166178662,-654.361040039525,-552.919167942094,-46.3970355562184,365.896556889655,-365.850520706942,140.478289954903,-224.713714723178,-148.924289669122,-20.3852766666931,110.896511573598,-297.456381750614,-58.7999870507427
-431.581406597634,-511.804882049766,-414.631940462147,-451.56511295868,-542.698656012182,-379.057204929987,-425.812742862931,-401.839237966372,-432.822568803488,-376.051753942509,-260.330367851148,-430.69762286488,-424.9463593495,-321.241598059642,-406.069569773136,-428.142374751348,-204.481121292443,-563.724270423723,-558.264789067673,-621.91423830994,-679.43907457429,-496.131489716014,-536.050037299272,-486.250326612435,-415.689237404271,-203.290577227043,-287.561827289027,-384.255508050023,-530.40507165414,-427.037779993556,-590.310259551833,-317.015380658453,26.1841100619768,-308.86974132844,-249.638290078424,-263.168249354454,-133.340983366273,-1170.34777312323,-205.023054697566,-319.505169467504,-305.036304917978,-978.465786229265,-118.457851596244,-631.063265920549,-1219.81078890158,-1270.47495303946,29.9807157883063,-771.816751431116,-75.8213986078905,-37.8963876779448,-926.027710788019,150.295336257281,-401.531208526973,-352.502823221967,-21.0186872395708,229.636390528869,-183.891675835897,16.230969057568,-222.530258302792,-194.0057451062,-164.386420789363,0.749626386277594,-341.701301512131,-161.566090174966
-316.99255754498,-363.806211505078,-306.880446782306,-335.750158084589,-387.487136422625,-303.330546269548,-333.227177231689,-296.079803259593,-354.67347428263,-289.330442406521,-191.938083981506,-367.701690260455,-345.85669174833,-254.33993019628,-395.283754733138,-326.189380269973,-180.486127334625,-482.733523392084,-419.976368810205,-521.866026464048,-550.26222263798,-437.337075390729,-478.790792631711,-378.054193067922,-431.114866972192,-218.818200181941,-202.139681690821,-434.78360894573,-433.058440232799,-489.265936299131,-762.14591425001,11.81546853027,246.26157734989,-223.041792796637,-309.676445257729,10.7730918960987,238.65538087414,-1085.18647754719,-167.720131915218,-186.261180548196,-171.958798387055,-1014.79723252209,-2.77154714459472,-646.743130890129,-1081.48860034657,-1001.7863782087,-176.042821894241,-339.769194745756,19.077858979563,-166.338629081986,-468.200092742912,123.904636773809,-67.5564836763594,-134.428310460459,37.8131049928185,192.55945634627,-23.9833233097824,51.8465569399149,-111.911646470443,-94.6896356285115,-135.109183979817,36.6575631015121,-225.686302751816,-96.0534221755178
-96.2791856630877,-102.120968707044,-99.0648462304312,-110.974482777157,-116.294145325116,-131.907605132395,-136.46987679291,-101.21014012717,-178.044364786779,-115.68954246415,-41.7058723261495,-211.615398363681,-201.420422166119,-105.475186168237,-314.116350620816,-234.06415233046,-79.6546906374374,-396.511720263929,-250.527097546387,-358.748726943617,-384.152589266461,-293.266983685289,-362.692869925646,-234.048464143335,-327.161915449663,-195.69540266567,64.6907445772242,-362.217537084009,-224.103292943255,-399.533988625956,-725.655477945748,315.76970335583,308.309702533752,-26.6496068805137,-296.86789061311,377.966909040383,470.040305748685,-866.111864013929,-52.86388574583,64.8089129502503,-42.1986534891448,-955.849151565185,143.233823067632,-604.271021159876,-827.636421505959,-549.150055713463,-290.480733632352,40.8110204086771,76.3734214310686,-13.5075284047873,-3.46729805248311,217.128749641833,266.953382420522,135.616902549739,209.191535958818,290.657766595835,199.370500685273,216.625215183093,73.6907356704527,145.403316750368,20.2788836617731,187.979375818178,15.7312773330966,93.1623145576838
75.0977090992218,92.0245427858825,60.0529361815864,57.8503561554679,72.5899394381167,5.75977168950315,15.9025036035911,43.2844800461899,-42.8243448307448,12.2511916628694,62.2435452066229,-105.137051405613,-106.697344179448,6.84331866665827,-278.881417678552,-214.548870491458,-50.0645842794757,-387.194539320947,-177.854136021561,-283.600117320296,-280.379817793799,-221.264995511286,-286.75545983625,-153.276735819813,-217.789957835685,-153.549814531918,201.627520429023,-203.033013646209,-58.3167400748275,-245.093024255675,-436.14632529606,423.696758725582,254.019968439467,104.816976709765,-246.083399005442,620.330904527678,463.075621505282,-599.647144814457,50.7018786173678,261.244681039111,-46.247474984357,-846.0954002245,218.575415794442,-559.184478813855,-564.423444269862,-215.632351606941,-237.604588218793,325.622484290393,189.623477668116,245.704128476426,313.178780517239,365.066487969929,507.077731704661,378.695794119023,369.474084171764,382.785699814374,415.708986526622,337.798626747877,213.583377568002,328.70047185484,132.98916602488,300.341588004499,207.398125975782,235.406730043445
85.9652143689155,101.832964746023,60.4998997540011,57.2820965202555,71.6745282382634,-2.83870017251041,7.88245617556998,38.8600973568091,-58.6042544321901,-6.15180388716459,21.8774331769458,-141.244050477119,-138.944098191665,-13.9440400747066,-359.807218054567,-265.813530990419,-151.961961479884,-438.750726424705,-248.646145422251,-322.509258390418,-301.048605098612,-262.920751122493,-333.223667458261,-205.937850184431,-210.173684981678,-183.096996852358,-4.89715312718494,-116.673445310548,-109.847697994036,-121.445502695274,-158.052842893939,285.249513421106,183.04532624304,70.8243221220017,-237.899577712284,470.188317306317,307.118412695632,-383.215060056347,54.3885565769895,261.709656779376,-173.252431658508,-728.667759672298,184.86614860806,-552.012643123953,-391.82990604766,-68.2156852799636,-95.603084587042,435.705929133679,316.326378751352,332.567447256696,404.644096030792,387.041274038307,559.380360610632,443.00495718,373.125658106437,335.892705730574,465.384311834709,300.263600944882,202.487601071062,309.316186513201,94.7917820884566,262.427163074842,216.016710277523,211.99582993583
-4.25475354295658,5.46298924080644,-37.4088089562482,-36.0888190226059,-23.3174800812372,-105.671484701862,-94.4636157616607,-53.6361975583854,-160.915440435421,-106.805205553909,-93.3895444195668,-234.17889747652,-222.579499081797,-108.208206211941,-442.942975011443,-314.20360673176,-266.250893375121,-463.016413380055,-355.078717761196,-368.682426576137,-393.992052795358,-282.883575235648,-467.53514284834,-343.491059661581,-289.400499884592,-312.348917390499,-343.278672601651,-192.971564459374,-358.271423945142,-76.3506568208887,-176.306188935839,8.58804271800049,95.8114076285845,-29.3749939400377,-319.394901323075,-74.724877570253,126.81195136848,-223.861873586069,-25.9511482798708,79.8141610640348,-332.896947942708,-611.717800986166,71.9936750657378,-578.132024762004,-267.504011343425,79.8720482813941,80.4424905601301,439.611420800707,388.784371323126,254.51310096885,364.617684299648,289.429770884659,461.562788401256,344.623867611361,252.858874994412,197.678175147384,349.268084906785,164.685707883056,75.7570169844339,157.062825001126,-32.7137581597466,128.420355695506,96.875485463166,81.8525605304401
-53.560809914171,-36.9585576223018,-84.990745537941,-72.5347563059344,-53.8070340363188,-157.583795538852,-134.957700384579,-93.3467834968004,-196.2924160972,-142.109794999915,-139.301611574239,-236.832464395011,-220.019909034259,-135.728578074059,-374.9817749764,-287.443727903124,-262.3452346135,-407.533550715594,-351.452121116327,-337.880695435064,-426.536178920241,-179.689607309852,-561.160070816575,-427.943598798541,-398.817500176593,-439.441913383831,-489.908642954088,-350.253620593025,-565.937393763828,-111.887973005829,-380.255048958373,-233.699995604711,-1.32334471641285,-85.5441676511456,-432.859164716547,-637.843760313609,-33.0746646894418,-64.2752701325415,-107.050061170711,-127.990180825118,-432.519006563868,-485.834723945995,-45.833868799446,-591.545441027956,-80.6994224612652,276.290601900083,260.00624441136,460.98084249591,421.229916514812,199.82861274903,336.747919659996,223.081200841082,370.287069787713,235.173440358037,151.827179290013,105.280565909626,214.365387566171,67.7332824378415,-29.6106191680157,36.1965040403,-116.980361570585,36.5035753893711,5.37722173448719,-7.66237147468823
-22.1327909023036,11.0009262612349,-40.0011042765295,-26.373040167084,2.41932290348435,-115.705379053826,-79.0197025349086,-48.1697942587812,-127.173094830338,-81.9785354622923,-94.0493153450676,-140.216581009854,-117.303934276288,-66.4804166759829,-201.129963152682,-192.768108355758,-174.388093319786,-300.809023147348,-234.840231336057,-263.425756881365,-341.056078284706,-40.1293153259197,-549.441583950144,-399.084471635733,-525.062748067857,-503.559723721992,-460.68119569852,-473.522430430432,-557.925568793739,-227.052689175411,-432.922231715668,-397.200941898103,-92.0756365338761,-139.015035877893,-475.26564061787,-909.320336906633,-208.235451827856,89.8097831019406,-142.195895738507,-249.244554846586,-483.806971097309,-376.912826650477,-147.94276570016,-584.414594026012,151.393419117148,412.912208465879,361.354566786068,495.548903784593,426.142615497909,205.27039831161,348.87429675387,221.239660756984,353.153984521865,175.862832492878,122.499156919917,88.4865154582714,144.483682454427,45.9906842353855,-45.3245547248893,2.62844841389752,-122.550659092634,30.4565275006721,-5.13870687970815,-8.12389885990486
34.8194111176382,76.0655944018171,28.1176180734975,33.0870440357366,66.8149501473296,-43.6658900133215,-3.81259993453665,10.379686699962,-32.8411466982139,-9.9824675950756,-32.6632597787797,-36.5866983197988,2.80799236475132,25.4065264457345,-71.6496759177229,-76.2000031553578,-119.492734876345,-170.556057649276,-88.4483541239804,-196.194303627958,-175.367714538242,13.7157684293343,-454.857544005156,-298.207952949036,-607.258121840972,-527.45578994289,-440.72190068973,-508.764730708133,-378.015758828794,-419.979679370807,-221.995969504519,-492.653960110206,-300.302286923957,-232.65606836883,-399.224515311977,-938.344280857691,-382.878106090388,218.846193889145,-120.981257080851,-266.718004186151,-526.297750504839,-271.556743391779,-237.271634450631,-545.663285360942,344.725665328959,470.085782379975,352.924654858765,482.335402437846,386.679884992357,198.731329653146,351.344280222059,216.198441533521,344.596225970183,139.650923655185,125.126476265455,96.7509149426021,121.304896639734,56.9360473767671,-11.0424604519915,4.21938753192044,-97.1277296684744,54.7477964948931,10.2952691269383,27.1205188160712
94.5171974642048,130.156359605372,84.9667997262811,88.2762837811595,118.523045809549,26.2196856242516,64.4396072830977,61.8035943585141,47.0404648500946,48.3097147893443,26.9216254462115,47.6805155530027,117.311210861922,116.707559297198,1.59189966045158,67.0691248700926,-133.097505758922,31.6822074378635,84.4836480023872,-78.6598206513504,66.0257609238079,27.0548557180839,-254.448052475962,-115.565171641413,-498.775533212164,-433.241614158343,-383.122332292821,-383.638482758903,-116.683179689137,-595.674635859376,105.873903060685,-447.404001168283,-660.884803397268,-251.959146746996,-223.65937054422,-815.354876651761,-481.797367161752,431.718851753229,-25.7963185516339,-149.212841013798,-492.330745274227,-58.7533926979275,-249.278684438578,-402.737142336233,526.121310453325,513.41132275503,326.070086619367,448.242914444184,340.976593167386,198.921062927575,340.370904286934,214.024664503024,310.490848748271,133.146510292562,145.327764628896,127.864580695199,127.155650599164,96.4911782940397,31.6411794243785,9.88395644814429,-56.4978236855829,81.3477965242787,24.2259765004595,66.5833671967638
170.323192404278,202.521258678081,155.693999478441,168.12936036219,192.238732171931,110.743440346187,159.943721470716,147.516300196736,141.882323978762,149.786824638212,120.544765067899,148.765038976481,258.63514825535,247.850597169142,107.675462535112,272.786885798851,-186.086275557918,356.162448400678,337.096434083614,177.885167985637,413.719119665649,126.533404157893,104.351192255496,209.869387114864,-158.089905256255,-81.1808790636188,-163.723572819653,-48.3408358766541,207.452901710296,-570.580696534159,355.758507734806,-249.688437629361,-780.943781917255,-87.2550556797624,-0.723734918468182,-468.594914644748,-483.175844893164,825.087522382927,125.463083638984,106.311278664422,-330.287499975859,336.436493487185,-153.111538035536,-128.845942485162,768.771312855614,546.299568269158,348.16419321783,449.006070989625,341.3005347041,231.535231801844,343.759208753333,245.392087442124,289.576990414607,159.317408299617,180.449966095699,188.201221955122,156.150312905363,169.950568365014,80.6012741695031,31.3256512325626,8.10911043802588,126.746459431654,55.9346711515627,114.705007958754
263.346696654703,303.422794093834,252.780416326699,275.287336842342,300.191573360675,213.698520192346,287.769205229834,279.783948750865,265.569055666411,313.671129826971,264.374367664964,262.466470730028,423.093801324713,428.681028268128,248.467451473015,521.675077055588,-220.685192179855,717.087213969775,659.120541438122,524.41940274927,821.249645303533,304.505987795017,562.428929755512,641.732306571536,242.760966659002,479.882870401817,90.2262474429463,376.428280431997,551.46421087827,-285.061297956584,447.235782792332,19.8412716519691,-245.452634404407,179.642707329423,211.564173235747,84.651626243732,-318.986807192441,1277.93264807201,258.631627307121,397.634317065779,-98.0968582075927,866.898265669407,-14.2894833556733,235.628334550724,1065.65092146422,544.868442818056,354.780532477555,472.335514794618,364.793367348226,239.291383066151,366.78438497409,276.546865075631,304.811705556273,189.618753006848,207.693813085632,245.009046719984,196.29084175073,243.617418058339,145.903012156165,82.3475174923433,85.0946420926098,199.63920038154,120.610840461347,174.301220633068
361.022209818549,411.369898638762,352.192594881447,385.934698455799,425.515401582598,309.857801263686,410.106933385219,424.977875217533,378.726879559794,476.832444218668,440.432021150146,337.37518987786,559.348895520931,609.501780474269,326.483516266406,710.294468914853,-131.152711945975,915.954703382246,943.721994060027,777.472146359011,1148.55167666136,431.371749571655,960.835030534184,1020.12518330553,535.708936034513,981.18530255302,193.47083834143,700.767082792577,813.219121147975,97.7008431247121,520.740591708192,332.645746115869,724.198745323431,388.339121678733,370.874573224913,648.835037071203,151.233727452893,1582.73908995704,324.823167082685,637.712200145794,174.786715464401,1411.07152474142,154.187266065717,674.121510957798,1350.65872452415,542.323027435169,308.686747698492,488.603799340959,373.714745163924,230.163056030309,405.61083519605,296.280064028382,344.194130812645,232.97882464397,235.275305226288,294.774288983104,257.004900752143,299.67524156748,233.667256971754,173.559106139264,167.388500361235,295.539575719049,217.695961269719,250.049286825578
438.863837014089,499.491225626575,421.803345514406,472.68927707214,538.833220927523,366.670917534224,486.61259223072,540.495666176824,433.570685836864,570.769152963875,592.227063472527,349.179596698342,614.19137247747,721.897335269358,298.64030183169,742.768233259881,103.860586143706,880.205850337664,1070.43257010056,836.301254943538,1270.56528539325,474.505416689685,1185.9439787711,1194.39290540021,755.570852589011,1166.02236214823,210.033302641121,895.585189395361,954.779039023961,424.418715034839,775.53424466743,611.471986811747,1495.28675710653,484.172685507624,475.436177567214,1075.70098101043,859.003885272423,1654.8328855248,343.562145767548,849.646377371278,500.347832750572,1807.71111362974,405.483012826755,1127.57049656757,1538.67236678696,558.532393219569,311.804157966643,506.207032459715,388.212908045881,295.809329419182,451.955322010574,346.836023863672,393.105768192678,312.275699531756,291.435740980054,360.947984076137,343.612684930383,354.99665101744,327.940056122865,294.665615918627,262.675650936202,395.980567705726,326.250513414791,337.96412054812
472.139800686357,550.572246912589,450.558841982331,514.009325302844,607.439178279426,377.277649920312,502.700708387115,598.011076956806,426.860912382082,587.615353070506,657.273402659358,328.068919075875,584.563255904842,738.277447997687,247.422600070851,647.094489948712,324.230465727317,762.933360280978,1035.17254998104,813.924599540567,1199.01648012859,543.863672494327,1233.93222825226,1177.8391141016,973.005100468606,1049.26410376353,239.066699940653,1040.18238883603,1049.10162015014,732.217173213482,1151.98582693418,673.983051205508,1748.07396052329,497.248947520358,600.494685152096,1325.64173236277,1468.64503348611,1500.70635725012,350.310486272789,1054.77397328635,785.805466557371,1923.2138644575,677.856252387444,1422.37124755429,1545.45958449537,547.316119543531,401.679368002343,524.321433943045,417.783896495772,405.016351521404,481.580544708772,406.400005729058,430.724881816831,386.512149128338,348.577415819774,410.008001578768,405.225043772465,398.566047164985,379.794128606045,392.512088870705,356.748050967882,457.536953298145,404.902292589539,405.100007126513
433.435154052527,529.148698511612,419.488266816261,478.355237506981,586.455919944081,345.385341448787,449.722063441947,568.926557872461,369.840214795388,535.925950166226,614.127365893407,286.84132296792,501.025550122614,673.749033483233,243.93426577644,521.222428214573,382.03081575174,693.535016932357,941.52416478751,829.677383075635,1064.2111416716,658.591486270867,1162.44850588286,1128.31430740742,1079.43180368156,926.383095676418,196.75482480793,1083.65848354761,1144.01537075752,1024.16354132714,1375.71532200508,534.165834222388,1598.30997018712,416.376522718823,832.149828714375,1365.37998694688,1689.62557720508,1158.98695444837,354.472057395946,1180.09722287786,876.049390966002,1738.83845243692,798.135619831337,1409.15904163727,1344.28288209962,461.743216708194,410.142545085809,482.990776111896,380.418260459074,385.063756050473,451.453910698747,358.29025994342,398.752398883096,368.114206889343,313.250668692199,348.719373910596,358.263132919673,354.327239225647,316.15483627251,384.840334329114,373.750511692157,409.384785957417,391.436223011046,383.994028452764
297.96454465541,389.47759249898,297.694099591697,337.987924613184,440.655124448005,258.522188398671,319.426981392972,434.574354509354,262.220364829807,407.243582994343,478.68439156517,206.031203674736,378.804950715115,547.132722437459,263.606723189676,424.488695848721,325.328799687528,641.85961355207,865.333122901413,826.738610532274,971.764779512329,686.922548093717,1053.43246099906,1130.40044400381,933.743206300888,1030.12061547339,97.9888875077542,907.827588114955,1204.88025586091,1083.61106391848,1357.47340295333,524.131354627596,1229.54090561445,207.744322100836,1130.85491895794,1238.14817477256,1495.67522013289,756.814204358088,379.053921344021,1175.10512250203,769.018702730748,1350.31939194528,713.217857636299,1131.13765638095,1010.11853454422,303.789386656737,218.746006635682,327.295033846974,209.67210542117,170.775047504715,327.128576732143,157.598508818421,250.565182421968,224.648345143425,133.396737641314,131.959309493379,183.952504800081,162.716091550081,104.914816949052,230.911149497986,227.814201253012,204.215114090049,242.913593237901,223.845857176554
110.479549628851,173.776038883016,127.868579923221,146.096277260451,222.565349092936,137.84477701756,156.847575787322,244.94091618941,143.595238944189,242.222286656454,302.916324575824,120.149803455114,250.506447796941,394.708572987624,290.911866843359,392.29010344543,288.880349997244,581.796944888447,819.403962629194,750.717116184024,930.728357204312,612.325566251052,993.324722108548,1115.52666727583,636.185871310337,1261.1050134213,132.165714562622,648.194490028373,1246.16537008156,818.018978835326,1293.01735664076,873.066161323033,780.048314790638,-27.1281764510022,1394.00194711339,1116.78376493551,1099.38867640031,468.083027235543,478.834813916804,1107.50742218052,638.916379686478,926.98711905865,559.875881235688,788.644509188159,678.868737993415,134.522982488277,-10.444246833093,126.59003306637,43.0652625504319,-80.7054592077579,152.435909586189,-34.1385062882561,62.1520979249,49.7083092977515,-77.425215189579,-148.341988351891,-13.8540207501069,-97.205846597744,-153.670441226531,12.040504342935,-39.2993220571246,-90.9661891741671,25.0977009393397,-10.9828547090936
-22.5344032272759,5.14175849229825,11.3172629288106,13.9908082544214,50.361869589753,48.0368448611316,42.2201832123312,93.6935946011954,71.9281173163146,122.77425977865,160.042906848814,85.9009221350191,167.801058278312,272.305027325692,323.386851947972,416.902011744906,297.583473958749,510.996029360872,788.007823758718,669.414763238392,882.909729849459,592.155323304244,989.515770468636,1020.43978285296,472.463397918887,1368.80518885139,332.295311990717,589.584456088972,1321.23151460105,525.723089982201,1239.95859170497,1331.34078993131,419.470158987051,-92.3020702182944,1580.32178518756,1080.46418436323,768.2979163634,356.456266822912,625.934573650515,1020.01389685256,590.048215579604,633.326929530703,442.786484569586,520.845718210332,435.287111236674,57.4380190827598,-59.6916385800849,43.1356637531926,120.369649299325,-194.901166361998,44.8146476508337,-18.6908922312298,-23.1699274248395,-18.5897351029245,-122.415759329471,-340.433863217258,-106.653470763207,-264.820732031291,-297.050725809683,-128.883985517683,-268.372395937334,-345.862490215897,-125.716691972434,-182.354113754353
-64.3892792704504,-66.3313331332934,-30.1019068180301,-30.6348186842109,-31.4401929749259,4.35069073624071,-9.37953199633132,9.76056910125899,33.1557071396533,59.1804975099954,70.6154175515838,68.5381898078802,113.69179504343,188.298295220502,282.825234016582,397.21421068476,263.312145165386,370.26673955136,700.520771080705,598.446445545388,745.555740403147,665.991076247233,930.850241826532,848.093746126405,558.119308847023,1239.19683216753,560.04542572669,683.966436382405,1325.02089322108,469.566067398017,971.752289521043,1458.55482321874,247.37148518167,14.7822406060357,1599.91658423177,986.611119352176,587.823905356014,323.88945279831,669.32019491568,828.275572359483,514.724468971379,486.426399015166,297.566003953886,285.756663694016,250.956902750868,126.820923976455,9.8066100348529,135.603864044978,415.77418598261,-201.731753271531,69.2302629020838,144.726403088101,18.8811096587742,45.2218182499113,22.4247323246694,-411.523005956174,-87.1927302841905,-296.557498495435,-294.768751357207,-155.88674225097,-366.042630095743,-530.655632944108,-171.387285038875,-257.973215698388
-75.7656884211236,-93.0294506365231,-52.9379867380336,-53.076578621864,-74.4918809673133,-36.3017866157002,-46.8213442736018,-48.9288335687503,-21.4194102794637,-2.40039475157056,-4.96875833049258,4.0100284201882,29.6929341749899,100.749299295825,121.086881915051,264.694009449045,149.058502099996,170.25787109329,486.418484039134,465.249096363717,492.622504600067,675.160820491653,724.646349586444,608.109700584336,671.490093912715,896.285970556028,704.053249319246,570.921631293981,1081.37343080355,495.220370498685,485.239710547819,1155.83855639503,230.806664599653,57.3104367314271,1300.49612773403,709.028464228548,476.556324431945,226.993253438875,533.220527223785,489.649775258242,286.563128225948,364.417659634953,51.4742049939836,14.0743181335918,75.8109679312383,271.55155800997,-56.3580113665242,282.900225693848,587.05168135529,-258.09593984998,172.375951406441,196.326182900564,96.0496440812079,147.793164951305,165.114019239972,-471.767875489885,-39.9402255284324,-296.151995074135,-253.391243649932,-157.421397459889,-375.104463389463,-684.215185486136,-191.270860658675,-318.470270813018
-90.097011278185,-107.565138749203,-68.9038844569426,-79.5007888887509,-108.829360102138,-75.8689165842229,-83.0575884093997,-98.14719726768,-74.3256465985176,-65.2048609038091,-73.8356770709877,-71.6502971178226,-67.0749767540339,6.84733043223767,-56.8594721947572,97.8643302199018,39.1849018310493,22.8515105784524,210.095052432267,273.505123623936,205.344578511308,521.95777734862,414.646928014022,345.167422878451,516.626958588754,414.170886268377,654.845793756158,94.9554525818876,648.218864814843,328.791220107532,121.342238728984,662.148650310681,308.132996835879,-130.805870662169,727.816513602678,328.333360075639,415.546184951376,26.6730297156876,319.270965671972,111.882236505693,-20.2412508065159,207.808275819043,-240.535581624262,-243.588647382897,-65.559238824965,364.313045661915,-318.724839340166,360.032876028681,425.398581446565,-405.462136720203,275.509939170339,41.0787346913013,170.871536934968,214.863359189491,155.832352677692,-592.428210079636,-0.275112645628715,-343.57984957473,-236.966645072979,-183.581043600537,-392.553864654497,-761.036169639919,-231.067376862391,-383.80400918791
-102.363623285293,-115.333173493823,-71.6404610397128,-99.4244858633574,-136.1689796308,-97.8488287862045,-108.413930155071,-134.28060147369,-104.00392200782,-111.445528017063,-123.594092887077,-114.589112041793,-139.053993340444,-71.448989585907,-162.396298049644,-35.9829051603648,-13.2420581659009,-85.4259827316004,-21.6970211520395,70.4838774740677,-54.3373930742197,268.82352872693,74.2680802726886,111.437219798484,61.3366471378201,-76.8596965458819,336.831248970163,-498.516167200073,218.736852235856,-50.790071495946,-71.2327765312738,159.547700993163,372.258876797218,-467.179024613069,114.680287763555,-43.3410607523363,411.017420682974,-220.389821984525,91.0818339729501,-246.093434425158,-261.104337368258,36.1971738839305,-533.35353191958,-450.015442664424,-174.122431591672,345.700300107693,-557.336268389859,374.605277647642,128.026662778556,-551.878332241352,342.484842958237,-167.870003576287,264.782466344217,227.160782359738,19.424524262311,-728.827512889907,38.3058166669133,-431.562809520015,-239.761173005011,-207.6098908537,-517.658360760922,-727.294029244983,-280.911065948768,-420.676777590623
-172.51460920984,-185.040029258175,-137.439004737716,-173.511202378968,-222.765844473258,-170.25406611598,-185.429524581461,-219.614588865855,-190.324388399815,-208.473839768109,-220.982876345867,-216.915532396405,-250.829667156721,-184.491244143519,-299.363958059072,-218.654918900133,-101.99090506021,-309.563584947678,-254.953104557373,-185.293174979471,-351.220045546471,-15.3788834409402,-297.728565167946,-148.260738441744,-437.84057062832,-464.052953062001,-118.181064446831,-877.814176283042,-194.904694401456,-463.177481595194,-413.191037935192,-323.422321195446,245.12471072695,-738.033776282423,-440.945062434887,-438.253064689392,312.356799869108,-470.360255853039,-238.679720011766,-686.37048367955,-465.272386879506,-210.856541573639,-898.07639546232,-701.613023641003,-335.945892914001,245.466599967988,-627.782689817235,361.717356304501,-26.6832486342301,-677.163675923888,324.110709917073,-330.581271389939,310.771019757986,140.582740576161,-187.953027345977,-876.513900824983,23.2785244638675,-568.906151460022,-308.173046411367,-274.548106593467,-799.493692622644,-726.246776926371,-386.38884828509,-495.583274113603
-363.171875080759,-381.525413192442,-333.754717881839,-366.513238099291,-430.105961702945,-363.80365874913,-379.414086374396,-414.761609375875,-402.508946915426,-420.950847639191,-434.528269091961,-465.719596260965,-472.453393027604,-392.178567068343,-578.830438794915,-512.50567947935,-316.228457593831,-664.297310452183,-571.473306310345,-521.720870454698,-718.200963832105,-300.784464316474,-659.158246968826,-490.482498076409,-704.908552389175,-710.889817957018,-456.019739295745,-926.519656424666,-632.037395319652,-728.41467153627,-882.047558593698,-699.170068376436,-101.211653981234,-765.075855308027,-951.676244678915,-864.407144075088,1.18523491131292,-667.857413889075,-664.377453402083,-1215.56358018756,-730.556940232552,-574.907809349792,-1327.23649842479,-1031.41800523941,-526.214586266209,112.984339064996,-670.102258400045,273.228880917734,-57.6260052111278,-864.5673942871,161.906761074365,-532.880593996998,194.996921020111,-81.494522775445,-449.972413985864,-1111.23201366039,-109.298567339004,-786.08878672632,-503.501463099491,-495.540060214971,-1155.73599814087,-903.861868520365,-603.259875739639,-698.437323138664
-599.169268652965,-625.240926136052,-577.352947427755,-602.575733253312,-672.697990463198,-601.637166635344,-614.568961716159,-647.60394554015,-646.780425441259,-668.124564802365,-684.994293454467,-742.03122575329,-722.071153824047,-637.160517358242,-883.230760511629,-801.268294940464,-569.770416662339,-957.346774389255,-879.649772429221,-816.40677949677,-1014.5035681896,-513.036150898661,-855.468603915009,-775.411443197958,-679.575675456367,-742.035751199376,-547.94483073607,-696.472489242722,-908.556167855208,-741.724653929006,-1052.44643768521,-828.429430150271,-466.825716265519,-527.048665977088,-1260.06718333847,-1138.52772831376,-358.463479744493,-727.648645655473,-961.156718180708,-1577.2141676035,-969.222481210118,-882.25563950536,-1591.16629979079,-1250.85608951149,-578.123446296133,-35.0929956558627,-849.570458251008,54.1504186664399,-195.468661415755,-1114.46047705065,-103.107330929545,-854.095897066459,-40.4176275736469,-382.228288776878,-723.438473784397,-1396.38985762544,-335.351645319269,-1021.20213755541,-762.930826927242,-857.504273403151,-1422.24360856312,-1158.72860574543,-859.176388936072,-950.325964578665
-736.221015477568,-761.164896585532,-714.90604023622,-736.018195172981,-795.329557076683,-731.289639572794,-740.414390505291,-775.762029901849,-766.861329785241,-808.058929387989,-824.969832482243,-847.956585931995,-844.23957930341,-802.098284550083,-995.822055787962,-920.607639395085,-701.234864823044,-1035.69990370424,-1025.42707733053,-921.564942744518,-1096.02480333739,-572.420772616651,-814.720773480464,-822.457890736384,-472.713537534155,-507.54266237143,-390.328281006819,-296.908981380676,-834.682954062475,-478.718481024127,-795.667255440309,-729.771432905603,-706.417049156516,-174.579425178609,-1176.17494005547,-1083.37379881895,-542.889561572519,-667.876124314811,-959.08134815617,-1528.88643829759,-1003.95467850398,-932.004947394845,-1486.33606039224,-1188.5939605257,-483.930790672913,-199.801936590269,-1098.82273587571,-254.784355288363,-584.296793062253,-1308.365091764,-345.804041773736,-1228.72203854442,-222.034596341558,-699.819390663173,-975.058485777655,-1550.23296298099,-603.013728472621,-1142.20667623377,-957.650279942029,-1216.00084504837,-1509.81978088212,-1264.5268373676,-1017.7734191408,-1083.94976576569
-734.283036677125,-748.510110477712,-706.151012809131,-732.041747469607,-767.486350215887,-715.92832038292,-717.650812225997,-758.129167714499,-737.286907095448,-805.277181600122,-826.707177073788,-765.84545178908,-801.621752754286,-845.397193125383,-884.09068031371,-856.128263090571,-685.397288305591,-940.297525997279,-1003.55680407818,-859.980438984246,-1006.04942076472,-524.993407072553,-683.885594436756,-700.328828195919,-227.008128809703,-199.322665044175,-42.2035736844797,79.8730056312114,-553.375865610307,-44.6295175407021,-444.994860700275,-562.624937724407,-845.773193424614,117.480617904106,-830.460462230779,-790.917256625287,-581.245480150226,-603.439345690997,-764.781346297195,-1165.850199448,-860.124866554983,-802.663557510278,-1137.95371440417,-971.740447438456,-428.986388552332,-371.002042815721,-1242.8452584905,-550.502687391471,-1157.56503676321,-1369.07267839159,-527.069474593772,-1480.94790712294,-310.53577568016,-1082.50890339798,-1228.62707342844,-1460.88938141195,-913.445211138825,-1116.25103236433,-1059.75488653238,-1465.52504544733,-1439.07450100985,-1155.34941991066,-1050.94807677396,-1069.37770967071
-663.384868885818,-672.301559414401,-632.030600329136,-666.931185043532,-683.437688502551,-648.710301931042,-631.623849113115,-674.224651095775,-651.081677303895,-726.916487310354,-773.499792426306,-640.460879093395,-688.757633093045,-811.27576585623,-706.525841951015,-733.014799726833,-630.226472632467,-810.180164168594,-921.640328742947,-777.327292354771,-877.049857698287,-503.159314633966,-635.43172342569,-617.123855413839,-75.1810274921746,-75.8319080531531,305.397534075775,243.029194007356,-354.321362991434,324.661096445862,-284.610533724858,-445.703653406641,-906.40395843873,278.449855965066,-548.511911168698,-547.448266152644,-645.314503844402,-572.168379631051,-590.780898457816,-805.442742391155,-737.990556725048,-721.274903658502,-865.522646784857,-871.027181378934,-465.946436797079,-533.732849376034,-1216.78293393777,-756.105662434552,-1669.63862235701,-1313.73049587537,-720.874577153943,-1444.70348948484,-457.838508902252,-1547.05966524729,-1442.25998029173,-1184.52157235033,-1222.12904992567,-1044.35320837546,-1116.20846044669,-1564.83531905314,-1240.84622848789,-939.268980063954,-1016.02917531872,-1001.15021235534
-576.982304515901,-594.312301027895,-548.842953755658,-589.610814608141,-602.655357426316,-592.215797686948,-547.999693871608,-591.94780050293,-567.331296516621,-634.258125096156,-715.94574945513,-558.168917094832,-587.467813488483,-749.2176375919,-583.53043299554,-649.931218184204,-593.757519284308,-722.85341902183,-845.355880681098,-737.5156696447,-757.868549330603,-535.752516361832,-633.375789795451,-617.667716981294,-60.4194282632617,-120.88537322915,452.576773646812,194.972346124224,-292.561513883407,442.870800873093,-282.372196934965,-398.357635480723,-880.847762766034,327.902753158599,-440.146350806998,-526.637250233575,-782.298822148282,-522.644276913648,-499.391101847786,-629.212683651448,-728.591860962307,-728.376257982379,-800.839161678742,-933.937478024047,-486.076491708177,-653.451858532524,-1053.48294892338,-826.829377806431,-1814.12422783653,-1164.51508585086,-923.520242956234,-1153.90604193473,-743.741155051026,-1851.51990275088,-1455.42619532105,-855.6327223761,-1357.41614317711,-1003.52855950166,-1107.17812260194,-1455.42838736719,-934.818509699582,-710.106523447321,-911.325178423118,-917.158064854225
-473.652327048266,-501.647081853625,-444.233338045786,-491.972238732463,-509.546512734071,-517.232385248287,-462.217261374992,-512.511993479183,-478.863825766473,-548.661083325943,-647.012308644467,-489.405649861877,-509.824239437865,-681.580844348604,-511.64069875779,-609.652875206755,-541.798176352097,-667.698399290676,-788.579735793735,-695.529399762621,-642.759251433691,-539.138624051224,-533.036498167806,-607.442857156798,-81.165771440023,-142.785729510479,406.311350826223,106.055634351586,-238.668343852893,341.4281058906,-298.410667328724,-380.201883028364,-822.979208093741,311.408231127566,-380.495732496163,-638.461218202151,-897.288237293777,-436.182146241288,-423.984919136829,-599.63396435739,-742.46360481917,-707.481587012436,-827.971279269277,-977.004478384256,-476.209704736495,-672.659718469274,-772.01378318738,-717.618484738766,-1458.43149044963,-934.303072585399,-984.868613537433,-857.041198957874,-1026.07106873659,-1661.3817228097,-1198.76218321051,-598.564450592379,-1214.5826097047,-950.353841405734,-979.642317306448,-1137.60356428409,-584.483383035706,-485.049313500561,-703.75094498428,-774.165095183577
-347.335154115309,-374.440146881771,-314.40843423403,-371.6932066367,-386.755757740647,-396.279740652999,-363.471732456836,-421.663175052001,-378.623458689146,-469.776648253899,-562.772021469144,-401.106834270372,-445.075126615545,-617.320632548592,-450.739591741141,-580.865814232819,-459.904745019236,-613.380679113819,-765.195081704735,-621.052087879729,-545.842339312101,-482.796507386935,-327.252896822196,-542.89589483228,-30.1920328206572,-68.4520076076597,302.415871510887,90.2505816356335,-135.034308540333,204.409404288579,-247.951428320956,-319.120129835249,-760.796670819934,273.649370113224,-283.998112001232,-658.157358275696,-880.182407389975,-336.297554911592,-313.543755434915,-596.240805471995,-656.788282889672,-614.907558549784,-793.700512862594,-853.070271484866,-485.498518370978,-577.163610410063,-396.754132210598,-449.64664756072,-810.297399058928,-681.155100368679,-792.88420898972,-712.59428455456,-1096.8029855845,-1036.32417647348,-842.177087512623,-434.630538882086,-932.324453406506,-800.214172140999,-759.49039708221,-759.75182842353,-258.301988337873,-259.565388210409,-438.950014423925,-550.242511403257
-193.06596475245,-208.746769670467,-168.956762127209,-226.446012306355,-226.322363278108,-239.828680789633,-242.469042605727,-297.984076240319,-254.370705289051,-367.837095745023,-451.370895033653,-282.977613615717,-362.358901345461,-535.682055164959,-348.163439361557,-520.897604260118,-356.707124711317,-516.675186122592,-732.48735381867,-500.866424393357,-447.286887688145,-395.050753435333,-119.515218309191,-421.676783865938,99.5757759299177,59.9113474336283,249.877628697592,133.664387452381,19.5140668715944,199.748245302088,-54.2392679999441,-146.38502107406,-612.951101088901,276.893815192613,-139.743732558245,-444.232022561239,-667.156735113221,-222.8367496949,-130.507999235753,-473.114196930523,-404.539062836495,-471.73624754276,-589.927469887377,-538.419844569132,-441.055788001197,-345.266535971048,-55.5463957317183,-172.552638956036,-275.865987893505,-449.432521874053,-408.756971873096,-643.28565121176,-880.652997615127,-430.699916236128,-600.134561770463,-260.483599118657,-675.824086663875,-543.044490205116,-490.582090916645,-433.556491571659,36.4751386493458,-10.2272961556294,-177.297822426136,-259.812805594159
-15.8390204364886,-21.6126793915216,-9.07199219256607,-55.2516336379713,-41.2194609010948,-67.5870971944152,-89.0711456450621,-130.098157188084,-91.202895212659,-217.931410946927,-293.380034049369,-127.455716206647,-226.840140558192,-401.725870792612,-156.628884588344,-384.246026590274,-201.042784768375,-337.011768523376,-589.216459267833,-305.945496887425,-299.238432429284,-262.692530655761,53.3407426990764,-238.89321429504,268.834305723241,204.024245830236,310.831325237955,200.137814817297,253.758561390852,340.60022309328,305.359596028933,110.345275545007,-340.27302785346,364.982775882016,82.298213631811,-82.9995065535731,-309.064393801519,-90.7509657971723,151.029806609032,-162.38273021152,-30.4967971100909,-285.94065893956,-199.253911586366,-109.049916806547,-259.635228478228,81.2970223169046,104.898086662846,-52.4694661825251,-92.5077123485308,-191.201910285201,-6.53733949262277,-564.464664588975,-491.417718877186,-107.040529016178,-486.716604638619,-11.9997140114063,-403.400346636461,-244.010178869684,-171.716225868764,-103.866878539801,315.656697779501,284.442951997429,78.0556203859815,70.7763171685763
148.13601072293,139.574043845828,142.048344767799,106.21132422389,117.405980431789,93.2616338445966,72.3190437979126,41.9029030736746,82.931451239623,-46.0045024255085,-103.950991784496,40.570951104533,-51.115398989596,-217.409136926824,93.4328405118314,-172.896889650312,29.6625271536386,-95.2368539280815,-316.878318037946,-55.1502419550665,-116.177660073226,-73.1049340273969,210.155173702132,-35.3669606920866,423.811486888491,323.393787468278,464.941767469365,276.05012474878,536.587856328714,454.22030418141,703.567416195238,290.648403319616,-55.4819972731526,483.384415311872,347.75745580126,164.290258658262,4.60580996072904,42.3048903575266,447.120822596565,190.077697930383,288.580509483062,-98.8185686012451,208.503132974816,259.531483519421,-14.5053665400258,530.316729402393,142.282030834271,-123.758913001707,-109.124998712986,146.299858109792,230.226063980474,-431.31257688731,-146.037269647241,39.363039792979,-371.798904850844,272.171472731437,-65.5500667607062,68.2146381029385,145.966644914372,247.680668896745,570.305697634708,579.914584477367,306.493309792299,387.801121199171
278.046782990245,256.406902514845,261.418372682217,234.58847435698,234.899397173241,224.891756196077,212.400531876743,181.190912504682,229.657461020259,117.821562704629,93.3757158923915,186.81415848297,130.506482235309,-7.26866051871835,310.806214493063,61.0594902899395,273.818791336125,144.204379169656,-15.9346084715322,172.717879168747,57.9327688889404,110.031526131317,327.065387809558,138.071873701026,496.94235503875,388.40730274572,573.36235837398,366.301649025328,739.625064311721,363.919872295388,967.558679584031,259.555398284509,149.852158751813,528.006788404511,517.078305998519,161.403886256257,131.811815879401,187.531576707913,612.175134788762,362.155600574325,412.753734035366,43.4182222674397,416.074551032995,439.819047131623,174.184225012914,626.262915351042,244.142927245873,-261.874303107843,0.334855553449007,516.228614562031,196.410177505727,-102.027326661959,-20.5020009548673,119.031202009047,-146.099639357219,588.689644379437,198.464902004562,439.514069402589,353.190068278692,531.166701162964,799.001128970857,804.604645190848,464.635116181507,641.380336117486
371.750735288559,345.890778044859,345.419825201702,336.298308778387,335.635443145619,311.569045376403,316.348103426608,287.556722086967,328.087491862296,257.065707103057,273.755497534536,290.226346783612,283.532864946591,190.269474804865,414.232828410318,241.120817859611,400.887776215611,306.207570800716,210.262237990261,294.128857693758,197.098002418619,184.208080553267,335.821313601585,257.266179358837,415.340166353438,390.937283572903,428.198884183225,448.986291967482,688.841239731245,74.6364824152756,991.091802559034,66.4528979460624,318.234110065373,444.160001775805,488.825901424071,85.5617783276091,116.22991303673,347.66509055696,600.972675965802,310.23143000019,392.244357354479,152.8843787864,427.012056140759,488.477654387655,272.154792759555,345.969928837973,425.569892595285,-277.158491146253,319.249481701107,804.293346836522,-33.8910790544474,431.184250903703,-130.609518323331,198.690008718957,232.442452164241,927.423674107222,307.962594957989,841.61668306969,431.220519197228,729.513870158683,1002.38440273232,934.819723776286,556.148976297089,821.299246483928
392.150175726187,384.045999506675,366.172360978925,378.633693524893,387.324724308963,316.441126999961,348.387356988334,339.785196705243,347.869658918261,323.874259103618,374.248756795512,311.606987712609,348.814503026786,306.022592462127,369.593569522305,293.662570352614,318.679780019088,301.136980807721,311.13116411555,254.284490222704,239.247128452946,82.9253308826478,161.030219130474,251.495305693623,102.323376690362,231.135992828752,-97.4400795456535,340.718756174346,187.488689661016,-301.49641812949,693.083521240216,-150.395266474262,462.151244187899,206.846507023969,262.862170191849,127.236424739762,50.6998993064033,417.685966620645,448.337803385826,125.406243160766,331.375338473492,226.525481226523,394.838930749852,498.715518804687,285.178958555444,98.7251545659178,543.312468464616,-111.231913204546,615.046905847785,911.351138280192,-214.471089585279,846.036859414508,-272.005501916609,393.786405997892,656.055233214054,1125.0261115219,404.843955282174,1084.72426311176,463.448708271801,871.707900102207,1108.94381267871,961.344439824035,595.359834432977,904.495972134977
326.224112825614,344.17201152185,307.262841456794,331.819124533455,352.47765314379,245.290159704622,298.18679179743,320.247589014368,291.178374422323,296.966003918131,366.882379871687,240.417932211901,307.891764165175,315.839445401004,228.065193755969,224.05617521614,94.8976054245782,117.111141018559,271.862221142746,83.7064180119239,129.462493693161,-153.150753432974,-215.903648717934,35.9990451389468,-438.035431262522,-273.890178691399,-862.193071653861,-193.383046579622,-759.048490287403,-675.636966819833,86.8610887903136,-336.636437840806,508.407761678745,-166.012026938063,-100.705265206387,168.224815943758,-39.5889389707242,314.588662634959,180.734709876082,-142.92771951548,235.020359514245,232.479546471812,370.060446162296,459.915585234784,235.948136046722,111.703376834623,536.68654743799,89.4779408486551,681.473817457955,827.144584300236,-163.904676090227,890.292822678837,-190.307825394636,635.980516432196,877.308698579689,1045.67161915075,554.896220046468,1037.15608681718,496.089345988864,900.216129177751,1037.43067913,875.599512289969,570.34753613877,856.884620608461
257.714987720944,288.147703586374,238.720734289488,265.104338993178,297.982897032356,188.134991246841,243.383958794146,284.036490355783,238.640438849415,256.492514543733,335.270281550714,165.79160684649,252.541268675067,300.491836660742,121.885504508768,141.195908585677,-66.8682423274709,-61.8139380086982,145.078840536108,-60.4631979991834,-46.4065506181626,-345.613532169134,-648.916391072469,-286.417420996703,-999.727280003361,-1062.85509926416,-1468.75708035999,-995.703205153935,-1617.75516849016,-933.878002765161,-556.213793603546,-468.182633905794,479.034971730339,-506.842396551626,-444.793947133812,48.9439160285302,-134.077283548767,162.203156949065,-108.209887753211,-397.871121391529,104.563041862807,232.569335562817,328.608930561093,376.811737341407,203.032403702028,201.635180303756,463.515479176598,190.213696077577,576.864584149298,660.836780654556,31.5253786687744,719.53127508611,93.0620532626691,703.711160223423,813.680961783082,821.944033964159,617.689981312179,834.778111269118,510.445963501436,791.175000034586,855.520151414502,743.233871458169,504.189934232272,736.259892185937
261.822686430078,288.161969538275,240.440095002895,264.59076198322,304.375994739372,212.587539525936,260.262941815398,295.396664117686,259.968939355358,283.392012161559,362.877569035792,186.009073936646,273.768187046296,336.478455340522,157.022036630526,139.466285772392,-26.7627882088518,-7.94339136218696,60.2731713837467,-17.6347228994944,-109.501959311826,-315.434914129541,-865.994691519623,-415.334636687437,-1248.67270015262,-1636.33489165922,-1550.96872109498,-1485.89634806903,-1753.74991346943,-928.252091709035,-900.546122274872,-436.22566472796,516.321807386242,-588.606948599365,-587.653060548217,-110.084199947939,-170.518056803115,133.470258038113,-272.923089370574,-436.221433640153,16.1350725249076,327.452049426801,283.063798406692,322.877682556877,232.100830812996,187.516579029175,379.365507671389,210.135712476271,457.715338399584,533.78083872855,166.593846261379,582.184013280243,304.933808966165,587.406020668275,651.450058504656,659.813992680444,529.396256280392,679.355284411466,494.655625616782,647.91395310741,699.243265700214,645.74596353318,448.414048055721,640.455271375306
