225.971396994439,221.114135653846,221.259128529685,219.809199771299,221.186632091765,221.6941071572,222.346575098474,231.118644086708,221.331624967604,221.114135653846,220.389171274653,219.084235392106,219.084235392106,219.374221143783,225.681411242761,227.348829314905,225.681411242761,234.380983793077,232.496076407175,238.15079856488,248.155306997743,257.144865299735,249.967717945725,258.087318992686,245.690428108487,249.532739318209,259.029772685637,227.421325752825,271.354167131917,233.00355147261,267.87433811179,278.096335858411,233.00355147261,247.067860428953,245.980413860164,302.165153247616,236.410884054817,235.830912551463,227.85630438034,260.262212130265,240.398188140378,240.760670329975,253.447546965851,256.927375985977,244.965463729294,223.651510981021,224.086489608537,221.621610719281,222.129085784716,222.926546601828,220.244178398814,223.361525229344,221.839100033039,220.75165346425,224.448971798133,222.056589346797,222.346575098474,225.173936177326,221.621610719281,222.056589346797,221.114135653846,220.896646340088,220.606660588411,224.086489608537
1058.81728269378,1035.62469556434,1036.16769057667,1028.49035087788,1035.96868950842,1038.7391293066,1040.89262111041,1081.50093821366,1035.71422370364,1035.18971693682,1031.31479886847,1025.2679007508,1024.47043993369,1025.62892639627,1052.94652776645,1060.85838848038,1050.62664175303,1092.05090791892,1084.19451194153,1103.77639578813,1155.66984278475,1186.5806689082,1167.45953465529,1199.31718410409,1143.46657362047,1166.04803893207,1210.45877766576,1067.3645796476,1265.74790489153,1087.47242680515,1254.96341417114,1308.39631806545,1092.90965964909,1152.17735169564,1156.58697233973,1410.78538812039,1107.26496407304,1106.25292703044,1066.38369291949,1223.84630425878,1125.2421773047,1130.00699741773,1189.33598037734,1208.09507926885,1142.92649169641,1049.04191592773,1052.33831903686,1039.55507836923,1041.45556091238,1045.09450142146,1032.5117183662,1046.57849358261,1040.07958513604,1034.70218666103,1052.89834575057,1041.03907053038,1041.90757124128,1056.19329231557,1038.83011399004,1040.89407765454,1036.13217062977,1034.95519592168,1033.79670945911,1049.22097220633
1981.29536151539,1936.62429053517,1937.76319778425,1920.71256724326,1937.21150413315,1942.82447972574,1945.01491315501,2019.15395502764,1933.55152786645,1934.19784468107,1925.17429846789,1914.34998789932,1910.27606876272,1912.02791994994,1954.79152151139,1969.38488083392,1943.49372954904,2020.66455354311,2008.59950533285,2024.28006140481,2134.20128024951,2159.62583781923,2165.82976468689,2202.48762013307,2108.20323841336,2163.59001764773,2256.48561666023,1992.25192163877,2339.43628026851,2023.79758588802,2337.77308120641,2464.76826440329,2046.1897991121,2134.97235506576,2177.87854181396,2594.37262199612,2070.55372602149,2072.37195738553,1995.24677365569,2302.96858238993,2100.11846714781,2122.64952788155,2232.30343876425,2275.86577219903,2123.70298617836,1969.58486287382,1977.72360206654,1949.77106949483,1952.85103939262,1959.34736546152,1935.40859270734,1959.24873824176,1947.89231323558,1937.32716305431,1974.57579544779,1951.70234253679,1949.61333905842,1980.91988654621,1944.73620841977,1949.12944726273,1939.90220539879,1937.38008027873,1934.61327896065,1962.13440165383
1877.42057025763,1831.67713433695,1834.96006349031,1814.04241909768,1832.28534332529,1837.28694939493,1837.53064149261,1903.86007390798,1823.71303618028,1826.72386878027,1812.9735382782,1805.76043688853,1796.25769346216,1796.67296627277,1821.10492688611,1832.13404173305,1801.08310885,1865.08101416101,1854.22518078678,1836.92355781742,1951.18137990944,1934.41929401418,1993.06673267505,1979.83671061088,1920.9365048575,1990.81482098935,2126.31462602126,1840.71492605433,2131.09507132732,1901.95995809549,2166.36392850213,2357.06733884572,1908.80929557611,1973.62551986018,2085.64387987104,2282.73488906935,1952.44761977947,1949.93939054606,1897.564965514,2197.5395105593,1970.06450061652,2023.71451190017,2128.12392366732,2185.62928500399,1978.81210929727,1882.63297627104,1890.41696431767,1855.19851334326,1859.85146575181,1867.21235523458,1841.18534683723,1859.49859772479,1847.13724451099,1836.65484066028,1877.90330755685,1858.92899721575,1845.44461441143,1885.27002295735,1842.70096428649,1848.59323815987,1840.42303191732,1838.23992681882,1831.26882428098,1858.62798157833
1023.16934508424,990.0650658,999.99466611311,982.356929230106,991.274187489291,995.586036795858,994.243115661978,1024.62265243069,986.0054258951,986.95811635578,968.095314033735,976.181034920092,960.462460386667,956.134788432216,957.090494402359,952.571303726405,946.478923768943,950.876248927815,931.402347573082,906.7121666494,944.083388702539,945.771969218971,966.331234161336,896.453070772926,935.37662157031,969.402290257048,1156.36454988924,868.95128830467,1007.43917190971,1027.31705401983,1075.3569979652,1265.47097495587,899.830192931194,1002.68788158814,1150.05359861555,861.67654708235,1026.15460713525,987.641944161473,1051.01321512375,1188.97275132044,1018.65368754919,1092.56293594029,1167.6328541132,1217.16444449602,1010.91676191027,1039.6622452533,1042.77911787538,1009.08022731555,1019.01663754953,1029.25983449065,1004.16200248104,1013.43249875656,1000.9138889432,994.326929824221,1021.85278024856,1021.3395713197,996.389235537197,1029.9226406578,999.408620889712,1004.4035894664,1000.29722048302,1001.3850770761,990.033364817859,1010.36186006148
561.537898781912,530.061883830568,551.130692158913,535.173691510767,532.38034932799,547.403987567016,543.284387550304,552.227156829793,543.779225642782,535.643112980534,511.329368258469,540.627707630527,517.236517388996,504.877095536195,520.555260833726,497.239271165185,535.921312751265,489.775288699491,444.802321447815,467.612163042705,410.447761501501,528.642945323604,404.922129118592,320.925226649888,462.747597479363,425.288146319782,661.608270089717,310.05952618129,425.402777053392,578.07346808536,498.543742552916,565.769734888958,233.825583469788,503.389268745469,617.951338263385,59.2223767306499,490.762779635896,380.744606075308,587.61385997786,595.301513254645,457.06433105204,521.901712941217,614.414490317211,651.716529747898,443.466281641236,541.960974978335,551.574324513859,518.039884045932,535.941171717976,550.051522896325,520.242000153117,533.611136299567,523.859564803786,518.138724374609,531.673037994127,542.900173384023,523.248911345171,543.676855407137,533.471438181562,533.92340098899,527.333328601895,531.925294715496,528.287958843237,539.618268825998
520.07022454819,481.540823453857,512.004175501555,493.972163677779,483.259897526291,518.128610612314,507.727619727752,506.745003483525,513.715443417702,496.742212568579,472.040335383784,516.385843657855,486.969818636144,466.613610859992,511.84015479933,474.368238081829,546.714622115616,480.747157111996,415.269197230793,482.194191989382,376.106348019761,595.09523390527,374.601283978996,278.899813012126,517.454420804723,422.1808249399,652.428992275122,296.380745206257,437.736410782508,565.665011723887,508.730219902784,359.702949429116,94.0375284367567,487.721339573387,548.615938437381,65.3830489181187,408.025999564333,198.680681012754,518.951461585452,489.185645380394,327.88669940901,361.053755407274,498.438616721127,537.755434081813,294.344306585505,430.400242388471,457.241633747807,426.647869562539,447.47197729841,457.54842127253,428.458064362114,445.742148503461,448.326978252668,442.14183238003,449.786935199672,458.122969000224,458.317169721541,467.154716853348,474.065640206024,468.849533989085,454.163021155948,458.989738946894,477.193374114926,472.425183148965
346.200257970848,308.888216051147,340.282164944069,321.626235408908,307.96494028757,350.30514982467,333.711861746786,320.08031131913,343.719139903383,324.968435882677,304.623888358142,350.762668054776,323.425582748106,297.848997139245,342.64109067082,299.502698561916,379.286841987861,306.866432099421,239.997425260567,308.02205265553,192.248164909725,422.920900704591,223.788434826003,84.1352075991903,406.679436820292,297.397193812696,452.938377307705,237.312040095832,290.938534945661,397.353169828506,370.738003409896,67.8376766954611,-70.5687160332687,312.532023024473,339.112244332535,13.6841018244115,192.506020246244,-126.30295719681,296.374104300326,250.654357279843,80.9055771038172,56.5985808010459,216.846376208807,258.229472867853,-8.69835583025458,216.54855205351,247.080710780978,232.974472072864,245.858045597556,246.182933441321,233.337691728734,238.897459502107,259.21942073024,256.460723780303,258.148513555453,259.913749761504,277.515087996686,276.241248801067,294.031400737393,286.228286983542,266.914985349814,269.316313457611,305.097943465368,283.106681948111
83.551310040865,57.7497371378784,81.8625659480477,64.364416212047,54.5371656061224,80.7124660996061,63.798726848268,45.5684207391092,76.96296495042,62.6228663109025,43.5650624958151,83.28502848634,64.2813400239285,36.2542117767656,53.5388381387476,12.9918590093051,78.7151155977762,5.71541140891269,-50.7028936201283,7.2608349754977,-112.843896452169,82.3332979876674,-49.6545718910349,-232.005999656294,125.952886001276,39.4646219305283,63.0601789614059,72.4826766344707,-35.4348289591989,83.7926588417734,60.5202340910187,-245.413102680217,-359.724183843595,23.9270697663844,34.4205213875556,-276.399550639372,-185.132856827858,-521.12773483851,-16.8414214019727,-95.8466369997587,-201.564305736973,-311.096274860298,-156.462661002467,-140.89124410338,-355.880270425518,-19.9934697416621,-9.46090373199515,-0.110980544821821,-2.43365500851721,-6.86552701754411,4.57880815353694,-9.91238649765227,25.6236256297221,26.4938227975882,17.0429380580125,11.9939112680332,41.3798951883242,27.7557839705876,54.7117180965581,45.5679072328964,28.5169227144266,26.1812860651649,64.5529049806008,36.153058415474
-39.4447147739896,-51.9441192496694,-39.4792843986503,-53.1411988589677,-56.9700718467816,-55.8257756427482,-65.6631630189554,-81.3035681251421,-56.8915520121854,-64.9539447536357,-83.7276987111379,-57.7348931448672,-68.1718998184267,-92.0330639139963,-109.458486783951,-139.926849464915,-99.4122703777808,-168.80128069684,-200.362119562349,-145.800475604134,-273.904006645052,-125.880872123673,-191.177126310225,-371.0488892269,-55.0398938075737,-97.239218955309,-244.091727604849,17.3232851366097,-226.512959118411,-138.067228036626,-134.926499178067,-366.732215192761,-552.504765844223,-111.992633086717,-99.5154600016645,-548.179873860576,-518.904706473826,-654.187165416523,-183.297325719546,-337.503424073743,-292.481145105652,-471.685635082108,-359.890193304866,-403.278233783351,-455.177225539992,-80.1614694658225,-96.8086738308489,-69.2393667570355,-85.9915457428471,-90.9632369638534,-56.7184077405203,-89.8227934104727,-41.7640275822311,-43.1239587180637,-63.4708220684413,-76.7785378348473,-35.5353057474527,-63.3057300858025,-27.4776031369164,-39.5276218706333,-51.3924974967127,-61.5163270119436,-28.1006175093293,-51.1860129808289
-104.197711037712,-107.736137179421,-108.414231683521,-113.597242620016,-115.400282572201,-130.077984311908,-131.986450605747,-151.492600811617,-135.092593717648,-139.280824072138,-147.98047930993,-148.900559866565,-150.475748290739,-158.740825721147,-219.304407461546,-235.062537092542,-211.93032589794,-291.95474534826,-276.205963455633,-244.362032939544,-382.555126221979,-301.593198482484,-293.494181367804,-404.270753444813,-217.104840483173,-200.936135239572,-476.782474208838,14.256407231852,-292.141145586643,-283.787010948444,-275.571194799398,-422.885219048987,-595.58981825673,-205.581714099595,-171.319365275804,-753.123875371949,-798.209878734327,-548.7669499819,-284.257853642196,-574.723075248932,-333.387904686067,-509.01898100901,-496.16562751452,-609.480542931583,-406.808451472197,-95.4786446571609,-130.587009944648,-90.9113393700259,-114.997793704736,-124.769425658626,-73.3450893733448,-120.274200899076,-63.0156285280803,-70.3970393591736,-96.8428811942419,-110.996880882271,-64.2076440801383,-99.886756210781,-61.3029730445461,-74.0795490527606,-83.5120612068146,-98.7016181309641,-71.9450631552051,-87.2516920464576
-204.859151888236,-205.526320299165,-216.400352465758,-215.129777533929,-215.254469745734,-236.690497692808,-236.893068457466,-263.687229282989,-250.800937154218,-253.941266661132,-245.676630059506,-275.243449543499,-271.228750896492,-259.892594440134,-368.481996768863,-379.615669652113,-346.96141482512,-460.285969303334,-391.74157625309,-405.610299494674,-558.200411648804,-571.868768365712,-488.535895605316,-469.943378930053,-496.81619596473,-397.684304280604,-726.284070763719,-79.5694065166764,-315.893527332241,-415.305202910838,-438.372475701282,-506.416449727115,-524.970152757376,-400.005656354887,-336.768570291543,-855.104775398163,-959.079931978541,-335.971472278937,-408.707006757054,-820.331240028263,-442.115224780331,-518.101117166657,-647.437782047921,-792.359720545262,-348.143244920706,-176.656776375925,-216.977845789912,-171.583834101733,-191.896218313692,-209.671605013723,-154.131186884196,-203.797653059705,-148.086978844413,-158.27356058641,-184.27183604898,-188.586887099215,-153.471537317234,-184.262281190908,-151.635099015798,-161.056285170149,-168.685683762335,-181.553202818167,-164.448555064349,-176.287683918143
-274.039604229805,-275.023769008052,-289.690956867348,-287.579251192488,-285.605221587624,-314.948748405443,-313.959990875215,-343.925505091813,-333.704877409273,-335.560338721557,-317.023769835349,-356.594854477819,-360.449146029175,-336.062709904215,-474.574124377503,-503.581717416216,-439.87353157572,-582.246528344931,-486.682404160977,-539.315062776344,-686.845480962485,-798.905174769249,-667.217741948411,-507.275487375452,-792.170498524778,-570.495368093257,-952.467842003058,-244.520623956675,-301.738689606666,-509.085439779843,-494.482897761663,-589.98607609587,-320.35113537075,-593.77115314057,-554.972448736736,-733.23929642341,-812.417668399661,-52.1612273664881,-487.322359228649,-901.582959000683,-519.819067702845,-414.134094762164,-687.566618249771,-785.467021185449,-249.44599935497,-239.389758120374,-267.086836351982,-228.112866720904,-236.911701050916,-256.489524692355,-217.325325027695,-254.068083762281,-216.303428598026,-221.647444463076,-240.005773649599,-234.43149617056,-223.207621855922,-242.432335925458,-220.093261370928,-227.227660771207,-225.913138652432,-233.96328058277,-230.824270172594,-238.017093925921
-303.384270310008,-301.610821835794,-316.351839428172,-311.492780012575,-313.044739386172,-352.220222114939,-343.57212479001,-373.614859248231,-365.742885522786,-364.368123848523,-343.383954205959,-378.677550758683,-400.644142700774,-364.340373409798,-504.867839740052,-561.514493370446,-462.645235164029,-608.590516738573,-518.012990659508,-586.471817714326,-677.453885121938,-831.671428223589,-712.900637632832,-475.846007980664,-933.65966170687,-612.311415286664,-1041.27494830783,-396.653940411161,-380.623065428705,-559.314648426771,-425.57058770358,-779.740232408762,-41.8708376234453,-672.656626745153,-802.349580873499,-475.099405801892,-366.272363804948,185.767985493739,-514.118069636799,-820.263968524279,-539.324692522899,-219.479058833846,-613.261452675114,-618.983183858939,-141.044824102063,-256.050248370213,-256.96518567608,-237.142500001031,-234.36158637112,-247.157579230451,-237.959610397713,-253.489671549555,-244.122293352971,-240.285498633563,-248.572414442616,-238.201779852054,-246.378218605159,-255.19369999123,-248.070595511183,-254.200382078971,-239.271430680711,-243.744582705258,-257.746192381192,-253.368940868011
-376.107589509985,-367.0928113338,-383.976518636362,-372.696159932357,-378.2119449291,-418.012682572656,-404.927458396129,-433.747996533742,-426.030829680928,-421.728395076736,-399.134217069622,-430.350376519108,-463.610580088691,-412.764150861347,-540.004084589135,-609.465977521721,-480.074751894655,-619.052510896961,-539.817881947808,-607.455048987635,-604.467174623053,-724.716921654184,-656.830442852154,-466.591640383669,-865.047352559183,-597.582800310657,-945.948243500836,-480.552800028424,-638.193146890718,-584.80371749964,-366.744816082651,-1103.55875991426,141.174949587207,-666.289940509519,-1057.8179845211,-332.90577092262,67.2895948811769,224.270104101108,-572.290662481715,-730.574247492985,-573.24431721028,-108.260276493302,-582.780896558342,-526.368655704653,-108.632318902168,-310.57811180514,-293.228883598724,-294.613701552991,-283.764846796153,-288.169140756515,-301.716297916248,-301.911389662531,-316.392442934479,-307.184149141943,-309.608975634568,-294.77547756209,-311.370548804621,-308.302326478549,-324.332933435166,-323.297004808366,-303.09950823369,-303.35551506971,-332.813803954689,-315.923931701676
-495.008721570841,-478.931012409147,-498.767507405549,-486.546072974066,-488.639462481037,-511.963309972296,-508.086017110089,-538.117647171361,-522.843508599923,-520.88845001229,-500.700086238992,-518.745372777391,-552.440903822601,-503.040189106021,-600.707428372492,-662.500776254421,-515.436926481473,-655.187429949492,-579.229446599089,-628.030286708248,-543.726701458342,-616.845473858402,-560.588948046921,-527.898039902774,-658.518884887417,-617.402487091558,-745.709252070057,-471.332230677506,-858.748076118343,-582.119879027878,-356.786901221688,-1268.55724199798,130.340768971195,-623.803604689188,-1150.37218805321,-372.837432614677,181.127503987599,59.2320968980665,-657.633030166819,-673.184484001169,-598.98916314329,-160.553801079495,-626.068786857525,-561.298516298645,-161.367778048324,-422.815272681813,-409.771255150193,-420.537083193337,-408.979221154044,-407.813669753972,-424.24799810465,-420.698213251159,-443.16615348118,-435.001914784637,-438.910689566665,-419.996667903102,-438.189871354145,-423.023699398637,-455.486112890062,-445.364020151595,-433.616711965174,-427.517609317893,-461.826210101276,-441.834931348233
-594.988472398773,-575.889702998079,-588.512276450634,-584.87666949931,-585.617737825391,-581.936522150495,-593.266646961429,-629.948616642862,-597.749384552071,-603.105709127977,-595.368228954694,-581.122886455586,-614.607194505949,-594.218243660176,-630.663514270257,-678.994442170137,-525.466275050387,-675.679154078471,-617.135123966967,-609.005711493639,-501.928537922931,-549.557063400165,-477.180974958507,-607.532440110527,-475.969461340402,-664.816988351853,-571.007597934739,-427.653837126984,-867.743313400052,-559.875128578121,-400.285107248289,-1093.25684965417,-36.6185519135243,-559.378181608827,-984.265283059512,-492.274196036042,-18.6822090044207,-202.846828751264,-692.633317400805,-608.937309357959,-575.707184167076,-314.026542974733,-655.766359453169,-600.971769037023,-289.906115606485,-536.638550759119,-538.437000998926,-543.099626813272,-540.221585309335,-535.678432727166,-541.982433791702,-543.232989893171,-556.916320154355,-553.927587585213,-563.398990099626,-547.335574771006,-557.974368555167,-544.01423858272,-565.371897402689,-559.852249516439,-559.579352909005,-548.023369529501,-568.321044114937,-561.589325623688
-663.985830020833,-647.035030001914,-640.920187738255,-645.605054220227,-656.62009007102,-630.909521864116,-651.588153275806,-693.898194244541,-646.232110321345,-657.487085497917,-662.321148319703,-620.561181267327,-652.611152354217,-663.454769856188,-630.144118977875,-660.122769317863,-507.323507732747,-664.46893793306,-643.01240902193,-559.736342404508,-475.48739044508,-502.545429344456,-463.151904094678,-656.867017971874,-439.712141295387,-689.524753825627,-499.163898438924,-460.118287525101,-815.587229366598,-564.932020998182,-609.677227356075,-831.34385915458,-268.581288281212,-524.018476002499,-721.189240459454,-646.633862678539,-284.860237803969,-451.281810764345,-668.337074143548,-562.736557972671,-560.970239225002,-497.473655736747,-672.241009013118,-619.686127343655,-479.694949756881,-632.409011549522,-646.137118789129,-636.262760223217,-646.011829154816,-640.752296596804,-633.653937012684,-646.567747344447,-641.570396958103,-645.893015755305,-657.544045505339,-653.318032442146,-643.753563039762,-647.644576934484,-637.766181843855,-648.012512261371,-651.824960639781,-644.117978618359,-635.553474292338,-653.000249328627
-730.748282877532,-716.173608414124,-698.943425653576,-700.585265618203,-722.666755860171,-689.306777109277,-713.807816187884,-752.198302104065,-703.614085227262,-715.295640869765,-715.003649253312,-683.097755139722,-703.687460885042,-712.788771518209,-659.276010348572,-646.7065755128,-523.148233747548,-659.779636028613,-647.678730439748,-555.527753966599,-452.691602698869,-500.858816335912,-495.879799932076,-658.827878294557,-503.460843339316,-657.774689633834,-516.968153126433,-577.891355005191,-813.899300467204,-637.354907016912,-996.899627563762,-697.502516132509,-466.427594541112,-569.957043141626,-534.806538044727,-769.110036867246,-417.509900481584,-601.656940351872,-631.187014261048,-556.309147483744,-566.041590345041,-652.662635702766,-702.822438682688,-656.334573376237,-645.810412695061,-723.648504534924,-742.481589232103,-719.135681567835,-739.976301571875,-737.448071519073,-718.578114589319,-743.561118686499,-723.70495819928,-732.573403018844,-740.98621624054,-749.81990356767,-718.941014251124,-739.162839857516,-708.024493300702,-725.581296704282,-728.973349863139,-735.022753443561,-704.542982710042,-735.076195030207
-792.415114463509,-772.726961118781,-763.528108495972,-755.915447588144,-773.555489280467,-746.062494522218,-772.788906502654,-798.966016792264,-769.076541349978,-771.886104539673,-751.223724371988,-764.411934075792,-766.362528791697,-742.641713895941,-723.925406245002,-652.219328732656,-586.723209765234,-680.147296842125,-630.499648895774,-613.380386248621,-423.068570518773,-551.288117598604,-496.246576752108,-613.254630747962,-525.341116181897,-575.329618642598,-555.215520860187,-667.249224576142,-721.281388657438,-753.927559668319,-1296.44385193476,-543.215665775473,-530.292585431753,-667.305715142812,-427.920940075898,-690.666032989532,-383.154401267626,-629.394548768187,-585.041567090773,-523.620411562458,-488.024665881099,-700.546623917694,-678.427473285099,-652.856730008975,-711.147953755849,-789.750566380369,-805.049149992072,-777.115511210983,-803.175907595943,-805.604012761077,-784.372982476966,-808.096618534008,-791.084065799486,-796.239359446648,-801.988011357521,-813.280710161253,-775.909953270759,-796.080195605568,-768.763274466956,-780.5321679739,-782.249323817053,-796.796186668005,-770.934995222757,-790.18842754557
-810.466632977038,-783.910727211601,-786.811060412144,-778.005201939439,-775.80705050358,-764.130573833681,-790.423747664033,-802.249624982886,-803.049511950212,-788.604487415136,-752.615914963754,-812.854523397277,-797.735335899717,-746.088618801336,-756.423613289433,-642.215734142765,-620.954968267603,-673.639073191429,-607.569139370823,-637.242538048794,-396.934310887509,-553.838000122538,-452.44967105138,-539.202841774427,-432.843414953197,-466.075495002233,-548.186887505624,-632.601588853167,-457.575226687529,-805.353125966403,-1228.60458469405,-254.097953840264,-419.127191025593,-738.578528852976,-343.982349238196,-350.065940563333,-243.753680647971,-563.709835435802,-493.519307805746,-407.414087316319,-282.187193537633,-612.101417872861,-539.998456012187,-545.315984108759,-686.475332919022,-789.278670218417,-795.203227550693,-773.659467338317,-795.133620272604,-801.262278645662,-790.982252309009,-798.688429790138,-801.016429390674,-795.690775547044,-804.247875835766,-804.356813526444,-778.939084773338,-787.950434684893,-778.037943535989,-782.48172186995,-778.826616936404,-786.499715543981,-785.355081166169,-784.741182216358
-780.489493167475,-755.926226888718,-764.953732623209,-760.221084565415,-738.343101944668,-747.913790592596,-771.421817272858,-769.541789463849,-792.143379347803,-766.330633648995,-726.474400640045,-811.980687430569,-781.778705116759,-727.377682452899,-736.011037858131,-595.777178528619,-613.638110791728,-591.511215978571,-590.065780945243,-569.937313113393,-393.181827795532,-453.976744375402,-419.477731528271,-466.802741492082,-307.668218418244,-353.370860232499,-505.528900916255,-506.777891400412,-190.307233780448,-700.667351446186,-863.1927575735,-15.4440755779831,-225.450988672961,-740.820892894969,-273.517063544964,50.8652663392351,-108.049633312209,-447.22257324564,-366.526963008837,-272.943273822097,-63.4527330520166,-474.169698615308,-366.314301329879,-398.132213533165,-612.677938118629,-739.238116267417,-732.608048347262,-725.251077920506,-735.353142465599,-738.836270510711,-746.300269628773,-736.84390389589,-762.728928397197,-746.795275378988,-755.441820869931,-742.040885662497,-745.231290825264,-740.96135305101,-749.159654300776,-748.650451514451,-737.247867876715,-731.467431313442,-756.179470544854,-744.354227064772
-766.006284458723,-741.59094460653,-762.629028495315,-752.096710257402,-721.803989717122,-754.076567698273,-771.804080392535,-756.979575866876,-784.197068504227,-757.05527481432,-714.38453774973,-814.733785201639,-763.325208769846,-717.792336126732,-733.934535762847,-563.10383549493,-681.98703160688,-483.11404658339,-583.320411458965,-500.905174643069,-430.067886044783,-387.404154936423,-427.559593718027,-420.750000860678,-321.900086357426,-279.454151398615,-516.721163216221,-413.93990265983,-154.872957271626,-514.624450644318,-538.80631732397,-25.9628543235224,-110.805812076765,-682.445964604676,-234.095107292729,211.353582584382,-93.5957250247527,-348.203554647223,-281.277017236379,-238.112841617104,17.2915667315857,-409.602411275024,-286.491522012731,-314.53739341934,-529.643532953874,-714.917271894746,-690.388158486228,-702.415034962652,-698.69355665449,-693.793909782914,-720.227476238204,-697.304481295478,-747.943657526255,-723.535374772388,-718.094171703812,-699.633173154707,-742.761759063805,-722.212757414223,-754.045735807512,-743.356953341148,-723.926975007837,-708.571045812425,-756.333118032694,-734.684460090872
-786.964006810472,-746.159812061576,-787.128226422097,-762.401946995534,-730.297544533535,-787.70093368809,-789.729525877648,-760.760344530908,-797.314937509072,-761.086411197617,-710.186844933801,-839.056959754295,-754.136622642445,-713.355278476565,-765.516309857015,-583.299023669108,-856.67568503463,-408.948309359707,-563.530469444801,-488.272003823039,-481.30366138834,-461.25595519936,-444.697183960726,-360.84611490651,-494.846248649561,-270.819179209223,-599.257830572913,-426.11553406331,-431.458013807825,-391.676783825461,-464.803094515935,-229.776736245485,-111.144120414329,-579.411523141669,-217.003567938042,67.9991344884822,-200.799640342117,-325.165998851408,-268.398311312465,-301.151967682245,-43.5636417803825,-434.375838390039,-298.526761365172,-296.733405281049,-474.701410816369,-723.760007346355,-680.542440108138,-713.708081491595,-691.449457678581,-680.858044220928,-727.68098026529,-688.609354112683,-766.550294338988,-732.878602543135,-708.586513424947,-689.953841993802,-766.426927002365,-725.984410831195,-791.523850845669,-764.244838671572,-734.647154888354,-712.858615477463,-784.548958352081,-744.628870258003
-783.464660179941,-722.980219034449,-779.372533133047,-742.008236112255,-707.989719650514,-793.656783873047,-767.526618630689,-724.603805021688,-786.729785694504,-728.755268222517,-665.91500880735,-836.381436809837,-713.712983733985,-671.875473424996,-747.690798463915,-624.509447975337,-1013.37888930947,-350.609713897453,-510.063709279944,-447.834895255575,-501.655512023479,-566.075201980626,-446.855510116634,-236.819409136262,-631.429975695967,-326.833368990037,-644.249568377992,-530.028250499335,-895.302524958423,-373.756982287776,-618.493052528281,-461.270120005062,-135.410525741642,-448.105115987546,-241.809015170266,-168.867906385251,-311.034068775145,-374.684643542763,-288.090266333958,-372.418143277352,-134.990341982233,-481.65485338439,-314.21614289642,-307.120301143653,-459.65618013612,-705.942727631603,-654.199648193952,-703.222726426864,-659.736614390526,-649.334663145361,-715.741713833775,-661.177651172339,-758.90981126233,-716.380271712074,-685.325618569922,-663.682763067171,-754.866696744238,-698.008790416368,-791.396085003921,-752.337124303607,-712.476209967487,-683.958830831467,-774.844672979688,-716.330406213093
-771.770939137401,-707.138832961619,-771.733699759313,-721.125934824296,-685.84632453368,-795.839394303728,-739.791321578465,-692.151135298066,-768.1843280408,-694.667962597684,-623.644204686934,-827.550887560731,-673.016783564339,-630.165605333508,-668.071930515657,-660.932260491379,-1072.86345762869,-316.420063029976,-495.933996294938,-357.655408223334,-533.645697313417,-579.019318678974,-486.620137048975,-146.525855165716,-629.228915700006,-490.484605030707,-609.475574366042,-697.485946504382,-1292.89459726107,-459.060838493642,-923.453761175926,-650.819869878779,-177.392315829041,-361.518604854954,-427.356253770998,-349.108259378115,-380.308820500113,-493.873765518179,-362.121176293214,-460.191144274822,-230.0476718116,-559.124891243269,-350.276396732092,-385.178150912253,-505.521252597702,-692.539858182888,-642.900789993679,-697.11015059174,-644.259217855592,-633.483986277561,-711.518051080212,-652.657000594158,-754.830764407982,-708.202935232463,-680.025301136148,-652.600864886276,-748.405833400945,-685.674497864582,-786.519583360858,-742.713152569097,-701.142560444708,-666.52198125238,-766.30820230962,-699.005116229518
-823.227608983189,-763.89872856015,-830.351276506769,-766.437951022911,-732.411894855679,-848.165272775547,-776.454803161408,-736.369269729298,-791.66866137266,-720.501198439693,-655.403978637396,-864.976359757439,-684.262916919006,-653.593768538513,-598.451783441646,-677.364309593952,-1019.86682318712,-371.238063266572,-577.583781259698,-338.147798349266,-626.109961546815,-521.959327211555,-598.76069863701,-208.129447641953,-602.800368867649,-787.966087687739,-589.157152488256,-872.039722625803,-1376.97961077816,-652.065937969099,-1240.34506277774,-718.386901069847,-305.563698648146,-415.47927317127,-809.983082939246,-479.009141084162,-459.745224424872,-677.112295504144,-536.298774806835,-614.657775607067,-373.032498878847,-709.022202168528,-464.557795959658,-552.067736003691,-625.704089269348,-754.898041245306,-710.922092322009,-758.915413955067,-718.378913197516,-704.905095189248,-780.095233837841,-727.039765866222,-823.417436965758,-777.412354855546,-754.185492726491,-722.943296367667,-817.358389036839,-761.157325260609,-854.718337708997,-805.632350023675,-772.542826401083,-737.244283412387,-834.510989514329,-769.199891288191
-883.435149736637,-828.748620193707,-882.499103781851,-818.611321434789,-791.310823673054,-881.748277605894,-813.766593460936,-787.763539917958,-799.68348638318,-744.122306822243,-703.928741778824,-869.001728080318,-682.439417818336,-687.405381733713,-539.652093331661,-623.938986443873,-827.032516701377,-489.949739143675,-635.459227987465,-440.949693522086,-689.736319515516,-459.624206896432,-704.068942771515,-326.574645403721,-640.200728236576,-1092.25516244228,-635.168033944215,-982.479984985038,-1125.37242858535,-862.722783448004,-1352.54071859997,-567.306156879241,-492.725552272374,-594.141363318699,-1156.15177564345,-536.803502651858,-556.722640542399,-849.206640733699,-728.767454163645,-755.580925570833,-533.892956883191,-859.494609009952,-588.335636101044,-713.442987593095,-753.650192447291,-839.801352306762,-808.136114529632,-838.694875645296,-821.555733452284,-809.843038026246,-865.809751435562,-822.162520175083,-903.296082031023,-862.841506458575,-847.631132961924,-821.751891937742,-897.331785035243,-858.789410926617,-931.279446683003,-884.723146818261,-861.617024999933,-834.531958364837,-911.153545796232,-859.747045227933
-861.780022925469,-817.704224748819,-837.823746553056,-793.054759967912,-781.593426148801,-820.005715725305,-764.269336481872,-759.270562217583,-721.730370605906,-688.805224941246,-688.264401765928,-744.581195385075,-596.744884409995,-653.997477201507,-426.971025162011,-486.656225583918,-555.417954702171,-534.313327131068,-537.655017929357,-556.859439364182,-615.388657945277,-426.25852211818,-722.604121467479,-346.310128955201,-688.571387055462,-1205.94389708498,-680.645859779739,-1017.1489525721,-803.63693259088,-944.205739477135,-1206.58383252569,-360.307720398559,-684.844941628563,-773.484507917257,-1214.36609359801,-521.825085971313,-672.638052534451,-965.254682352274,-824.320452716903,-771.635014592077,-675.793603534959,-927.553339715518,-635.816972557691,-808.502099756907,-838.911632555333,-874.302068059249,-865.993680453964,-871.158913723196,-872.100065264236,-868.017792217904,-891.569129959597,-865.196905287457,-915.321678100103,-888.351549053689,-882.811999317375,-875.328055352439,-910.721815492166,-896.95165393233,-926.886464821031,-900.611079818013,-888.464152807265,-874.008899372918,-908.112527167509,-883.145845982911
-804.171483007511,-780.407649916689,-754.337990718094,-734.886239527351,-746.942087583688,-724.547546669284,-679.996346608476,-703.595425955109,-615.971372477461,-609.60640150568,-650.140938055756,-562.963647182025,-484.499015454019,-592.184996885091,-254.149951941552,-338.842176182516,-345.843386066804,-423.898158590335,-356.012002118745,-565.865930857841,-433.544972874376,-426.082155123286,-670.072063075182,-289.012809037363,-671.871872564536,-1066.81297099471,-651.989435381789,-983.19360551784,-658.232901041382,-865.325171711327,-971.981713732692,-383.679549848604,-905.698056099476,-861.839317122079,-1048.60610623571,-547.806566918316,-845.233548568655,-1060.34060949679,-846.690882324571,-683.540232731867,-828.293852529927,-957.122516395677,-645.929291315096,-898.193394847475,-930.342743274868,-905.230805840481,-919.53727820222,-901.292094825793,-912.513008756317,-913.126541158104,-902.316318969121,-904.773270500664,-912.188624256094,-903.371887470046,-909.2119681099,-920.115034747429,-908.93708956106,-920.384128567838,-898.798390628086,-897.425493542426,-900.661203717736,-897.730116662168,-879.052106476708,-887.733322860998
-764.489671731481,-760.199274129872,-693.26851992123,-692.885290184627,-729.907096835218,-650.22635186341,-619.484846562778,-670.31354734808,-539.16261712857,-560.688099650535,-629.190414244056,-419.380469614247,-403.374986481281,-545.127952998344,-81.1426403012113,-232.102935497108,-222.015010182809,-232.772035150895,-221.9358855869,-456.337644324167,-233.218114079052,-426.109874455329,-547.378352421401,-242.466213027529,-562.245450371742,-772.018964939561,-541.223368438848,-851.769101101051,-630.683055139379,-704.420865932458,-759.033361696856,-569.093754462003,-1126.99094393969,-829.953588796472,-855.018268734556,-632.094045151697,-1031.90946274696,-1089.00241432993,-855.697536969253,-552.653926222725,-951.646618937032,-972.820484168158,-653.11920634849,-991.750591467445,-1004.42910198187,-952.279418377978,-976.82460999515,-944.89104657098,-964.333163930852,-962.787138455446,-929.330340729885,-957.53068394885,-925.933000104039,-932.605853257522,-953.694284006154,-968.84315834842,-922.722420445133,-954.818515976286,-894.104133390052,-909.587038292994,-922.98562076825,-931.080232195269,-866.578881443109,-908.837860694799
-673.750418301645,-679.696117718006,-590.857782456812,-604.781572771523,-659.36306030788,-534.563296917613,-522.855193577534,-590.50558794065,-434.556552330672,-477.95184378186,-559.615027829641,-276.63625526744,-308.327632810487,-465.043078653265,43.7708462635956,-124.097101482675,-98.1827021889517,-83.1856728069454,-131.522524726793,-299.9840881531,-70.3094119760471,-403.977403026797,-321.784060287566,-216.641004557276,-389.639687749715,-466.659605636444,-391.904271635314,-638.885639948711,-523.725874590128,-521.682074259635,-521.551729324463,-612.548450337266,-1205.39749279235,-673.636069332608,-652.344498281647,-619.753132359444,-1132.46486009821,-934.132121167758,-796.320443156147,-379.478226318089,-937.501092217664,-874.77792325115,-598.861956837891,-980.842815287847,-910.847809253798,-900.929721904166,-930.964907789881,-892.773303407004,-919.410277301509,-918.273858938651,-873.403598378054,-908.419097868148,-853.640532605597,-872.289163851591,-902.645117318733,-917.729281741337,-852.97892541816,-900.45517533831,-813.671210636162,-842.201913895951,-856.504578504331,-873.942322052773,-782.169979017912,-849.144600138369
-525.741900184973,-533.291358799279,-446.968810903579,-470.882504482529,-528.502662658596,-388.467781310324,-394.646006888296,-465.755952405101,-312.785952527023,-361.959831642433,-445.462283713795,-140.077011544896,-215.737995398162,-366.363078403201,58.1804293299574,-44.0567504323852,-28.8523673341286,-72.5684074789455,-100.180005367028,-240.795767698526,-56.9079261218514,-449.717972790136,-146.608326998286,-272.473565760894,-289.931597499553,-330.738143119308,-316.689547275143,-495.41584363689,-385.496426362757,-409.783504395662,-328.932568567176,-528.956013777587,-1093.22394446423,-502.981947662895,-481.004130858468,-530.050113162986,-1171.31071030532,-666.453376531755,-683.023688918016,-253.955338256449,-857.927171410276,-653.836133584147,-532.757337688285,-868.832642524756,-661.892894300407,-723.972352047771,-764.759150055417,-720.693718835831,-751.985128460115,-759.47537569784,-702.946942314034,-734.498480290451,-670.047678450222,-699.136111196239,-727.227459762316,-749.106530662412,-676.165228208392,-734.371946850495,-630.4192229773,-666.970145808363,-685.651265236469,-707.852471540118,-609.183407439833,-685.405760599909
-517.737773680307,-519.984815321467,-457.238036389605,-480.442864819138,-527.397295964633,-413.077231751081,-430.000143152262,-496.273969024266,-366.410095670832,-408.625127470008,-476.129131439773,-198.779472904651,-308.541443850231,-423.88661597192,-181.251803924329,-193.951890839088,-237.717171266692,-321.149706174501,-305.213133242997,-477.262176369389,-367.260310179504,-748.521169130369,-350.468738970843,-592.824774045944,-488.004193818857,-560.836347373904,-496.714978043965,-632.436208816611,-531.12461362379,-570.081078504813,-469.748405526264,-667.893169735937,-1012.88481584279,-582.837784595335,-614.710086099137,-707.212479113977,-1311.53801566205,-594.202386990058,-779.782420680399,-444.338443831775,-991.924470070026,-550.249474155189,-710.305040041354,-882.283529087819,-565.377694078052,-645.524014664621,-696.955319945794,-645.252653334982,-677.455085723837,-694.881710190927,-621.672365566181,-658.297282031789,-583.279038203971,-620.196540980637,-649.63522284943,-675.936081180203,-599.317377701161,-665.968703822522,-557.464920305857,-588.949339457264,-617.401591306281,-642.599652313231,-548.446547607456,-623.938689054972
-791.210541242414,-781.33936170469,-750.253099807387,-763.649768891488,-795.547479861173,-729.243907720984,-747.500055437598,-812.604686264483,-703.918513119156,-740.082108305231,-774.314685594482,-559.558988933511,-681.441807063934,-738.857169708649,-734.255607279479,-662.274356635473,-782.941958572516,-855.250004199188,-811.889836189331,-1035.62108451172,-990.145158880772,-1329.72984485911,-993.261293647572,-1216.25899616597,-1069.37179441506,-1135.85210716579,-1001.75454105505,-1082.22506199124,-1076.10013434988,-1080.31157295152,-1053.82867419358,-1176.00353239456,-1231.89612061975,-1051.1438469019,-1178.1154183187,-1341.52167468995,-1631.71845539044,-921.695458747264,-1258.51720602022,-1084.02622691297,-1438.0909284708,-791.888860235533,-1257.74433969466,-1172.97152577079,-852.625862554201,-855.996694447727,-911.74697277091,-853.832010024953,-881.669367275006,-905.846149232963,-812.863922688836,-864.975691889459,-773.306728380097,-813.702509330552,-856.040430321465,-878.475505849831,-799.791791909081,-879.51936486545,-768.69046336,-789.991906942211,-820.592181162393,-848.55943971104,-761.361159516426,-836.206397841245
-1137.02642475699,-1114.19555013091,-1106.98887358074,-1111.5461985225,-1135.63713494691,-1101.03799322795,-1117.33888364753,-1187.58084168153,-1086.18597550503,-1121.06242391163,-1129.10631492954,-968.42569753527,-1089.5521467458,-1095.93005661317,-1322.19751844945,-1164.36374681261,-1351.38652831627,-1408.84145778816,-1314.4176794622,-1588.07453534331,-1574.57525336651,-1871.99143366403,-1645.00373582584,-1793.74596592221,-1734.56721592297,-1660.90536382904,-1585.41438297714,-1561.77456345347,-1607.85361584597,-1646.0845057902,-1674.96070617369,-1701.15674352103,-1631.15451055714,-1611.37646532979,-1797.83216280152,-2014.89447488577,-1934.17868420349,-1440.15081757823,-1811.12971483026,-1832.10046990244,-1859.29593005556,-1233.57454959968,-1848.97253091905,-1519.30582530051,-1303.54760746973,-1168.47320242721,-1226.91023522265,-1163.89100634816,-1186.78632868746,-1215.6012002353,-1105.14537433118,-1170.36993501117,-1069.9882506005,-1107.341696587,-1162.55865530063,-1180.52232837603,-1098.46607449429,-1195.78240346564,-1073.696723795,-1092.94835368308,-1118.38673734466,-1146.42554116403,-1064.95003943591,-1139.58536169347
-1188.51644737662,-1164.6861276978,-1163.0943104846,-1167.14268635019,-1194.63826823204,-1153.18027579071,-1176.99951152591,-1247.07618222865,-1146.92847129523,-1183.68809598238,-1192.70263982777,-1047.45298156394,-1173.7677966836,-1161.21126901413,-1507.42885461226,-1310.27009226852,-1540.84754224399,-1599.15358165135,-1421.27326553598,-1727.93169256841,-1713.13128957364,-1964.35489184858,-1819.45609894072,-1861.42739234354,-1980.68866752174,-1691.10915675384,-1833.41179103827,-1696.07417420225,-1578.79286747292,-1831.31967841375,-1768.14874245678,-1738.35526475439,-1754.18916106113,-1761.78495652394,-1955.2363756969,-2064.38102827147,-1899.75392260949,-1719.42610331395,-1941.50035208696,-2115.24172868887,-1823.93788495363,-1479.86261358846,-1980.20637413236,-1543.16631292267,-1489.42861920063,-1210.16045242636,-1272.20879686187,-1202.03441302138,-1228.18752465687,-1257.37204446788,-1142.9148499475,-1208.66410830545,-1113.8841792404,-1142.95582025089,-1204.7598896293,-1221.84178493418,-1132.70665028813,-1237.34894361789,-1109.23173617943,-1132.13327842161,-1157.54900385845,-1184.69451880789,-1104.47225314983,-1176.63400825279
-891.917471769429,-880.079471415157,-870.244588146067,-880.524037181215,-916.725068170851,-847.157079902177,-886.59345821159,-943.985247131072,-854.070591892762,-897.096177812492,-921.183539251566,-773.205622075559,-905.71638372183,-904.304307601057,-1233.75990110638,-1073.89508223004,-1300.27798740565,-1369.91940204291,-1140.07181646228,-1432.61811398531,-1396.93416957452,-1593.67484759946,-1509.19300710762,-1404.80920925268,-1659.92750257644,-1243.00195950847,-1593.98764815603,-1403.60785946181,-1004.50526627977,-1538.40358792938,-1285.37306657022,-1217.22340044402,-1411.57206453442,-1387.58982728684,-1571.13657189065,-1399.44798916467,-1481.93644648409,-1618.0036147034,-1563.51148179629,-1762.07226808137,-1326.3012893874,-1384.71842245137,-1563.29274346455,-1195.93006567609,-1323.71528314437,-911.044872411935,-973.633993288967,-897.819850767798,-934.100481788654,-958.451724001292,-855.000377007232,-912.825237938827,-825.002602812164,-848.686060620728,-911.698531706259,-930.271862552676,-835.970619254535,-930.59739359167,-813.027882034432,-838.52191299249,-870.308505075386,-897.344231199527,-816.319678042086,-887.077648536313
-575.916993499221,-573.448824518903,-558.937798324722,-574.267886877957,-615.015014897237,-531.331766816398,-581.176909005607,-617.113369742844,-554.627957492629,-601.80871447259,-631.166047289232,-503.464182084673,-622.337768558018,-634.818104990701,-913.887166601999,-806.379741934588,-963.662671140001,-1066.04700807642,-857.606955753811,-1083.31357265929,-1037.7302067875,-1166.14200414438,-1140.68381534312,-918.457677743733,-1168.14285835219,-798.972709929051,-1149.74560937242,-978.707547999812,-484.471913697587,-1099.08342081683,-756.486575442812,-600.072582066368,-940.03695293775,-896.298821574093,-1057.4380537571,-646.095739689657,-994.545364685687,-1404.43408916464,-1064.55590451918,-1187.63586604729,-778.306337444427,-1188.0668838949,-1016.54159474071,-817.464025826535,-1104.63320182992,-570.967447462681,-631.346743924768,-559.605162502022,-601.676906819049,-620.676552327755,-530.756181505667,-583.147224123966,-501.734064031758,-526.389230670769,-580.952080851273,-600.753560721203,-517.666624317585,-595.325344318354,-496.730540842523,-521.525123718753,-556.421398171056,-582.552909130899,-508.36671639372,-577.572013119218
-493.306676399494,-490.589093931524,-483.263882110665,-498.57232737442,-534.119045926008,-463.332447061672,-515.447065734957,-528.098978003244,-502.601517752597,-543.118588533267,-566.68068499195,-489.968840069081,-575.29981651484,-579.00016808107,-845.666105882483,-762.293636308211,-813.851401966009,-974.259984104495,-822.427892889512,-964.408507084588,-950.703319420952,-965.754885214974,-1020.02487607091,-778.231856532937,-909.710605800347,-701.255621753738,-854.647949694212,-724.934716647808,-415.873309884302,-828.533274610814,-584.181946308606,-316.765166434238,-680.145157549378,-656.135290583205,-777.391255761685,-341.047401661839,-698.813292214362,-1289.93279771866,-778.150150366475,-827.441244306742,-484.710917474906,-1083.88562601242,-697.127705768502,-658.400926151645,-1013.77934633786,-424.3282313535,-482.547574154675,-427.674184122325,-463.889049224815,-478.760465199852,-405.678394070383,-452.123977512433,-390.730979244476,-416.779960097892,-453.717698170094,-469.247926484826,-417.757547831802,-478.21698868239,-404.629438474111,-423.249993398252,-450.239202440687,-475.107250135147,-422.309765710547,-477.686523242359
-503.267183710901,-500.787612489062,-504.48747512691,-516.848509464305,-540.824286112217,-493.816961913002,-543.468519033242,-537.953538954052,-546.736775150457,-574.071619624274,-592.069981269196,-574.598655625935,-624.209393505671,-602.158226142663,-854.391719299987,-797.266641402513,-756.302243567052,-976.58844541121,-858.790636446088,-925.717485021585,-981.061477960456,-828.563092898989,-990.706657696381,-800.902110840841,-800.137729223296,-738.621650611439,-679.325644559435,-598.154741963914,-501.458775038854,-629.488117024481,-545.136391181996,-264.205595422945,-512.412110949302,-538.5723707482,-619.733695324034,-298.121013926586,-471.55731791272,-1128.10628774933,-598.504943300378,-612.711302949935,-305.885446749662,-942.753836714311,-484.0004619077,-550.398728430766,-876.086425584652,-360.476376126817,-408.429930178469,-381.120109030506,-402.190370924696,-411.332585376584,-369.917448488629,-397.966758395451,-370.948104221995,-394.776031113235,-412.916681686677,-418.337048376786,-403.178305740298,-443.874921537081,-406.144558141571,-413.622796866884,-423.330741722436,-443.122591365469,-425.984747412379,-450.68567952103
-366.035701375207,-368.596456639283,-381.098952276334,-389.495825864697,-400.814640137734,-371.780533037646,-415.144321771782,-396.476552443885,-438.032122835649,-453.301297166505,-465.930176407149,-499.226617316458,-520.62413494627,-478.616665822447,-681.530428087605,-663.103030455318,-561.40957470327,-820.275128073192,-703.227632231046,-702.623467542222,-814.76761747302,-502.88896970019,-766.493454916761,-632.503740094814,-538.51158222609,-543.919619881425,-336.288531481776,-385.775358102277,-282.146586327088,-240.218659826219,-219.448592126599,-65.2149916170523,-179.583403840233,-240.325071459814,-285.827324935687,-45.4658481762595,-89.2459505091503,-776.677073977345,-265.54256576697,-246.232202644137,23.6872555746075,-639.508556516174,-109.119798043066,-234.448865105455,-544.461220335339,-187.785429886247,-206.201162641536,-213.289621193064,-215.35660286289,-218.676637367793,-217.477601110011,-214.485336866447,-225.481925081331,-242.186902840378,-242.173205795729,-237.484496193977,-254.598711754423,-269.77112273831,-274.37551752754,-269.029972829382,-262.679731330023,-266.520001046083,-291.189069073381,-284.542735829684
-121.004715990031,-124.600787585148,-146.505573389323,-148.881881607318,-147.807052110428,-134.735837365752,-169.148998753612,-136.064891817832,-209.336424147026,-213.166967675165,-215.993497999801,-284.399794731667,-285.412109894942,-237.971575639031,-380.496495822463,-387.840540899468,-242.9625547504,-513.325991173835,-396.901612934798,-330.134695249698,-446.021817210351,-44.7413981624013,-379.574298551436,-287.526693722568,-112.401279512925,-136.292390431778,234.351857891528,-92.524506214979,190.864385654268,296.350768093894,368.261849381969,336.691869167937,243.109068915327,203.128420287131,211.548583959246,437.62958591979,358.833022514627,-422.012092910413,189.902045640788,265.757447257669,427.552822180016,-334.18012465729,362.720030795689,192.367769480548,-197.790528841536,49.1736944023945,71.2000752610103,30.063382499072,49.5917020240085,49.2742316524483,13.6872305545509,51.1213455389608,0.335014250447848,-1.20756274150486,17.3638517822538,30.319772075632,-19.2158318797852,-3.55204267115634,-48.1345117372333,-31.498067610087,-15.0813503230971,2.79185598368192,-56.3699161178178,-33.4623614001738
68.271703432053,71.069806618951,39.0267099864427,46.0019210221855,55.9880180351981,46.0128793268629,26.1913128257765,72.3145386810531,-18.2197728011886,-9.86682619066996,-3.87180086674394,-86.0520545399027,-73.2528446308539,-32.0361655607831,-112.659864065544,-136.604760048394,45.3541955551717,-210.917044346717,-128.927940379894,15.4549040463461,-70.0220640787716,370.285706965891,-27.4769445097448,-0.371653459910679,292.609540353727,245.191581297366,812.25259088511,138.106795369275,560.447610003276,726.856565307999,877.1837486714,651.065678387008,505.983664392956,554.003063733144,641.422514816428,787.949318377042,636.3325501706,-279.071134131471,561.249975434602,703.020827633672,631.242950000412,-176.364304236176,686.180376854974,461.439650392901,-20.9217838762734,211.200822928653,267.21365765821,198.544358086743,240.129024588899,246.298582356797,176.113778259556,243.745094191316,153.764991494964,172.219267298703,204.513320279031,225.088976661824,149.923676041101,193.094086035955,115.146334229464,139.395724902876,165.703779256857,197.652736979063,118.445902364946,149.210605906609
220.344289042098,229.360443768048,191.668105979055,207.84718517211,222.042214389236,186.782408022228,189.554535451408,240.84637134712,152.153623760933,169.838068467957,176.599083012258,96.2338736759418,119.854911478709,146.871147555053,135.939805078818,95.690058641765,294.785567152136,75.7480566312492,104.200110928001,323.295155095993,271.442525164122,724.316491705002,297.127566049169,203.455861334441,639.48292938731,568.905693816763,1190.67735363972,338.408535688585,743.344350803306,954.348568384872,1174.11196607892,721.425314403791,511.57103662139,775.881997596342,941.360788982382,810.84915466066,727.861866641395,-250.800042940664,805.233619578111,1004.37191931883,629.171927635318,-42.9472820634697,841.021604312865,562.161760505159,104.752769856738,326.929382723423,407.478390448367,319.009220002891,373.089916682548,395.932084757751,296.455503883941,385.277524706437,269.160811183701,300.737968264824,340.587986019442,364.839051877431,279.161266172496,339.548308735977,237.726906017075,267.626188260904,302.083309164738,338.204662000872,249.325222668259,293.158298436228
423.345202783229,433.393138557625,395.755813587678,414.993512532478,434.673966473171,380.920504265205,405.163114550082,458.339611064559,376.618856659665,397.949268124823,401.943142049615,321.059851911581,357.959997421167,369.94774814067,406.930285619117,381.33026321402,546.404592049879,385.88616879433,395.666294218599,614.360038133657,618.516489417217,986.607554610882,687.750896247406,446.081726849753,949.438103994671,919.21041144173,1263.06398018778,641.871872841185,924.04939767804,1030.02101532316,1352.49346466702,702.750182908378,252.727042024104,965.582995054916,1203.52108937206,614.968925638899,727.204419846316,-118.07202273863,989.801037292141,1220.27353452431,630.344767612915,185.960644956994,965.755875565653,640.321594594752,339.762690098651,491.13503850233,587.169856873053,491.861955582911,540.859909879051,579.244423379181,470.203712599914,567.650849936584,446.964946772762,479.136757463386,524.425066760768,546.352663545014,457.148886363858,527.898648428268,415.498462425527,450.965309004781,483.878010333794,520.192141648199,427.274996730288,486.565046058009
601.547409792915,610.924862319839,574.124276562311,590.852611130362,619.740820011892,554.042999246664,589.7385471501,647.089993947893,566.402021482915,588.170380355063,595.264892983234,502.051414826194,557.182182528972,557.243902072943,586.367567669697,627.660070815369,699.102999782548,615.418803783498,652.011199463556,763.947531945999,863.053234218416,979.347619407065,1033.8446477992,685.690793089483,1094.51081065546,1209.73133044418,1007.9396987941,982.915056344722,1141.33511283408,995.551706069213,1428.01243559715,732.440940769667,-239.498413268213,1086.39455859335,1435.5222841383,355.132907112925,568.057757584804,146.567099643127,1102.55592740795,1305.85125647532,646.700433726261,385.625054604054,1059.64694415052,666.78279346224,586.571268478261,645.601437504339,740.764013183621,657.971711690435,692.371613604906,727.955499411853,631.863447901638,724.290241006474,616.206269754843,643.260399080359,688.53325146296,707.437529706215,613.507367938045,691.395645703051,580.629406657761,618.903198377429,645.708689003562,680.577569288123,589.498284851807,655.05583514604
650.630973312581,660.596655372803,622.807913729655,637.763021902423,673.538490678028,597.480998132035,638.355320343665,699.132613055657,616.521317323885,638.165006277699,653.990737692696,545.66454592224,620.02185744076,609.298837203781,600.616121973404,722.839383391737,685.108950828837,672.464033102476,738.087043715343,730.778875653295,907.080492970039,712.252084639847,1171.10903126972,788.704844185725,1013.92864929758,1318.39750217572,596.189916304701,1152.45933834832,1225.1503769129,945.143133747853,1368.52483978678,693.84740754266,-723.014394968739,1061.62239461077,1573.97266685178,146.872538780821,222.981983779759,453.639294249234,1128.07343984378,1228.27050017026,543.941448103538,451.843175661625,1043.81835472584,558.766913129784,694.098360275591,687.546288170641,768.04345674603,707.546812779561,733.186594785225,753.944037815964,676.345403153154,757.163928971879,665.299509617699,689.396448124734,727.682733465209,744.499365168615,649.301945421639,728.039298594591,625.323333425726,661.913187912376,687.137036973298,720.830676286217,636.905326022295,696.375353876914
640.607944314374,649.542224394879,612.510289216195,627.619165919121,663.101879740967,576.572368048886,623.291442275431,684.129602312563,601.929672798271,623.230142233455,646.407169748049,531.678543451046,616.531785780803,601.186606915989,574.251525163094,736.720995808085,642.528935981774,643.793106448875,719.958812968447,688.855783345243,843.949600537419,526.943987412931,1128.23466921213,755.329576326038,888.566270010027,1276.56400074551,357.275642984717,1064.53690226147,1013.26711540733,998.85999064174,1194.63645449985,389.842171583243,-858.634451130185,953.539273393156,1575.1249012131,86.6495107937585,-69.0489496576492,785.913358665942,1129.32471876182,1079.01873628283,341.045452194379,506.28288533548,948.649537513748,409.119695389033,717.544870018079,672.529416320524,737.477994041211,691.287687173551,717.553495829004,732.058217026597,664.211635308614,737.279464785339,655.387407393141,677.919358597298,712.315714798532,721.781999399645,636.745560014872,705.548681074271,614.344844418288,646.787550825189,673.570811848438,705.574201533432,631.029454361782,678.703512188075
677.876290265576,684.298535585917,649.646587056297,664.086493696288,695.339020175752,597.633946418178,654.459999871921,711.51446813771,631.296508125952,652.973124889105,681.72150228437,569.259508130053,649.021989354534,640.993348743144,607.414697551927,769.943504715667,693.141048140623,649.004891121432,713.018597721164,739.074126264051,779.082289001107,634.165655796502,1024.32603567263,656.190793370413,865.306234923861,1102.74426734229,468.692961797632,783.445325803465,460.503621540707,1058.55365532615,836.83097231387,-165.766992695519,-579.631583321202,847.232315849547,1366.65120566893,130.578931727119,-115.408232898493,1151.35775767028,1119.40876499565,915.533111075856,111.282103176355,666.787025173727,819.50324511824,331.313176110531,780.093054650386,710.468370514273,760.671620642273,716.676679213374,748.512715090859,765.738292049827,702.392633620076,769.867668484422,695.534392900431,714.695600807201,752.44220539279,751.766819822358,685.603822573727,737.40408031735,657.13730569547,685.994950135642,716.558677515772,740.982981662243,671.684591888321,715.261858135692
749.985255524519,757.613110067622,720.548658465992,735.748459414452,765.988488794766,655.483732354275,728.078236181879,775.739599115451,698.898174822433,721.667630394386,757.009120095989,651.328961869028,717.156249026765,720.249178400761,666.897110074044,819.132273446973,765.011570708527,737.364831490181,729.084793181994,810.928255149693,735.522797556894,859.805618767823,945.410569385518,560.235875452044,908.679819811377,753.961401959634,765.310793737438,481.714937595954,-185.88824769027,909.404532726497,314.803161481925,-645.419568066549,-104.385689469179,743.699345325533,956.001822855911,151.13010248729,-11.2625999485389,1523.48047362858,1052.40409624815,727.914520313147,-138.685995058613,917.566911012122,648.912157411177,337.5060802679,908.954206903648,799.027490958737,832.841944146408,787.12234942425,828.143807173505,840.843290735246,783.156120183291,840.675031744085,773.987346632836,792.093844541157,831.89525438492,830.559366382087,775.623930726179,818.382404081214,737.974179702554,766.103260153406,803.793707940666,819.237354167566,743.9994344404,798.454808480235
822.274905747666,832.874795453675,791.292344855786,811.452588441534,845.546148570655,725.522887293931,814.727693240693,849.263056726096,781.537458752129,804.664712431477,843.198702606847,750.431688764723,807.257220877456,812.526087246887,775.789710053937,888.499905342699,764.956424179346,949.12696861301,787.971899756556,916.313135029916,774.045789726067,1015.31460737388,953.176141656559,585.651567513579,975.142460352742,348.471299005392,953.885640116853,412.757845777632,-389.824172302058,646.338150905603,63.5892294148597,-662.601124445104,365.642639281653,661.55008808474,603.096943916426,167.453241009683,96.4530658757028,1892.15518751212,973.409708915372,592.20015658809,-310.067705291045,1243.21517831147,494.003061412051,452.596736843987,1098.91405427822,886.421713936431,913.057597405618,868.812392388665,916.806394728362,918.262610552305,863.032770261375,913.956807471942,845.878685415742,869.512587017858,906.420138759903,913.640161089477,851.393315177954,901.377759636922,808.933092139208,837.50701358627,880.108336532797,896.615671768788,809.846437880418,876.213502366228
918.273782344617,928.492064129603,890.15950485639,915.355872357885,952.614318969177,834.804070563723,933.309825881357,955.3723114922,906.010719729285,926.922410964522,960.69997612443,894.53000702955,946.718060909194,940.218145703599,1006.94561264022,1030.4490711685,747.419195959604,1278.38723224521,948.86131868252,1157.429682989,956.905990946484,1149.79365469649,1040.33435643055,797.370847807345,1058.30699968762,169.748771138373,951.161446974121,690.901047021223,58.8411009875299,617.370840167325,441.817145614731,-203.530862824038,769.041101081418,689.840194402672,578.932125668238,264.020394549902,169.179861653147,2264.04386580498,986.00238494455,594.166044171924,-267.014387712979,1639.37878250579,438.517115273526,708.636992618221,1359.51217553274,969.32712391566,1007.8249602357,966.932633540487,1010.41870343512,1011.27442424082,950.653279340804,1006.18315251221,928.067941082811,957.082086991026,991.959175551669,1003.3243788314,928.31105493668,987.058155635399,890.608915499768,916.746664639644,956.576577243738,982.347928253634,893.36530115543,957.162705361672
1041.49738340685,1050.69878201417,1023.26575827322,1046.49513491888,1079.32294741627,981.565869093874,1078.36732681622,1089.26808064261,1066.78778932344,1079.13466342876,1101.10103835897,1083.31251290652,1117.25300247648,1088.35930280835,1289.98588836898,1217.02721274032,827.058935159621,1592.20770273175,1182.27637436404,1457.77563406563,1222.90476968964,1309.34265541063,1142.22430316953,1083.52756386057,1135.87317176543,375.720110008064,944.921140434115,1123.31577513343,686.031570782552,932.752221465991,1084.18380454215,336.328678006025,1067.3142691632,881.326340942428,806.201849275898,370.330522386336,195.980277048655,2592.63283774428,1088.12163343614,641.436543686925,-91.2875831314464,2017.19416316671,436.277595827206,1046.19127889907,1650.51351294979,1048.44827340843,1104.93011511793,1065.18717885379,1095.81793416661,1108.14334496739,1041.28619141984,1101.21635449336,1024.66565862851,1048.69504611049,1084.1310149507,1090.51824708332,1019.97873060194,1073.29417449168,996.660227463183,1015.2525153877,1045.98915645722,1074.95596523547,1001.2457784486,1052.35527545222
1121.90226734188,1127.58704953472,1116.18291663129,1127.49449644549,1147.35261597434,1088.2604461732,1172.76400779993,1171.9440374297,1178.58940398293,1176.19303991404,1180.8778396823,1224.52178311379,1217.64744084799,1169.2860739652,1463.44115507097,1302.58039199237,1004.8746935753,1718.77427475654,1341.28963518809,1580.13635974825,1424.95400679759,1367.48732117229,1223.18732255312,1261.812108837,1198.10463723464,789.867667257305,1118.79147282716,1392.01066210459,966.717511966162,1337.1682483078,1401.45541312014,611.493777831574,1231.9150429721,1146.76074264954,999.890858815038,380.05998322407,221.122703768804,2744.22497902958,1167.36636790929,564.34267159283,24.4791290298722,2252.31167290531,364.147406141454,1349.24374165996,1845.08908482477,1071.37126382984,1124.46097086579,1090.88608461194,1110.39412121827,1127.77693574447,1067.52834285093,1116.9462364871,1068.30725761909,1077.34992929289,1109.24459384601,1108.53843769375,1066.53181133442,1103.46813878244,1062.48736776152,1068.78117090821,1087.46673253607,1104.9516680498,1065.56079168712,1098.91602145715
1109.43807696698,1103.25712956744,1112.01230437417,1109.74212796958,1117.03817750621,1100.63093547575,1165.81015420844,1154.62185249978,1178.45389701361,1167.67973424757,1157.64888490791,1238.06294251913,1186.15417168591,1149.63636971335,1475.23769649797,1200.49190816276,1190.26928422576,1621.18028230712,1334.38116034571,1455.67417084433,1462.57604173669,1256.04923182948,1259.94587188757,1248.43165688906,1234.09115364682,1063.1463423158,1380.98340264796,1382.73826992395,928.278980850579,1502.67464396762,1372.90903510408,643.34306848685,1372.62105585671,1318.76451239292,1010.33581532147,356.222539182307,389.808382649628,2623.19136009663,1133.34121357254,350.138554916941,110.90242923991,2331.9099774486,220.538232001104,1552.19993500725,1848.29713131836,1011.16194204803,1032.72335552931,1018.57026113683,1029.04254216839,1036.99377654157,1001.7030335385,1027.32294903884,1020.31685771294,1014.41131483221,1034.37212326064,1029.67627720495,1026.40775317227,1042.70664815906,1036.18711754175,1030.58233922509,1036.84292373285,1036.48785594611,1041.18379018821,1049.79476617178
1056.55034186972,1038.92134070775,1059.20145618081,1056.59158579208,1060.17553432325,1069.28843828405,1111.91658284248,1100.78842474073,1116.54775314885,1118.42755142367,1109.0618799076,1164.49710549661,1089.96031871034,1124.14228996047,1374.91206830982,1004.9103734564,1339.44285249281,1387.82881246694,1262.29740878462,1236.30441108275,1345.02730681597,1103.99993895572,1200.70107887361,1095.22050927121,1187.87371338218,1060.23453739961,1482.59977625986,1254.4370514809,896.598380892658,1300.91964354982,1296.53078578399,646.139472974289,1622.62834320583,1301.53192658649,836.070609270256,414.254446873792,758.493168482304,2329.42138660791,974.707320946586,130.738544794898,363.110721187222,2344.38311845899,140.580789882919,1671.84616526262,1732.26460245032,936.069746058923,923.867720859416,933.200132557777,928.831842424356,924.292727891961,923.481461010735,924.525357394308,949.517406673467,934.658711883789,940.301653549459,933.20979111813,960.05694726524,955.615952792201,974.25261969191,961.194997846449,956.924322432121,945.714209108533,983.738103758031,970.179275591306
1020.26609565511,996.921806917856,1018.47138411331,1022.40221256502,1027.09025111657,1050.76154026249,1064.19147930232,1066.0512113901,1058.9708599091,1087.31788357227,1088.55959777495,1077.9419525955,1002.98538742215,1148.42458792821,1190.64485044544,854.147685138693,1421.43196035984,1097.79010122829,1262.04882884049,1012.51520323143,1163.32107769863,998.042778157747,1037.99946740286,933.93464408288,1016.86591241944,959.676432527801,1332.39436476416,1170.59157147043,1026.69393746319,871.119240241251,1208.66328702702,786.267893846093,1866.48331867687,1085.63112234157,547.478505036622,535.492071593932,1172.61401675114,2023.55018515042,709.87705568215,-7.8823889316113,777.866757611443,2288.8925111783,183.693033671303,1734.5288041177,1613.2789003728,885.206109076301,854.413610289181,884.208505553719,855.932485519373,844.199267981464,882.402640930515,860.73739015217,910.406395660874,886.608569378865,880.08682365006,866.95291081331,917.543659205479,894.049084664258,941.055066480568,917.713388722924,900.743168169506,884.097073593235,944.83831813199,916.227483165613
956.23618839514,919.530889851354,958.003856525544,948.451433033877,947.084641894905,1006.99331988205,979.315499828163,988.386497208103,977.606971515871,1014.97534462395,1014.49889680558,979.645966765323,897.057215943887,1115.76513634305,956.048087400409,778.901300850302,1373.33362970039,836.448991805951,1284.01983163599,781.780125939557,1016.67387567689,863.640207126236,860.083462191505,859.865776913921,789.384427441558,956.16625864275,1040.10535171973,1092.01666626951,1223.68385917718,477.223921192358,1004.89324041884,1108.92324873254,1848.89926930284,718.656580656988,320.838406643431,652.306086959249,1456.67777178845,1690.5878855258,382.729443201361,-87.5389838642937,1122.86115675091,2050.59156600489,241.851269854347,1707.97678922791,1459.17599692523,778.614935001663,726.138598487109,783.835104457329,729.129533247908,710.788202953162,802.265050172129,744.489992952575,839.365360354278,797.439253696976,774.533013757767,747.008881728105,839.344018577537,788.978857589562,889.052519125291,843.806119973418,803.473280871883,777.063654862431,876.547851170509,821.075935025416
821.273226166331,761.38227011598,838.36430787302,795.411773029253,775.835932227212,901.051635746245,827.670226531334,823.790122050664,841.107327081815,850.753355216132,832.472654894495,863.407835460231,752.140340572929,942.649523740271,773.382186042989,741.45019341356,1222.44849108587,726.178202385041,1194.0231789282,644.116213493954,941.505054432302,682.275341651283,754.391898943818,841.846867862489,642.08698627328,1049.96368276808,756.964418216279,937.330997016278,1342.32845118312,318.426303456916,813.667978722737,1460.68697249119,1574.1666377047,362.773482615756,316.432786225607,791.581231512853,1592.79486142269,1276.46563510695,121.674008322452,-109.39134717062,1289.48826410568,1646.35493342718,265.490750596654,1579.3013471354,1219.13295611786,592.568800456351,500.407801910905,592.035612992628,517.965032290691,491.228791270787,643.067704852308,532.11473018714,695.839871168158,629.168502903565,584.013721744675,536.423335473146,691.715604708083,602.553268374013,769.046201548268,697.663460983209,630.592120916996,588.259478599812,744.507602719706,646.247871334612
692.578195252929,616.22331594237,718.913079965713,654.196667071624,616.21688309307,795.063675638778,688.980346207692,671.050512340722,715.790778675044,681.669031273042,651.448320902823,772.320352687252,639.17783209086,738.374644143234,710.787231253742,718.604613204923,1076.35841393672,775.358851683341,1010.36464569891,697.884902096378,907.72792023361,568.668323787882,724.085346250506,808.547106869114,638.231805525806,1165.90115237012,597.316740162358,812.919572823902,1364.29990979968,438.656127980751,879.633809448889,1607.2568598829,1332.87019932247,224.80118667249,504.293465668633,1000.09628404494,1671.6766254385,929.501036037732,82.0463247764401,35.5882136737867,1419.85227033762,1295.25477236731,397.573006667345,1451.27374945453,1023.84852133501,472.762624229952,346.997987788727,453.765490976339,374.595966822681,342.981702807892,523.224084339038,373.764648099365,585.358370737131,503.317712184882,441.237208772062,381.618698689048,579.844854315224,460.331012423145,660.602456134798,576.762669330987,501.746376697778,443.887626060273,634.665228083036,508.827628334031
650.289554113313,573.474440327612,665.247677945299,603.105600393568,563.390244612633,744.781725949915,628.713557904134,618.212662230473,656.129488192829,599.790568903862,577.436917864772,710.855079151797,592.400791269468,634.043294655026,686.150596439095,684.334364281267,944.312764780479,813.497909028158,831.803919828271,812.503325231437,849.81526697414,553.309361738451,723.206036663021,748.997768077637,702.231649845149,1259.98316523214,575.300766381515,869.492086207397,1345.44792020808,684.935641182855,1152.68052014127,1541.10577387906,1297.19015826866,328.118684841448,709.399533253844,1215.13311788817,1747.39870927751,810.808747507228,257.497982562148,383.190843343811,1591.16008350869,1126.48370378896,686.369482753749,1402.46646817344,1003.67552052786,511.831045178376,389.661046837176,482.222851407845,411.917380427162,379.941630518687,538.131089853046,393.518244388164,594.896398293163,518.75430944476,454.322953075513,401.342120717265,585.392275167418,468.199069726814,644.843378769028,569.865200170088,509.381106237264,446.568747021134,622.170642337598,504.172526154975
633.204425971727,568.318108120109,625.387558118232,575.558966360047,551.093213964909,689.545914404603,579.845655693254,590.832568780933,591.504529729359,548.575171485791,542.807588642605,600.589476752291,524.709923691963,574.198639164189,552.034841903316,573.100539593025,734.563489433282,670.075522899597,630.059025795783,748.093897837272,679.448011551736,489.601962127601,676.411039789712,640.047511923527,659.964384547023,1237.95605437643,519.750857084987,995.502827453139,1279.24000085115,788.876890110122,1293.14707884677,1431.2745876078,1339.235505312,477.203128997699,750.868994802321,1299.53856770754,1763.36388408724,799.185847326366,439.147867268086,700.55130761881,1645.4984684224,1006.70732480484,903.349326575511,1322.23707956365,1039.80948242266,585.297429087249,495.701884839994,564.616868036725,506.928164005535,476.94299698148,593.915499320988,483.433543167967,635.773452628031,580.994466355529,525.693915271583,490.892971623495,621.522598020488,534.45469713065,655.146934160544,602.432267527885,558.598742634719,505.977073247388,635.74616212875,544.807151908203
552.458088880794,504.515449935216,523.73000781286,486.756064452536,481.248066800891,560.084297216693,462.733576408738,492.852787177413,448.565753860328,435.867870860559,442.885844683224,402.925053930876,369.398576459001,444.955916481665,285.301373530383,352.400282735201,433.984584850414,355.251674254276,344.691010841835,456.366690373749,374.569295527915,283.714327414433,507.318557401389,446.354227549666,415.724602528567,1007.96040161395,261.429492171769,924.67826242642,1140.06417869597,634.414100726123,1151.08123399641,1338.58055339381,1298.79403701711,506.249315778582,577.059346969296,1199.68747519197,1658.83228515483,670.476021890448,452.150546355893,750.999912931541,1495.86202426171,785.957816174456,888.115509515388,1096.00624304904,943.630283867985,560.222092736699,500.359322958452,552.412449433307,505.610313779855,482.009733580157,567.635342198079,492.173205237306,596.231894035817,565.317585564586,521.619512846801,501.199873577733,585.885972459824,527.766862342319,600.827330452347,568.883167067491,533.377094131888,499.077081614203,582.251060014698,518.899983729993
458.235597462005,425.853641155561,413.062230266522,389.479604514086,399.406151996299,420.644769603178,339.342263610757,383.867053546349,302.978052014542,310.440235147241,330.435007309737,217.106439963828,211.909549235765,296.822787087748,41.2878433092542,124.953419566229,179.014162988911,62.4739106474175,85.8130524408605,151.778371505891,86.9356886633067,90.2481647262513,264.714466697462,259.068440741025,130.094296454683,674.545127924507,-32.9688115166751,643.567230076635,980.718925882673,389.440134774589,934.085304864433,1249.90841511678,1203.72640268836,453.511752117313,357.044593647537,1040.8230340671,1518.31867365721,440.715687136883,353.106901825994,656.360877932313,1316.75957560442,535.545125108981,806.904912012739,835.355619381812,740.907892348913,495.075714901976,453.824111665563,490.629565146723,458.66831276108,442.779036575022,504.306199837587,455.245911745477,524.585880391636,512.183501297342,479.409326151166,464.260589375902,526.985620839027,484.123768167241,529.863674661729,507.24107624871,480.953283180222,461.762669627252,507.958329129901,472.520956849591
432.513559925537,410.782004445565,376.388572632662,364.553442114167,386.926008321203,361.65464002458,299.989656265474,356.248377962136,254.821979803951,265.003624718118,300.278470003077,145.156745839913,155.73466920264,238.995810180153,-33.7475133333288,24.2140790209946,87.6313134442011,-40.8063243560607,-10.162562838848,46.6082403761165,-15.1705384785352,96.8554955480787,99.0482703673591,205.444645984917,39.0475211771989,431.465248026734,-71.4426598731232,401.349260291122,862.032143035677,246.835557326646,770.099686265124,1195.47204491769,1114.2721924332,417.51881584927,314.106231149676,973.648393960114,1451.81457284312,249.566018943867,293.242161414746,673.587804763173,1248.27191231892,360.652451369765,845.882225488808,677.384538154766,549.769961566263,487.104487343222,463.904804762867,482.912079546084,470.812637271493,457.294431337815,495.379219594884,463.902830349028,507.487792252691,504.066403024596,485.041979292511,474.45053803948,517.178084813022,491.447973394485,510.195452208401,493.860635891866,481.331791569432,468.787642775472,487.590764705237,481.54591604787
377.3836488168,361.427556056012,318.56693705732,316.559377511598,345.806427635396,294.317526926221,248.359955775646,307.803857776616,207.396052966752,211.67393529742,254.433056523275,89.4703585426101,111.829997986934,183.965674559751,-29.8718507539471,-18.8295448562788,58.2050558349233,-57.2949977954598,-53.1766095374047,49.4204162711536,-30.1875013244958,179.887971431459,7.70373185740905,198.875887912901,78.6906336803876,260.393989815979,22.8626155067165,278.389822257389,717.226619840979,119.562545671737,452.951502655838,1105.80922079027,922.430436094013,327.162364638052,408.497140151945,921.815612767588,1348.08384507245,38.6079419371361,257.969114766646,756.864916383833,1165.19965330523,149.552525562224,898.97838300154,504.671423527277,321.354752988769,454.847823926918,449.934043253452,450.459341097079,455.902545084039,445.903920126513,454.038580875711,435.333325572362,452.778838371906,454.096505621931,453.167149546094,454.61896129836,459.218138450928,462.766952089157,439.796294311458,440.506740762045,439.696961240579,431.251486900592,423.71936765863,443.154178037278
111.700509685997,102.716673293844,60.0259927033023,67.3971739102347,94.1753247814378,40.4559078939149,-0.913408335550081,45.8419359988211,-31.4054290655839,-35.0270357750307,1.74889121975595,-146.070453935373,-106.057163781219,-63.4000891250225,-174.263042579028,-213.673059131223,-120.726521796007,-241.75153480315,-272.225131587016,-112.031952912176,-219.06114504586,40.4424938012084,-193.974649855253,13.0158441956757,-43.2650989686441,-13.7905878290608,-137.62529025353,63.5699717058985,392.150319385121,-216.393235067768,-151.294220872808,786.12145681135,494.388022634088,8.07273424844781,364.460922762302,661.64741669707,985.310438074619,-348.523487548446,85.3376884885364,654.157279611924,876.91646826131,-257.292256882926,742.447300972608,104.782835005486,-74.1212393931144,232.923440933172,243.936290285936,223.518194162922,240.265365415706,241.741897511695,206.308908718958,207.148430751144,185.600120971579,201.592856372845,215.502976354005,233.220777366878,190.990162425344,224.976974796197,160.873038161463,181.076092926828,190.035177960246,190.751895102131,148.00529408691,185.977002529506
-302.09935896465,-299.001875515694,-337.04409069069,-324.732372359464,-308.036149389733,-351.004524218347,-393.018665667839,-369.431847412165,-416.138275571832,-424.98679564174,-403.161804709711,-522.208065611021,-461.596059138492,-455.938150226601,-470.224681249162,-549.78937628315,-432.05551764012,-584.824497382561,-637.875880923368,-446.568581806434,-582.208851057864,-311.928228874106,-524.373573286349,-357.166113875423,-346.131974162292,-389.971649130926,-542.645743829862,-321.531387822496,-112.870332056534,-690.534034295532,-752.009126912057,223.597837386492,-54.8869592771443,-496.090271938174,79.2635201217245,200.301923549522,406.728226568744,-818.721656328614,-233.873836738216,334.118470089748,406.825484231987,-755.863434441263,368.737434623585,-471.776441047878,-566.27025886807,-141.917892210952,-121.024259988133,-152.677776442662,-132.598905104546,-122.557175089031,-192.685439580549,-167.739028897614,-228.074126461406,-190.698017777193,-177.63744621494,-147.755734436585,-218.692261132467,-168.774741328336,-247.324304082148,-223.347528616436,-206.178213662061,-195.435775834203,-264.341625319268,-218.153625183185
-530.618822187545,-519.599417741993,-546.361275021604,-538.62369110368,-532.438330302484,-569.147850819109,-605.303828267592,-598.747642706097,-630.430207590819,-637.219832709368,-628.81854410302,-726.228028939624,-653.309275165353,-668.242379515074,-624.318424025476,-718.999576104823,-588.873597284167,-745.33592624637,-832.850660651912,-620.075518668839,-781.298607774525,-503.787338099978,-688.272083632152,-600.756583070363,-467.52715702771,-618.600020817184,-740.829223804039,-573.159374685973,-521.251745374458,-901.270725244006,-959.508325668729,-271.598296688781,-395.979390375875,-849.074663258363,-194.904980799692,-132.871008224088,-33.1381107696675,-1035.62230081456,-442.151754962891,66.657410287485,10.1377548696167,-1016.49109597514,32.5498034095188,-871.282655143703,-849.751211388262,-377.854975838053,-362.127596994946,-377.319664413953,-364.97020939205,-356.966795732971,-421.115755083633,-391.475767305964,-452.687483031484,-409.281945867994,-411.645929103797,-378.830475429409,-445.5595235301,-400.738411315749,-462.158053377277,-448.007528328924,-432.602430557993,-420.786132452638,-479.636973130223,-441.060333446475
-378.055181980371,-370.42908857615,-386.213897478542,-387.557316000538,-385.492935463803,-427.048373123482,-449.931198730478,-447.516899538455,-482.182221585768,-483.741954283981,-476.558266305467,-571.7582678313,-493.87810243533,-508.465442549895,-449.444817964957,-532.40819469532,-429.746543654453,-529.011736042739,-667.862715662422,-430.668332518059,-600.470926635454,-324.239901520563,-475.636169949767,-493.120301622298,-216.149810510436,-519.332293552645,-498.621809850641,-414.915495389472,-578.039619948236,-637.994603775981,-753.740323936879,-426.354925724844,-348.47078108242,-799.491245261039,-202.640642139663,-114.777971149643,-105.583373993217,-819.184079951223,-344.895325491173,57.5779763634081,-112.910083790523,-855.886206306807,-45.7351679347849,-836.560381760528,-715.066712832182,-262.945242430937,-264.329043433436,-251.819384734659,-251.862393201528,-247.161535665505,-276.684802717688,-268.753632763932,-292.026645396599,-263.702271696579,-276.77472922918,-252.096140730752,-291.58754047965,-266.983990226642,-299.451047282626,-294.354657984829,-289.230230204129,-286.776383842743,-313.838146973204,-290.777438818232
-57.4169422104623,-57.1638353463145,-73.7363742166883,-79.5405177434948,-76.3040929382712,-126.557425169382,-137.849530739615,-138.475401390792,-173.276696236319,-172.765561479973,-160.374158013365,-259.907075891822,-181.087445896332,-191.512085147234,-154.24253088893,-212.582496982022,-172.086452612324,-200.305111268541,-357.597374806701,-128.565027516809,-276.414478297096,-45.2251136305736,-119.889832559547,-233.539859613451,91.9021245457728,-255.931300829052,-129.930410495039,-56.2627978362739,-412.075556761327,-212.201760187412,-446.029138597405,-363.017666786647,-131.656353965484,-496.317619880818,-44.6503204636127,28.0620273328508,-32.597656774195,-412.852219484601,-95.4550275182526,169.94574365845,-97.1976861259286,-497.574316896356,34.4759216853132,-571.218846890016,-362.840557367417,37.2857361217075,17.5282977226718,43.0516885953453,34.5129942240648,40.5159611673459,41.6406799371346,23.999608504359,35.7242884193647,44.3360780100064,35.1031672069141,44.7467908913191,36.0707476572467,39.1818647489805,28.4373045899388,27.2616602255751,28.1240812638407,18.7859343987559,10.9423509828364,26.6373908704252
103.41571924965,99.3627942425705,79.3898871356938,71.3150258089741,74.8074158376144,23.5449098879172,15.9734708267633,6.06593898934777,-15.4769399082244,-15.5350391449739,-9.94449413272531,-87.4162136020916,-24.1404789753522,-40.6951861061972,-37.9951982349866,-77.0257066833434,-103.479989921609,-100.189382288405,-223.786942916578,-56.555470804749,-157.896911930056,-22.9275996309028,7.28076953240612,-143.504580249866,94.0281225135148,-130.441616160649,-16.7465919006901,76.1708376466514,-346.126804052453,-42.3463366597228,-321.936904837058,-369.716199994826,-101.474766105754,-262.425933832901,6.37492162151109,-52.5545109637832,-159.187419656028,-220.52148598438,37.6643060421478,146.353543013949,-210.548856244212,-326.600558497589,21.0142252955767,-476.16997625005,-198.896122248395,199.810653143183,157.980749895831,195.671721683341,172.173351032865,178.11838160276,205.759321630676,167.880734753693,195.634392439687,193.876932410812,185.738735584309,185.12870413287,200.087780037918,189.218282977695,192.762641873782,183.802441848486,186.668694125104,172.092250890849,170.726107228235,183.006877611253
71.2616463830288,65.69641987427,55.5241435506102,41.2425323638979,39.181959641491,2.93325348002459,-8.15750471242064,-26.0266031046958,-28.4666558891498,-34.4591133841035,-50.7495375284075,-69.4569295636734,-42.5335566295549,-75.9931311357878,-81.4335651768907,-118.3593885402,-189.736515518496,-181.15700820419,-278.498963407924,-177.249136420439,-233.895689942402,-202.695629576983,-104.879585219686,-217.795631767874,-123.344335656026,-195.976767559768,-104.64334538861,-76.3368865548923,-435.743701983356,-121.587352158389,-398.164743155266,-465.288319593577,-292.680437015903,-172.800729284871,-98.0841074877953,-318.159514542597,-451.969886842866,-331.790971530915,20.0894809236368,-20.307260831419,-442.110679001315,-432.224239119833,-118.111930691116,-617.372631112079,-337.904950443884,164.30084790564,92.457020472136,164.467112566583,110.170879585392,109.929071401671,172.510732129725,108.708576998468,152.362069314352,149.146525864088,124.46307489316,124.271956869675,156.72297880992,135.987133107734,154.46792673361,139.45112682218,137.134371489056,123.672930367802,135.4576226566,133.859422684449
33.8934659344531,26.0030933254896,34.451330264298,13.0164949405293,0.148165967569407,-7.27337408491135,-24.7918190271712,-49.0380895631049,-29.18381849424,-48.9538523407349,-87.4814031225256,-42.3022203999726,-48.8078302419455,-102.070253019151,-81.2191445235727,-130.381117154943,-209.093458828968,-193.725400846292,-318.99285072889,-231.382148279766,-275.420619540641,-290.60783091539,-201.948188383667,-269.737306725193,-264.429173896878,-295.648707195062,-125.481085206715,-236.896337633935,-503.067555266359,-179.916315512377,-495.720348687415,-487.32646732333,-457.326814644965,-82.7727785622726,-207.444622977359,-471.867087266068,-619.291386034292,-494.177006058832,-13.4088966113766,-144.569322274324,-582.518004879799,-580.008261508087,-227.478223638036,-749.03774295295,-542.808269676147,108.072215494684,10.6667009031162,122.623674137996,42.2359010159422,29.4492699059415,123.101213130899,35.06291906602,94.3087116050034,90.3962262463141,48.6495616322492,52.1449574196306,95.7290356968481,65.8405446326104,98.8311073888127,81.3587186582509,69.3870961868141,54.407180544972,85.2439688798118,67.6085899872678
60.4866150828473,45.6616217200908,67.5626273667818,40.2027456236273,22.1541507954274,41.6345362614152,20.7942693575332,-14.9453205375093,26.0372842969324,-4.68320617572936,-52.7557355040105,24.7440133751334,5.87469806337766,-57.9235240371295,-13.1571009215724,-75.3608961872947,-129.963456367929,-115.033815700656,-284.428026417191,-182.416520932135,-245.250511730638,-235.919814498317,-190.786241729509,-288.345269200318,-287.792811224704,-357.540566842155,-66.0601730989529,-269.686994269473,-511.115357100057,-150.862670768468,-532.397716112926,-445.202181010151,-478.746513860017,34.9725585818323,-264.373802020641,-423.060715037515,-558.169136399443,-516.368885990314,-6.52808668143746,-152.298917479161,-571.472388241339,-570.196748185335,-236.22420680662,-708.716156370739,-608.851442556209,119.426796989341,18.9403145925256,140.212802223675,62.1841475285231,34.2151854140841,132.73694728837,46.5919604904011,95.3873638048815,90.7616720055391,56.0683415130129,60.9346644023089,95.5984023454837,67.3344241889835,101.475677363858,82.9335202314977,71.3474878682571,50.5592105975416,88.8106338273587,72.491236285294
55.2947900389595,32.672860150199,57.0970207464624,24.7035570595544,14.0693948117018,46.4474665558894,26.7502768408176,-15.8565876497747,27.9928501795775,-4.11307895694183,-45.4139472962072,31.5143082571888,8.93279050921298,-49.4475871468878,-4.18149970025301,-71.8040044857071,-102.17253330409,-94.7552887322967,-276.031181172167,-189.420778989237,-262.699189611211,-215.916249481266,-179.698220802673,-347.81065748083,-341.204492238933,-418.125893288462,-93.953278444849,-278.678848142311,-580.697260150437,-154.941767476555,-592.091506409956,-459.051573586461,-450.471978660051,77.2320930439598,-324.158510431172,-296.822085540233,-382.237244630334,-460.09764631469,7.54768469851689,-103.3131920379,-476.545279005236,-434.966436245148,-164.078776482968,-516.982501916681,-556.478700859813,123.493562583695,43.9225192723213,136.37365803424,81.4649412681019,48.0500031476912,118.231087117839,64.5236233217524,70.7567080000797,72.2417289226694,64.1316582639962,72.1417056948122,70.930405390712,63.7422192903352,77.9782040252197,62.1355778550036,59.4067938688056,40.0235395625497,62.7095656539197,64.3303422960227
-22.1730808526392,-45.6161777631998,-25.3652521400962,-55.8786395900455,-60.1015101161154,-20.0936356150156,-42.3354441579408,-74.3293587842908,-46.3265082179115,-79.7405545778171,-105.532339017031,-36.5812422077487,-67.7186876777118,-115.509772690788,-66.8922440322296,-134.330706661909,-157.6023287256,-142.710626331584,-320.083803082599,-261.938258921435,-319.566623394955,-247.211716391431,-207.892103684963,-382.530286936435,-416.952887081682,-459.398364672862,-167.880498248028,-324.263603990061,-707.47268365105,-181.479398097515,-675.393716306284,-487.663446436121,-402.104659158085,64.7020979285573,-371.103071701136,-139.845069112109,-180.80819778274,-436.45492872941,32.2865941785695,-22.3919633703384,-304.006017156988,-314.93801062725,-17.3725229273976,-255.605712615916,-473.149463088817,60.4668369779027,12.8913609556918,63.8709049407901,31.5568671183991,11.5461578336188,32.7323922140326,19.9289844291353,-19.634665892423,-6.34101104366494,7.39571297279596,22.2363487191031,-18.3365326973186,1.49313721054037,-9.72686867351583,-18.9997869754089,-16.7093473643165,-23.5747593146823,-27.7576477479002,-11.0052794923342
-89.8931069812596,-109.691017630529,-90.7400938694057,-112.564595815936,-122.294665387092,-68.7481397327362,-103.283612939384,-115.83617208262,-101.307210146865,-138.987789592938,-153.901467771953,-86.0551161212643,-122.676526806908,-170.175714968271,-98.6250678438745,-160.708080742773,-174.938216287941,-149.268912118279,-332.212626866345,-252.367758219344,-310.830356066603,-157.779507191769,-198.540470956162,-311.369375500339,-355.482236586528,-432.253045744758,-47.3666630956919,-331.143013074837,-753.049172443728,-85.7788439947099,-659.076886210168,-390.508535739218,-239.9479164973,126.303935111773,-333.908115770162,78.1910603782612,-7.90512240042204,-463.709668222681,100.972735316266,104.98909096282,-66.7750844543604,-289.318000095677,159.703366830914,-40.9862569785972,-392.852359783338,-26.1390690357979,-43.1781890043382,-23.809477757065,-38.5306489505889,-39.5261721286672,-61.250789499955,-43.6349630340822,-105.534692265853,-84.2367359513936,-65.4860098777192,-45.7586945086025,-99.0699821742043,-67.9763114968918,-87.6667120977393,-94.6489335502155,-92.4261243648204,-90.1362337627256,-103.192033391719,-87.9754786618026
-87.9837833155778,-108.588470041884,-84.7767653836083,-103.259288971384,-117.222177430436,-55.2143761214685,-102.32375654024,-102.41830308268,-95.7678443722548,-127.584706006585,-138.562129721813,-79.5859863922146,-107.092142687127,-158.171691542305,-88.6581300755505,-130.451808956684,-116.662009141112,-110.898832244835,-277.760715954624,-134.834300135195,-246.082552035344,73.6924891603607,-144.140847075848,-203.741353880265,-124.607989334982,-378.667465306358,320.087044598121,-256.207053617852,-685.239678397024,151.25923636946,-555.62287615654,-160.877370023704,39.4398987361096,276.190201732065,-235.994365857673,275.748216882457,34.9421125199098,-551.215093652178,201.748524837679,251.289501341616,120.240640598595,-354.037254773266,281.535795183396,19.0705828381612,-339.626562036429,-64.6379409242492,-62.3787839912542,-64.2132534167726,-61.41343112593,-56.5608919100552,-95.073504025494,-56.7635952223166,-122.070404571807,-101.951073822927,-85.8243819308257,-65.8097248082605,-107.328650019296,-83.477499336724,-94.5987837612651,-107.732386605674,-104.794279231162,-104.037761585638,-103.193838154303,-97.8447130332983
-44.7119102925271,-67.0195514367137,-42.2502203466976,-63.8980373894421,-68.1750984545259,-21.6717347881352,-66.428996053165,-61.8462064763235,-73.3968735443382,-81.580407359084,-85.3928776460704,-68.7049537956036,-68.5725558695042,-106.261490452689,-125.925713864193,-125.350055495543,-77.9160298990603,-106.884587802287,-199.304197243277,-30.92899259074,-207.726138739465,247.150778855166,-117.327336835018,-129.363495043485,129.071208216241,-347.223854822389,649.134056942135,-139.288697836881,-549.423628398896,363.669011539624,-505.225667784507,105.795278847563,294.063909404954,414.887043246761,-162.01918831423,322.436406344699,-67.2294893272442,-710.886867137749,300.750313205967,372.808603386551,187.806964609221,-464.89650748037,329.653943420847,-39.8554741391408,-328.176765908132,-29.8270473567809,-20.4266112990372,-41.7321521835053,-25.4858801763811,-22.7161746990424,-60.3768653836837,-6.53488514060419,-76.2204050631409,-61.8568244307635,-41.6215670367801,-20.217617993166,-56.9940236944663,-39.2392768179613,-45.0782636455558,-64.892758841805,-59.1722923976492,-56.8786341272064,-53.8598182706364,-47.1091486641059
15.67519592259,1.24393364832321,12.7377592150645,-4.74983390905151,7.76422798130243,15.053868820165,-10.5595355553239,0.471132563802154,-40.1983457779822,-19.9775320321315,-6.20553026092135,-63.0434354565522,-26.1386905179012,-30.6772043749581,-200.000849577168,-157.726036641776,-96.0469535404485,-118.219336965514,-119.927786748573,11.456579540789,-173.776269403515,231.744744474293,-106.250294447815,-5.21860229142708,275.525121365713,-245.388507898695,605.892315506123,14.4715717995259,-246.614381286276,396.788117391421,-466.040013858717,406.328354501619,422.639674884409,491.702636828888,-115.185672891166,265.180830752687,-113.857241281165,-862.235768612734,385.750394738866,466.464364062776,244.58448615419,-538.035052583923,359.339360413418,-47.1768836294204,-319.080087025922,65.3038457283594,82.969622023181,42.256045446427,64.3746592716875,71.6978296409774,28.96902836015,91.3447617977601,6.64488186428979,21.0443357844916,54.4381475957955,78.0707549523748,22.9874532433931,53.7932170734119,34.1539576061738,17.5002922556732,28.2884503677207,42.7029132738792,17.2450581145122,40.4067560044269
116.256311559467,113.766679621215,104.803278143668,99.9337035191779,124.354573449877,93.8674916449861,87.3909081135837,109.065893326499,47.7167062323842,76.5785484996319,114.907318030607,1.60481153662759,48.2565036317698,74.9092194506746,-166.535782879669,-138.594515099151,-83.4115874668307,-50.3310695143575,-36.5021896981528,64.6771708855608,-56.4474617104006,118.039217100058,-28.7562877832262,248.859143202138,293.890287473269,44.6434777306917,164.41464458213,231.967596458565,327.940813591913,270.338561774923,-198.816532179765,791.861403155087,456.406929110485,529.729596368746,-46.8570035917784,316.157994167862,95.3488302624738,-876.922483736598,441.60212564024,564.841947412821,441.093192722165,-503.532180896975,418.551110039578,81.0435257339366,-264.761549869414,187.395129017518,225.558226971651,171.082514923872,197.405717855778,215.441417325618,154.106361759722,220.550008864347,117.933677262478,141.545781339456,186.352277891709,198.869043264767,130.277748654518,184.373545089257,139.045827168287,134.908275455998,152.584204210268,177.703403377613,121.384339074566,161.581870317703
240.337335687947,242.047584261206,223.641424083855,222.653921707531,249.574954465911,213.133676433278,203.151575868418,232.81582808691,173.221545711107,181.609702183556,239.551954341117,131.9159816643,136.293957664209,165.95872654485,19.6572371792132,-43.8522482480889,21.1554473924124,80.2684531170353,31.6182866445451,155.124943647545,118.268879358656,46.0760542722881,89.4165312008324,508.601325854735,221.418555445368,417.178531267148,-340.883733025513,417.486714687416,927.870820805196,146.312635183293,352.409516928537,1146.27357464403,404.876683157322,550.541565954784,22.8574620963867,571.629945428332,445.805050277642,-752.201606500825,440.099848048317,676.92918161591,745.670417673275,-451.72813583303,500.875176118195,208.601883284922,-180.121398257389,265.292032365527,333.451026743136,266.326179572437,300.320465224233,333.854870402033,246.467749876838,314.198598350341,215.493304691646,248.697593473005,290.815469739496,276.022949343073,229.573455890637,294.689128881335,236.082409070151,244.234441833914,265.015816091417,291.028551467553,231.385066651476,277.851656181966
312.858110814277,313.982040956893,303.923403912196,289.543157031705,313.806811165466,301.732064825406,266.281753555077,298.465175399174,254.93005405152,235.806593573027,296.171543674176,239.853984123661,187.696179920467,183.480760778759,205.737547815887,47.3031005063027,167.332312019287,144.309080014423,72.5926114623518,211.578996541936,218.672514331712,42.8165834321758,125.157105852221,561.985948112974,101.161673702236,598.312219053773,-520.747921255202,352.357750736453,1109.99725336812,134.355308786132,867.723919498181,1211.84355605422,157.98332067923,561.691979107683,38.9797782077095,850.308250712455,591.825558533059,-633.64486879058,365.279737626645,728.909619417382,927.189021233503,-595.833127973429,549.095687263642,148.722307122333,-123.523366081461,231.73539081537,337.350373586282,226.660232323648,286.398369055223,352.799787450028,221.952940727431,275.610761247924,230.995175468811,264.256641952866,293.120755580706,262.032398929234,252.968488045744,313.941352086226,265.697531743314,280.68460503925,298.390313560849,323.310346532578,279.69734626352,320.163430467879
329.092671339397,330.962069727212,335.275657173655,305.270418891382,329.261564623581,331.062541915431,280.869146749534,316.030649582063,285.980259034299,259.406667840927,302.791982730021,294.245961029485,226.931224974842,176.962650849775,285.988866440677,122.38024444281,304.041560981006,122.069098600149,134.264127580226,213.320349033407,216.38576653818,98.4045036201772,73.9969031870002,410.115678582232,-45.2925325615348,513.251459637266,-292.059559671618,-17.3551081292616,813.969776933266,170.161232107816,992.886189722488,892.219811277139,-279.462428842535,588.226338428219,22.1436955101556,895.582781546944,355.482840540702,-607.261812787197,226.483870378044,653.69474314382,808.637706702175,-962.438356433959,539.367753890425,-74.0960260293937,-111.736740435744,136.083077514914,296.365369765601,74.6176080245533,213.528928523641,331.616016267893,119.717330585586,156.609170430708,191.997727044075,217.875708427385,246.929704642719,234.95474206001,226.05599826936,286.48590195676,248.689159706307,269.014998330419,285.8179991191,317.055426295458,280.740351534131,310.840823894008
379.178718021939,382.66506500932,388.392533281206,362.52061696921,389.523050338266,362.654332314904,335.702673472972,377.833852848179,352.887204068398,337.889753264492,360.523732230595,368.49656779133,330.803725687775,266.175691432296,343.22938366249,258.391494071767,439.969890623394,144.111822595509,271.118453104858,244.045814090841,228.893035740162,251.526528563383,78.6345168884754,253.577817306695,-148.120211445739,329.273478915442,130.041469786296,-380.526322080896,418.664415083849,176.923145295737,725.186179496846,385.706809895754,-607.578398061979,656.733294904822,66.1419413842292,649.150782587817,-99.4025611595142,-617.197873418672,88.9965272736128,552.825634489924,498.326165339908,-1292.17248665077,535.151896370205,-248.473514366992,-102.943561482446,124.843176022022,356.691657108907,-3.9239699342212,261.155077392693,410.099369838481,102.984884632589,181.95240262988,225.616060869597,251.413745380792,310.710828149063,336.447863274199,272.04133544273,350.085429968736,289.967898848204,320.167750134119,345.724318617284,386.038280278558,335.015353853804,368.024893150301
500.132571420076,507.305497618467,495.700199010867,495.602825439144,522.568714690395,444.090665498721,466.970628556527,511.984284311696,486.665163441513,486.488149071786,507.283525233221,499.891130667532,502.697363581601,466.884919539871,465.24780474584,463.430183050551,568.673259168265,272.673919987021,468.450562547949,356.744839240975,327.322581834941,503.70254441027,203.736218103957,205.660129502337,-30.652222284075,120.911638128095,560.611273590783,-362.284839044813,233.742219221024,217.934182146328,311.81414087048,19.9002111315058,-568.779468499183,725.012532177886,231.461322926375,269.82266556674,-474.292740151181,-636.833710369847,54.0491816488149,586.404454045429,253.223883317505,-1347.42974578242,570.136988791878,-262.983337588053,-86.9470883107646,262.771442080143,542.152017580027,147.704701880036,480.518741855713,596.107750163707,257.771139428685,436.886394157967,383.686320332149,421.594340040219,518.746753189146,561.698229395634,434.952976040933,535.389614664902,430.726379556223,473.005590054274,510.664432760625,548.700143827803,476.420886283812,529.591790342511
626.984855472466,640.66929856313,612.513748865235,636.331795114747,655.617717663602,550.744943146082,615.152398457763,647.417736772842,625.79568475865,635.866845104455,668.596763821518,644.748381242271,670.849399400522,669.33592894773,629.907360478055,677.0631238859,669.555948973451,445.207413863359,675.900280373982,523.725524604398,484.721300109241,765.346283391398,377.369076724514,286.996841170649,362.758189765526,-55.5883086918114,940.568333788266,9.05829912644348,318.49223121319,362.66486218665,-16.7210062304639,49.9762845297716,-317.228500138333,663.407839628999,456.008117837973,31.0307599377837,-595.606289007901,-684.122367014592,126.566790370325,718.020617468478,187.663813626844,-1105.41490929062,564.796360944505,-196.180438630105,-88.8382675696328,465.649627836556,711.918895494952,455.480711466476,705.503261236282,747.126329920996,490.626776892903,706.649312251037,577.752432136524,619.634089924352,718.419807806144,744.834865491697,620.7686384371,714.713554081955,596.540093927908,640.494837180573,679.450145977042,700.534011046254,628.814768154032,693.638981235205
701.839038165027,719.008172782738,697.133183480883,721.589213563012,728.129602294903,640.649457501536,719.436404690951,723.089896826054,723.79296799307,733.405905595413,759.95001791441,767.215650985858,791.074514915948,779.230535524837,790.189257911135,879.84211676906,763.513608292421,623.831815387004,852.594477541691,709.985498125355,689.038146224299,935.13217644716,573.524102695772,563.634463538643,785.762330470393,62.9575294486232,1151.87969151949,374.340504367934,652.996472308009,582.934391473332,-59.107863799161,475.261833239304,-170.571784487409,390.812757593044,626.317745511498,160.771588182836,-488.821450377961,-669.088818757943,208.210982748427,780.675283056803,246.335682279599,-652.635405499634,459.834380583022,-128.331488754624,-89.1266949457845,620.226267312769,757.165990996368,696.697595847038,779.86194138298,773.238000272568,661.443883379688,785.328352220177,705.191001731767,727.805615799802,784.258340068758,783.774325533322,728.448810721984,781.273048280951,705.159475116642,734.786183233869,757.143580344612,761.540966877609,719.463088327754,766.457781908418
733.43858574848,745.29462099192,744.817662584529,754.739649171205,750.215713894314,699.034961606576,775.645828013994,749.561468049812,787.153356410447,781.624098776412,777.346221902696,865.631569773494,872.342337546654,801.396551792509,915.11052727994,1065.36474636597,862.5975352468,809.112943226461,960.53303970863,863.836229319506,928.169085081798,952.584896334072,841.532576514389,988.667155182559,992.092453033922,562.674952439245,1102.34159003265,542.19217349221,1125.66052165274,806.430397752502,340.901957373715,948.702597445782,-149.081546813128,23.1356342659698,738.458114237214,579.766710014858,-265.860135724143,-453.605530942395,266.783206462867,700.52683650209,346.504613312062,-111.280337131213,337.438010876627,-57.4724364929767,-53.3522468721427,694.320315494744,720.988128778979,770.295669544866,741.47581932856,729.853387466689,730.795301790737,733.650591287873,751.711029599171,747.03587362467,757.81481952096,746.462107523712,748.241459558601,764.918099977133,744.606830370213,756.39318961159,754.952712333462,753.893019375909,747.636332870721,764.175594422606
746.179582610756,750.234451503165,760.837625428014,763.458336078555,753.548222910899,727.660345411109,802.764562907443,762.78912902399,824.763185283329,800.220950362559,770.452026279202,929.273963332028,919.24275808987,793.990904312835,949.691886166986,1159.64865870726,905.38700870123,929.665144133623,983.691574832159,890.489990446056,1107.29638629329,797.884565826196,1126.31538910236,1300.24338904916,1019.0592404108,1074.78724729424,907.109761073933,652.797081963284,1473.89995779399,904.769155780052,1050.26381689495,1064.10591222684,-29.6574682699773,-218.924901540647,874.610316134507,900.5409588228,13.8529776602229,-34.1110738275949,346.373315533267,496.138971089067,425.257980954452,392.040264757168,311.615216462256,26.7418626148395,40.4073788477742,718.613678549876,691.474451007592,759.415508452014,708.084680062589,699.465006361483,744.150489543082,700.877379039739,760.359411321896,738.673695259773,733.826579197926,727.515916084576,731.384369574048,744.323816420309,744.61648717626,747.428255794176,737.933537298299,733.561287425184,745.698567686234,748.099589269405
742.235633655945,748.020848413179,754.20136018827,759.247950191708,749.563282031395,727.775020686063,807.493781425825,771.313516195688,826.241498557987,801.044738689523,766.697928941502,931.881766972258,913.622337830469,791.806156106887,845.678167926668,1085.5410977047,817.22978013498,884.195428072927,945.246974927598,755.164894378135,1116.0886894436,535.941047740676,1244.68225532607,1298.57825738433,991.019095763108,1236.69503280425,677.500736514932,873.737634597901,1474.96642226444,785.581756242904,1602.83689440161,795.05347340467,255.514697356193,-230.978057877696,1038.8270827247,848.371147840216,317.153004442519,437.059398161618,440.308385535764,245.641258915943,435.217246006655,790.941389773233,371.015373010681,125.71104081983,227.827732372113,716.901477445933,683.539045129627,749.476469307037,707.129208288608,691.742245476215,742.036070011128,708.850703400983,759.366935308355,729.674628404916,731.44741006332,729.930313149592,718.17663483488,740.312708957403,731.213142911084,731.520068862338,735.327000184751,723.106004356412,735.745389258252,741.805752566571
727.534601561178,744.051324855584,743.481145200704,749.571853667994,744.132692881742,708.174864271618,795.331183713153,769.545766158509,791.263056122266,796.678640507076,762.543616174644,874.971993292611,862.966237847198,797.335336474224,655.555413497147,908.750221844742,620.850364105639,711.434394580833,880.383971234592,568.687670035774,969.234039743471,325.363771370839,1112.60206896808,1076.12365633728,905.592047232599,1090.55152398004,391.304191530059,1139.98692055751,1173.64021010118,602.871284884374,1668.40420735708,477.979484895169,546.151556060871,-65.9463958065402,1126.3352543473,570.456811604501,574.691991842834,796.043313631963,503.491901997821,106.494842645671,401.930614316851,1061.2045900172,441.404716228926,273.247205755702,483.052253738408,702.34115404807,678.370326426703,745.88005521081,708.393399661507,691.28699582012,740.278470191503,718.155841765445,754.829500516334,721.500783670673,731.157711220035,729.873223325112,716.550180743177,739.137598970003,722.774415232697,721.299798795646,737.262642282552,724.372334136975,731.140211035066,742.331627051304
699.636001754737,724.583021242594,718.582264529833,725.707592375678,724.207927030909,668.647881264232,761.16285400911,744.943959620288,728.2150031528,776.646910743307,738.008971959146,784.931814733016,792.430846279879,787.471677169639,499.348690506325,771.27786358014,421.455747436136,560.473377583732,792.731425316539,460.648189601234,777.181443411186,266.8174922203,845.875711887006,837.134165707431,702.517077803934,866.926166205421,133.044261074524,1150.00581683293,792.347209389421,560.013694617456,1390.8871664013,371.302091852081,713.060069482193,151.857747914949,1035.18913377199,392.487309326872,742.174137725231,1000.29964845383,502.375896954214,136.639471384187,424.924687368869,1192.41272775786,513.520674070556,493.377778472217,687.191488177173,680.660711954522,662.797088446032,724.351152789602,692.388326828349,686.299800635675,728.748045127437,707.863324772773,732.981409687191,701.993675531657,715.020872994714,717.02949407983,700.991006727473,722.107527868457,707.760025249884,706.512716043042,719.397606081258,718.758537628868,715.526432597926,730.023691331813
605.615668157307,630.011890111934,616.687015825285,630.594063102959,629.931470914418,568.609677217419,659.12997808854,652.713127139377,614.808925926701,683.331047901679,642.260104805118,652.339366184387,676.610842530738,703.240248406361,407.716044461743,664.248570302616,273.205406886777,459.521142551652,641.059921017916,396.792903975928,575.697863704653,272.262671643974,558.950646122815,613.418963047385,345.741451951361,638.004037560092,77.3571229646337,647.218679390696,461.075551267134,546.273677202818,1041.80403977179,388.169814203022,735.579705769112,276.053648527318,780.035294562154,371.582592736177,792.446772612279,1086.74650362646,410.743651126472,158.701081207179,523.968762869733,1205.14956363121,572.56533776536,695.916375214364,759.269569173634,613.617178802173,588.472397385092,641.077887274375,613.868359086735,618.726825090817,650.612290805281,628.53113828282,642.560081020117,616.885445228298,630.971944275612,638.610779925333,612.04462475792,635.965718339853,622.70532540094,625.554931266473,631.061066208828,642.059818316853,623.28233590933,644.886041453996
414.239459227166,432.451266788837,415.24403089759,434.776234260601,434.938089821444,390.45062425258,468.175544843193,471.58632521175,437.808459211926,497.361992627773,454.370586915693,463.409584419688,492.709753421422,524.112473900377,312.982624567677,481.826827726568,146.024852247674,320.02289298097,425.299697542269,266.396593351617,339.07500541149,215.310131721503,268.839043116668,349.915263958526,-76.8714262603968,388.103153338969,201.29417599549,-105.88619422968,205.231312927314,397.613905630311,682.490555388095,303.628728631717,606.81708886862,237.838653079897,511.527510948914,312.826533295344,652.501759314056,1067.77690683431,270.050373839178,23.590768149864,575.258474836897,1120.85057125022,541.906424512266,745.557824583947,728.243432248766,467.434784709906,422.984919664678,471.674786347923,439.972363154878,443.509044904281,474.601772144651,447.342050897924,459.682112914755,435.780053964506,447.815065496477,453.891546242007,428.464840658533,449.682607311886,437.267569668145,445.001777710584,444.512438719195,455.529818045325,428.471257406055,455.077595781728
203.343882067256,213.190053958542,205.035415225532,222.145760288386,221.966303151033,207.548378321719,270.334739274843,275.927672492754,262.573677517573,307.775959773879,256.105995264756,278.477035843886,320.912000937999,338.493161301469,197.838495037607,264.026997167684,29.8362334345448,166.707682840264,256.696060812328,108.63731639459,150.67279820994,143.193769956116,54.4310895569934,147.348629380258,-281.53930560174,249.957406560712,345.93722802448,-424.869485966837,83.5384959041416,273.692985102988,373.76885791022,96.684689425373,386.830746915818,144.941422516217,384.464485962007,159.914558994135,341.738342649436,954.112525809877,198.752326628782,-131.884171330645,483.09729035495,979.248859448543,414.761170881387,660.579395245727,659.675077689472,288.63518590102,228.967834730075,271.995225726327,233.901427798473,226.505887289536,269.022304056661,230.769934174101,249.550468871503,226.219953814388,232.801797856624,228.600599469685,221.910729849743,230.269480532801,225.988787665625,235.033097298407,223.62810342513,225.903236007323,213.759696382481,231.24571883973
54.6404288007863,51.8284427991406,65.6956555881222,79.219743804677,69.8967065265516,83.7548567432453,144.15468750388,143.275559146374,152.050493075318,192.82037671351,127.716674516767,149.844208794364,242.460908512511,227.921573529465,89.6471976339088,129.756924428556,-53.8007751554454,88.8050430239554,219.13125128057,40.5600334873143,126.879916302836,158.153623471998,26.4900387168995,132.283888256381,-107.259471184145,337.97472575946,446.980865203805,-74.7348404397619,83.3498023617668,339.809482230838,247.427210385201,-122.197908283126,226.604398123177,143.895635977147,396.161551156363,49.8240270763868,78.4409362358759,798.867239306389,230.210549012901,-127.159795391774,302.099509485864,882.74119827676,270.668252671743,588.042172966677,572.601968677982,127.233970903838,66.9766220926237,98.4793310202831,59.815711654018,42.9441391095897,96.1622741119371,46.4642750559046,70.1914162810836,52.4015551506237,51.6255051044584,38.3705976450785,52.3009977365153,45.689594532773,57.5587921424038,61.8740544222007,39.805879762083,31.7981283955557,49.9807668449046,45.105761017467
-93.9050211834124,-107.460644580277,-72.4104410160701,-55.8734747361693,-81.9154758607,-47.0624462104904,19.9746003666391,14.4695558071786,37.9979257100579,82.2597607817757,7.3646503682952,4.94727385184492,171.947220941219,121.921037910737,-76.9555262250712,31.0562801467088,-158.173120717951,10.8185639293121,189.96861674534,8.47513625697869,163.612036343853,175.110364290167,89.2215255188367,167.323263262699,156.395425935745,456.429534777604,443.147149496251,371.711385363044,-1.60723586367616,404.79093251745,189.259503029898,-420.089012811121,176.951348210658,168.9460689961,387.784223461172,-9.12789642255543,27.8500824517077,642.864651200892,228.532127106869,-86.6777487761145,129.358166307878,846.559420865818,114.71533328767,578.054896748774,427.812887764033,-75.3033831576976,-126.621199191862,-105.568995076296,-145.847509406747,-164.449574262314,-107.188769583022,-161.192054218886,-135.670896405342,-146.108410860349,-155.364184866231,-167.375920199335,-143.961319927596,-158.990845030651,-130.513892118207,-134.789253844258,-155.579166340841,-167.861580529514,-129.084394333857,-155.72167718092
-370.84274712718,-380.60556920418,-335.665652726659,-315.386317738989,-352.292350838731,-300.199130650835,-235.027541181693,-244.590199772208,-208.890688054205,-162.311309688577,-237.488693089501,-258.916381924812,-59.3440121861912,-127.08611830773,-376.877289941745,-200.381415396177,-374.469513235127,-201.960456336955,-60.818989096447,-147.691587607493,3.93588389699281,18.3843535065923,-6.32514223757099,-19.7539064525152,108.719942720476,290.907274850215,190.245550877326,306.671379627903,-335.379993266594,193.966853049916,-87.4479456158622,-889.882245982715,117.148550751157,6.76708472056254,208.298783897096,-186.747072697171,66.3084392430886,473.852187906203,70.3565775568274,-249.789062430408,-31.5942507902895,706.980565402377,-115.602886956611,515.944638728195,183.79403849813,-412.060760823886,-451.659901889461,-434.670458143722,-478.786454440548,-493.122727649067,-440.630032923838,-487.974287820058,-464.946784351143,-470.665172431894,-487.44197116786,-488.861656992315,-468.41836521997,-482.181127943416,-447.852058612317,-455.656554391093,-467.952876489818,-473.500744058911,-434.662812900567,-471.27108699702
-762.541073067372,-758.338209548402,-707.829701086038,-692.334745829847,-727.975956572343,-661.046908201421,-610.367686655603,-632.763597162285,-578.619013404716,-541.825024751428,-610.608229662315,-601.106503662831,-451.32224137078,-528.9089415066,-681.424475383006,-570.682299096639,-642.53832651092,-481.386512290249,-542.765706911155,-413.384781696106,-382.146611640828,-285.826059720263,-316.001346281934,-428.801374168744,-219.917777140836,-156.370678978091,-279.828242646511,-189.302516688548,-769.596990604244,-240.878211927338,-553.694452334564,-1287.06224188604,-34.2919871993097,-357.399231111507,-119.622112126469,-494.133067062072,-1.39539557648414,299.15494734607,-171.365857030923,-541.122122131356,-218.209758597408,402.251261101963,-373.806551533875,314.406687004919,-106.419689393336,-835.005916789863,-861.025171713653,-844.800679184416,-886.093918633591,-892.604243188372,-862.23117690886,-893.076951161778,-885.467163232021,-883.365615033917,-901.50125858233,-890.973338091033,-883.64961050058,-887.872596455763,-864.598664702124,-864.139392668877,-873.046807415451,-866.024863358515,-839.878714769509,-873.663149526839
-1069.11773426514,-1058.42722389019,-1001.3393211996,-992.778755037738,-1024.33184961853,-948.153808745007,-913.178557687746,-947.34136461847,-876.605145940277,-860.073452027958,-919.3830180318,-844.124901001749,-776.479704602545,-873.025644582726,-755.186975135493,-831.126715496246,-749.545393288074,-609.198541498645,-916.839412216772,-573.728968655382,-685.124473844943,-491.68391817502,-582.58631007183,-734.146804526371,-451.030679557743,-535.075361016013,-641.474078501171,-577.227513646327,-1000.03782355533,-551.888693718317,-856.106013051119,-1265.75791118231,-158.122006215058,-651.811769212254,-397.998687355486,-662.59306157752,-118.415988081578,228.559766083168,-305.35327247642,-650.371362271011,-373.108675178312,165.879443578599,-502.258466032133,90.5283126756157,-254.848403772744,-1140.83594480699,-1146.98155169369,-1138.20309427294,-1170.23925490927,-1168.04839944186,-1171.82129072957,-1182.20042478099,-1207.01430832922,-1186.36330603975,-1196.51953707483,-1179.24329739069,-1190.9103881164,-1184.48110778196,-1183.61813973642,-1168.47826188596,-1177.36814889122,-1161.44278065803,-1154.00457959414,-1176.75336612908
-1113.4185890945,-1107.8455159621,-1053.06638284144,-1038.87349834244,-1066.44270250302,-993.071014867959,-965.971738904783,-993.850423394474,-925.15968443313,-922.124210575908,-962.621155452804,-858.531198054326,-829.440592024685,-931.228327591129,-573.320232582469,-753.358072033519,-593.917942454083,-476.459538386496,-852.95481929924,-474.86086730255,-627.605901707953,-422.772369554134,-546.075546071035,-679.383217591263,-373.324577148778,-568.567123866166,-649.236675224224,-524.544496864735,-918.856286944726,-492.638327987835,-797.21103139744,-884.588862219133,-79.848210208174,-632.684516010337,-458.488797964134,-497.213989492917,-90.1558349831571,376.797563499881,-239.800088759025,-465.197747401155,-389.756073730203,215.162149964133,-424.260869511127,30.6220817211331,-106.690107653735,-1174.28810157198,-1149.36082599487,-1162.87172154135,-1186.20760210652,-1180.65636943593,-1211.59779036139,-1201.40019884935,-1270.77152023398,-1219.19331991986,-1216.99257157984,-1200.62514830453,-1224.44601032539,-1216.02121487147,-1239.5150943481,-1211.63955077335,-1215.97512673569,-1195.88624213198,-1211.72441949785,-1217.75340104015
-957.60825673758,-953.5100062613,-914.326448402732,-884.3394840377,-898.345281757306,-846.556855443597,-817.111953038443,-824.807730331505,-776.317978906127,-768.331153558075,-781.496832735328,-714.577809966469,-672.222119754283,-742.088933270407,-358.708183388794,-439.167024471088,-347.543259100745,-209.302967817695,-456.301948068889,-219.247384263364,-309.765273736071,-190.824065065555,-275.76134232951,-377.021768517955,-158.416816702791,-364.087226808007,-461.342488788765,-204.800721848994,-691.614063232301,-224.037386571522,-522.727025284919,-517.508244717542,151.040779635691,-371.574531378481,-371.54489353966,-176.306696275195,62.8548616428678,656.071192230991,-103.23052516702,-180.68411473565,-283.142175996023,426.457724791313,-242.941363236503,116.328607706645,217.331128997817,-1009.80631162699,-950.956624682021,-994.214528218065,-1007.76336750676,-1006.74254800042,-1053.23359254076,-1020.49311824316,-1138.31859316386,-1048.79151942535,-1038.21338730996,-1028.95433422917,-1050.37215828167,-1047.63338283597,-1092.47553816574,-1054.06323635304,-1051.57625328969,-1028.99243872599,-1067.278229138,-1052.78816465453
-816.249038160872,-800.450067896869,-779.422540137618,-739.608843167261,-732.908117004008,-715.979348881698,-675.137925202903,-664.747581878892,-640.387013197537,-615.286531113643,-608.737205028822,-596.073243028168,-535.194082674417,-561.202432565386,-300.065128908114,-206.261694643429,-260.599080854268,-36.5117082520054,-118.919911318027,-47.1942999844597,-50.2815425061622,-63.7760052099343,-64.2261406648447,-132.870945195562,-84.465605896096,-234.557365114568,-395.531965926396,-14.4169149717669,-546.020372103224,-120.232813001163,-313.717483707271,-376.236762769389,278.983583357681,-165.28693267954,-352.789421896701,-41.0014099660606,117.150294643147,821.658073904334,-120.39023471445,-35.8429322282137,-199.922467770335,523.193154935617,-136.201087337815,163.983338056618,420.661533429441,-860.57928633763,-782.014096647972,-844.539896446075,-841.966782247404,-848.335672869764,-904.743093030093,-851.684097615603,-1000.30176765867,-886.844786644709,-874.539564580716,-870.812878130209,-890.950619731054,-888.556934079833,-945.095606850896,-898.235213144622,-893.034122106781,-870.6536433403,-922.056860466843,-890.828655820708
-783.156758105588,-753.26802761792,-745.902143570718,-705.559183063848,-686.971275315164,-698.167130871279,-646.726549239432,-625.14187999986,-620.225332878047,-581.454401343616,-565.686692074454,-576.396395066053,-524.47129740336,-524.083060579483,-373.348438837238,-201.211033289538,-358.521443773929,-36.1894583869843,-15.5153018863845,-47.8212292539068,22.6240370231127,-136.314707542476,-49.2963320909192,-65.6694675450127,-194.266665371755,-321.00674541366,-506.294362407178,-88.6267055387282,-551.442780910743,-291.96828867441,-332.928438499905,-385.833827730271,180.892298124664,-190.748323565567,-463.740761241408,-187.693733193926,-17.4966418047089,781.202074012911,-341.076387947301,-77.5660740079846,-248.866429755385,444.199060838853,-177.156793099855,99.0884304285043,406.666578432705,-828.844380948273,-747.914597478032,-814.300877628577,-794.985611879082,-803.091051926145,-865.712132055267,-804.024164890648,-937.005611272533,-841.886663559813,-830.390867663304,-823.189901127231,-855.269762574353,-844.471749901918,-895.909872496103,-848.734103160349,-844.560287204127,-824.393863439839,-877.516167977549,-841.114589589237
