-31.1734683052963,-159.274674108688,8.77206898823454,-50.3125279159899,-183.633477249571,8.77206898823454,4.85726134059268,2.3198860134174,5.29223996810844,6.30719009897856,1.81241094798234,7.75711885736443,5.14724709226986,4.42228271307692,-2.97235395469104,-7.32214022984867,0.434978627515762,-8.91706186407313,-3.55232545804539,-10.8744656878941,-11.8169193808449,-1.59492163422446,-12.1794015704414,-6.88716160233291,-2.46487888925599,-4.13229696139974,0.0724964379192937,3.33483614428751,-6.59717585065573,-0.724964379192938,6.08970078522068,-4.05980052348045,-11.8894158187642,0,15.4417412768096,4.71226846475409,-17.761627290227,-14.4992875838588,14.4992875838588,12.831869511715,-1.81241094798234,-18.1966059177427,8.91706186407313,-7.32214022984867,-5.21974353018915,20.3714990553215,19.4290453623707,21.3864491861917,21.5314420620302,21.1689598724338,20.5889883690794,19.6465346761286,21.458945624111,23.3438530100126,17.6891308523077,19.50154180029,22.0389171274653,16.3841949697604,21.2414563103531,20.0815133036444,16.8191735972762,17.5441379764691,13.9918125184237,16.6741807214376
-142.625155987877,-751.549901752542,45.538074881768,-233.657046539728,-865.971923957952,45.6105713196873,28.1223449079576,16.8800176821408,29.4613441932668,37.1046204892909,14.8345422631514,40.2146845991613,31.4557245081133,27.5808064397606,-13.1612980144803,-26.4787944296529,1.1215099715513,-38.0339652850552,-10.8384989127993,-51.091616547118,-52.8811696171921,-8.43782402487264,-60.6908401228312,-32.1719496225152,-17.5680055703082,-21.8550443882683,-4.36827452067041,19.0860611342178,-24.7787694988791,-6.04981120593145,39.9149498667624,-14.9138745935288,-51.8477312408092,0,79.0704251233689,28.8842857781761,-83.6260483592297,-65.4639526724499,71.5536534576706,66.0341751950825,-4.8300338302889,-85.4000262720547,45.3561055149038,-32.7134880907121,-21.7227135814151,99.634652242207,94.9452416553613,104.740553211056,105.428541099223,103.491082065047,100.956619826135,97.2821593701596,103.852107710512,113.665907511719,87.4143513765457,95.8692071027993,107.908995145728,82.0199212001516,104.197558198727,98.5486622175495,83.2864240475415,86.8713563642169,70.0156531041163,83.0334147868899
-252.909035364483,-1423.48659222292,104.562784548487,-427.234509421327,-1637.39787160705,104.254310551297,75.239806531924,56.7313494771885,76.2656023719682,98.9173066939395,55.0657883908812,92.9913828751132,88.6889083621196,80.5353194039757,-14.6740784659234,-17.4833920061908,6.30100410677169,-51.8591334137132,5.72273896689772,-90.0963648027472,-84.6398834559034,-13.8567832162996,-120.458746834436,-54.0298021415835,-54.135961901362,-44.714958855286,-30.1819795660894,50.3936647244342,-16.6047709779475,-27.6804548964047,120.752081342438,-7.53205637757358,-78.9811978679788,0,173.112503829379,82.3226905380877,-156.285623725128,-110.31857072014,146.39120937718,147.354443608739,10.1670031828946,-155.025596954516,102.261752356733,-51.1266717208684,-24.3518043835221,203.397079445127,195.52878165614,215.313931606717,216.270869488936,211.57785528755,207.187163956702,203.119831254015,208.458326521058,229.666218345742,182.990687359354,198.65045749304,220.942847932696,173.377414901632,211.927634782136,202.786683019105,174.566691863028,182.069269424029,148.003563154491,175.311235455714
-201.570929991365,-1379.06842018782,154.489139428112,-372.435057548407,-1580.78919871677,152.197896843106,134.663627259581,122.091791084619,133.867816090425,170.752455407667,127.907653930657,141.306604779499,163.870964974277,155.988476311279,32.7674856024666,67.0496092410979,41.1443443768251,15.784658539376,80.2023673087221,-50.3973190756713,-28.5499729795809,11.6727390926874,-105.20136348311,-14.4273844615888,-88.093875306306,-29.9597464042518,-80.0013477217523,91.9700617177666,76.8381862703092,-71.9409921422103,235.220223679304,59.5634485416338,-18.8696243170756,0,227.62316114611,156.222145331185,-136.724944837625,-62.5428502832435,168.035606543936,203.730825855259,69.4497644525699,-115.260453153332,150.667493156966,-9.9640648465186,33.1243771627431,240.261391926803,239.379221885315,257.855688529446,258.330110425623,251.174931817736,245.863400708493,248.821284449185,239.318477947954,264.471133324674,228.090186134922,241.985739753202,260.726939754361,216.203214450084,244.851400802438,243.202315968223,218.170600984476,226.564203193001,186.077195990461,220.369448210842
-44.5489159703158,-788.244729239874,184.281959308727,-141.719073781501,-901.590449187199,180.709724185383,188.090144337036,185.347322103211,186.146134046007,226.583990483894,203.775320974832,177.953496592582,230.469144352302,226.763766988288,129.420299257701,180.485654225436,120.434914002099,147.315641388771,182.617806462069,70.0229106972366,100.102072624557,83.3797583252117,7.3260229678043,90.7256619826105,-67.1862904553622,49.0207635993736,-106.084137080336,148.064242694066,225.779264141219,-102.277403605115,340.898385348147,171.24592648541,102.895898949374,0,238.123677485595,228.21836692101,-33.830880722319,59.6772182745391,139.167887494361,226.089080602243,145.694166724869,27.8618390932716,184.311472950379,80.3253706918416,131.985993173186,216.847782336935,231.239419639092,234.413528625285,236.591099862332,228.661105572769,219.918562837066,232.825788059417,208.493849920631,228.792545251938,220.76912718133,226.625761596752,230.768099278731,208.010566537072,211.404695988926,222.992119012861,213.533288651236,219.085957495663,183.614785985759,214.746901925113
17.7970351920844,-481.809384326396,181.043766592942,-38.0179135103003,-560.530400881291,181.712003203909,198.966893900546,193.347371130216,198.384063606161,233.115833486443,219.082775001007,187.357149561914,247.846746467584,240.611826173476,192.826272260225,225.628862870083,183.090109742306,232.821535737046,228.77700494693,165.097029501105,187.835936383004,146.971739854576,120.379370169203,167.270802596447,14.2553079805467,145.643069810183,-68.9006469152592,219.709895187736,307.316355622925,-61.2716526617053,381.931971561326,235.267385724966,169.046823871368,0,248.852380878983,249.395135253236,40.335688514081,137.381774409535,115.690310572364,221.372294513492,144.490495013576,142.733333995906,185.900742523719,135.625495468592,177.02854413544,186.443750071105,204.297914113456,197.320347810829,203.821962062647,197.179193729323,184.858809847352,200.622147655126,177.432789752877,194.679581699747,192.542142114659,195.417933811351,194.210728609924,183.889438333278,179.94370249444,191.270391356468,189.695861047434,194.125317448432,167.938251627863,189.024545042814
-38.6496046198479,-525.541416834714,121.194084071826,-97.7112642900878,-617.838174461037,127.370612178491,137.104756657091,120.279813601068,142.12487647617,163.029705121323,141.507680685069,138.062843621037,187.368159742443,163.684111469787,156.865777714261,185.525150811768,152.332133758953,209.270380576991,184.244327748277,153.917455301856,172.052038765911,123.706913112766,144.517384976033,133.877600252378,82.983040791141,183.258353975674,-13.393821502946,272.897114730895,256.529133922118,30.6313503913107,317.329356641618,184.695923578638,117.537309692877,0,238.736456827529,158.949111553017,44.5789129400834,105.528498548308,92.6612844892384,141.855776550798,10.0090677333312,164.990071525248,112.845212780637,110.437638545379,116.569064410285,125.9648441597,125.243298619568,129.220478228233,133.052101749449,127.887690862641,123.02566311964,129.588548511014,121.365861168596,139.266658216918,120.878521790752,123.627631729073,136.53971209358,119.428807233966,129.884537984157,126.275539377904,119.501984588476,126.470589040487,115.791624431055,121.329888362331
-91.4214120303021,-486.450749956007,41.6956383103255,-144.775630434862,-567.737082610361,45.4679718135539,48.0524123143291,24.1175246941514,60.3616668542509,63.8345565070733,35.4970051662677,60.5947842189319,97.5877993949289,57.5564648808288,79.7087526470585,128.030745613825,65.0723563409351,137.2797016338,111.601823827515,79.4864720876133,105.878307809421,27.0015381172933,104.605537017787,39.5606791095857,82.9935598540462,150.726874346479,2.29345802397478,262.247155484068,153.028162961088,79.3167440857259,170.924406273237,83.9539782242399,3.19169907401502,0,167.717895901159,-30.2095218322256,40.3980030426508,16.2596014606861,41.8258396598974,-30.6306074376164,-167.12355250678,144.627329387264,-10.964940728203,55.4528077044116,13.4278990317303,35.5396663915825,12.8033618974547,35.4406668179935,23.6538483507141,18.1302866988556,30.8466788525902,21.088724437232,31.9344560604013,45.5144609909644,19.3001765692298,16.8600438176132,47.8180147367288,19.3091709100911,44.6091890079283,30.0707462046274,15.0571256350763,20.9162763135147,30.8006645280943,23.2222268158605
-60.2909560551766,-285.911762633809,31.6614137109257,-87.8184803779631,-334.581136163484,30.7804486286876,36.6944648505894,13.3614164720811,49.2756839054366,49.961414921293,23.6342334683504,52.4147293388783,89.1320143817981,50.888189187451,84.4043547224055,140.358113122557,44.1188513657325,138.203487357934,120.677948209663,68.4035434286397,105.41087317223,-18.3931330512065,111.674088633945,32.7920858866972,77.569916932296,132.235192665313,14.1810954426598,196.369202084508,145.960294968799,62.927659434556,45.1859047030894,97.3456377607927,-35.515448502315,0,81.7324623569551,-158.925540914472,119.285192568945,5.99861807280079,-1.47981728336668,-180.340409739056,-187.198237612762,166.001584346472,-63.7439043140673,70.8844290426453,-8.46171875263655,2.6854639111147,-20.9391675640628,1.88724026887985,-23.1288445237261,-26.1450987912117,-6.32077522375009,-23.7897625491025,-4.13774326457591,0.147838041717893,-15.1797561602181,-20.4826929410044,4.05816958298516,-16.5229786418968,5.55484213186624,-5.24667705505904,-21.6246457743797,-22.1646360022321,-2.9166459812633,-8.42677299813496
69.6134123695845,-42.3127307529446,128.862423475799,69.7146808290142,-63.3469626112832,129.998414643122,153.620169557723,140.596281046418,155.740913601641,178.464927224613,165.90307585817,159.034622844977,213.146447547186,202.879288606952,210.082939942685,269.165631408712,141.303185274478,270.449832976722,273.304521608923,195.319326119629,249.522597006743,76.9231216627569,252.909802489276,214.513213009906,178.166000596392,222.684898832644,92.3774476084276,139.32544893075,309.281793734736,58.6025704909479,46.5775430164249,318.758425882718,108.009780727381,0,56.1519378543747,-9.29688817031016,339.478213334698,189.223782606263,13.1192661623405,-135.278533700927,60.9282405987331,301.327774736523,58.962119118352,222.699354300334,132.772362737162,80.9396456568873,81.2901453038334,81.0816378880693,68.7173651523712,75.609487949531,76.7104121381373,73.1527521123471,76.1479544820364,78.663258100537,81.7239562616886,84.8405223415988,73.2111389450533,85.4197214524126,80.6026359025764,83.6081005657182,77.4663765740442,78.0292165317463,79.3277535097986,91.3882612299747
253.571127147048,228.690133955545,270.84477509537,277.230118457848,235.388264897294,270.884072431339,324.487666940828,333.672255412402,312.040880447668,368.090899406464,383.448201560081,301.293839973467,385.725694678647,423.454723852941,363.036430926062,448.142027435182,272.276999443794,455.620741410843,493.036784541684,392.253940177302,481.650306374895,246.103339980321,489.006808856729,507.186131195873,382.022846905884,407.321191100506,215.794416444657,140.489281184162,529.506092124462,106.353808384223,155.730646066084,611.724684954167,361.225930661046,0,62.1819130725591,400.930640254104,632.12148675197,506.991406292745,55.8125220401358,116.555131407019,436.175946271638,532.962035863726,307.084356202682,455.266984158368,385.799270621437,210.987077088786,245.481125108577,216.677435945814,241.733391351615,256.980983105677,221.747931291189,248.553214854358,213.160664225737,227.347133622753,247.551678550859,263.967530745533,212.723774180682,261.856843898709,215.695276377476,233.801453898052,247.63913827213,261.712401790872,224.304078874063,258.547647869719
406.346298104601,495.283444504317,375.811390363088,450.98780393116,531.57324035355,364.152096864448,443.252468844933,480.714917773169,420.622884908109,502.219180332934,551.967411573734,387.0148104157,496.1929372792,579.544262598555,452.269422628413,559.503068406968,353.2433069423,580.455145254649,635.229313244217,556.171395092347,666.307758327785,399.068663286212,693.446956655055,727.015946102085,587.70104620095,582.008177274159,323.463220871208,214.60277887969,613.25165898037,188.730995545647,250.008584544535,718.535699565417,571.318468731837,0,35.1752252052146,719.593194714827,845.338590738817,764.743590093939,80.1440387345437,386.543647588703,698.078553512323,737.582823421404,521.076555605238,636.558891028886,614.397937004245,311.644100954168,374.295775476641,326.025007803104,382.590252016932,396.785247529082,327.743149374896,385.47497879733,311.594239724333,339.738995448416,375.419820699088,400.106218653481,326.397223823668,398.244690003796,315.036092615513,345.262796433071,379.585868662017,403.823278371935,334.830532440691,387.924605030399
499.46285816879,687.317185190223,437.802898839345,559.789231472181,743.289889673635,416.477882656723,502.477266235109,560.976539412395,477.433222879417,568.209039915228,642.683102131743,434.165773529235,547.446771293815,647.021300691791,508.379570941843,602.698050201255,421.300288145861,646.331822885883,678.974923649675,679.397428195613,762.206275702385,560.513482766426,798.707497246799,808.092255598172,735.317979967469,684.942163640402,434.316269082865,354.049281790337,547.795188879335,314.791486421474,291.727573993518,599.390440561302,729.064867977481,0,52.7522584151473,687.305610582684,939.404782739727,858.448901407394,137.396520728779,534.045084073503,799.345484552651,833.733377964065,622.672247328909,718.034131382612,745.083717104185,377.112992000927,453.53425998066,396.383323751471,455.395867096384,468.80659706159,381.944702898029,457.914403289362,364.260315621461,397.286878514675,444.198390433372,469.251154556019,387.199305560619,467.058294942389,366.91140900946,407.176654228288,450.225669683798,472.5099311994,396.528598907608,459.63896182498
546.616726537143,794.45171630544,469.102658130551,615.12841255432,859.075588310395,450.154786181464,527.290759632062,587.355530288506,508.406943635385,590.315262749754,665.182580993259,476.559099148057,577.516317449973,656.785315289888,568.80995767242,645.612800770553,511.819102886028,697.125398143676,704.98668114377,764.389078823798,810.031509443193,722.788830404251,817.631303835368,810.693626848749,802.635217775786,711.27292031924,568.826573598892,486.52442695881,464.749805928124,476.843376664383,329.561196210524,470.763964515087,844.801375770664,0,219.681179683774,476.7018437315,953.371041263114,817.918133901308,278.017075758865,587.956535746439,832.847603717229,819.341762210621,638.032368646174,718.288001827139,757.463067378507,407.241242824994,479.460645763241,425.451261238729,466.497237648479,485.829594138484,403.021304082988,474.68477059311,389.538783932851,419.886178189945,465.574695770323,483.111735019428,404.866275222495,480.410270196143,387.891655006901,433.073681515942,468.51822186243,487.186933683119,421.85690939902,479.755910747936
497.165690254266,797.772782754521,411.271268188438,568.175675559635,864.821864456168,401.157440875093,458.060491226151,496.019759572618,454.627135704328,509.993439398678,556.760599856776,446.238381569562,521.698923497693,559.818131310016,555.156732433926,629.182237972866,536.341393958895,667.293098339634,677.949072274542,731.577798839325,763.598648671781,747.077303624755,735.436977348362,717.887382044026,735.676642936103,630.195857921329,628.174337523561,490.808312007543,368.153185111189,575.745173558779,337.286174492468,417.667340450839,764.197770522541,0,415.006778761661,360.21464150522,819.30009016643,640.6258159428,409.442706428865,570.317991861771,764.895837411475,651.177823577736,553.808252637069,585.386854024192,588.289283205685,334.595468955299,382.503230591672,347.594546251237,368.990552158409,389.979277647789,336.813763621399,378.820705217952,330.650546727753,351.128717524248,381.59614451039,386.227333474253,331.95936832558,387.749731104567,324.093795271364,360.843819103545,380.917292562043,396.44821208146,353.927063707118,388.681782815941
308.631915229117,651.273615731791,223.157386707621,373.995398813171,712.210241104824,220.846766421487,248.609543319503,251.08568487818,264.621621519835,280.250868704934,286.53089621163,280.866416234353,310.766090078309,307.207122212983,391.546228604695,437.00449127005,409.331879022997,465.005381186136,469.298841520578,528.965973721551,530.596709883071,554.862493837697,512.339074396026,456.669305757973,513.865331994751,412.251239293994,511.118149864307,323.145391127828,159.164828003535,515.83316241187,241.428320723589,284.427207577568,437.59743835624,0,416.626416419002,310.507522512461,488.08763565045,314.983179959546,403.585822535213,436.811847747952,506.417065073206,317.698260232572,339.501912992189,284.756081076102,235.602622438131,138.984787575748,147.201468606621,139.338555735739,143.94421973523,155.760550619417,149.661322623661,150.232849717449,151.474340237793,151.753945546445,162.187381907947,156.631509100225,140.356798794684,164.459719832366,141.859285150867,157.636780872535,165.646631105387,169.923229475478,162.467640120835,163.919594591413
80.7946901792301,428.123484013692,-3.1625545331411,130.250282233836,476.293170684924,-1.25534198405673,-1.2127002471864,-26.0428512472466,26.1893919964005,1.69916572899299,-19.560951862691,57.3616075674147,32.3454478272691,2.34656692929183,148.795346185303,129.30220326324,192.885442683558,154.332514138806,119.635201805826,236.528126503484,174.834692903251,260.339871684709,197.087028740793,98.9626301837033,221.213626598427,112.295719727953,281.934403412161,62.6327226217868,-140.565178959997,331.914193156633,36.0547008290976,32.7864252695286,123.858387612344,0,217.8106536334,168.163364837108,137.29559241621,-7.265953182155,272.066611328406,220.009231131643,168.845272926192,-10.2939760972761,79.4343154158599,-37.6495484746045,-115.035316521179,-64.6046987167178,-95.2549177656104,-82.2301860501681,-94.7511725404053,-95.6360922882417,-60.088167725403,-90.2328786893234,-52.4345221980001,-71.7704271694434,-77.9551891964149,-85.9694453971963,-71.0937748281041,-76.3569383816651,-63.3902958568603,-67.6414230996197,-65.4000207638655,-75.4101030572446,-50.9733115155465,-74.830906063679
-44.7124764905749,298.439604163823,-135.393125197299,-9.53586806507051,337.748620257996,-134.105728623069,-152.49788166749,-185.332964195375,-126.001658483297,-177.032523551138,-204.55065515746,-93.26404647314,-157.908135045906,-194.594527877718,-35.093185763185,-107.125584345333,19.3307874958702,-95.093484538691,-160.912371735788,-10.8124591613398,-116.406660370689,25.7727791139052,-79.3761111897674,-182.103215971659,-27.5722397910012,-154.93941317276,85.8955939065035,-172.673553555915,-399.571153185749,136.725784738898,-218.538350455648,-185.166463020993,20.7080256973605,0,-7.00548728263657,-61.6687002789638,-41.2976886275081,-146.992230433907,121.695991916788,20.7462783450716,-58.8855396320027,-164.277180784808,-105.321213415584,-204.624660526101,-281.186262659771,-165.677934341901,-216.74294887264,-191.803229119426,-215.772566370336,-227.364564007169,-171.08579649181,-210.842538440479,-161.092166031922,-187.080761757902,-202.313071168997,-209.975678955232,-178.64044398592,-198.72492688658,-171.927347332378,-183.728136752382,-185.021914056253,-199.305419208014,-162.704101565651,-193.735850761368
-62.3303429505184,304.652080245625,-162.62714386511,-28.1617852399032,344.764903133173,-163.090004795746,-195.693571454662,-226.298124114378,-172.592643401318,-237.149899209537,-257.134726078582,-141.965490690636,-224.931982211213,-260.334284879935,-117.630567672483,-205.088584816271,-66.1126414501771,-209.954319966638,-272.457542243802,-153.459529354168,-250.723096007607,-116.52293309818,-228.652715998413,-306.88950466082,-189.032801462016,-291.640487472173,-44.079973935779,-290.438055570658,-521.683726960645,-2.91105938418675,-414.034814473787,-317.682120811805,-14.5808268539411,0,-147.005897603791,-262.840148296798,-117.537019298402,-175.28114010587,12.5455815401496,-119.373629368511,-175.412324567388,-214.679369175601,-207.977345146619,-237.54183277781,-310.154065865168,-185.244516328282,-235.348003922704,-205.638243563341,-226.38749926176,-246.95078650734,-185.61315624502,-222.32382845361,-175.709844902758,-201.119894822586,-215.77895245519,-225.931213619717,-187.436257018903,-205.254940575101,-183.865244129438,-193.101743576403,-199.871017609931,-208.887576128087,-173.07268004087,-203.299887273816
-63.6987269842659,328.257796832477,-169.739289792327,-25.4260849759773,375.330113414166,-166.033982508003,-212.714580040267,-241.585863085934,-190.72287014456,-260.552216695411,-269.480568998669,-157.571174264614,-247.395731572435,-283.716095759842,-157.750828254149,-244.465080774049,-117.876266287786,-252.454418330809,-298.61429080165,-226.41961540008,-280.546445968498,-231.608870743801,-263.081453433901,-312.037852186291,-284.841773956008,-275.321751071582,-167.990544187158,-262.995443848834,-489.066837568877,-78.0799918339314,-443.506487174455,-408.407132134186,-153.641057060911,0,-197.173527575826,-363.624789098099,-248.963389161068,-289.717890451006,-56.8179852628564,-205.917343070473,-270.135721734567,-302.99348734564,-280.503075591543,-258.213575672309,-342.291583542357,-194.010281045738,-234.162918275358,-207.859502798635,-219.922017405158,-242.796018247661,-182.499583440399,-215.924599524359,-175.298486775117,-199.18910556885,-207.108393813537,-221.621735219498,-186.884766141311,-190.760143809961,-177.507678499923,-184.036872014999,-193.887758743272,-199.529029450322,-162.836348363688,-196.451786633636
-99.2947262270838,287.101919648596,-210.373257219319,-62.7783969102349,339.407622425047,-198.92767328225,-254.108663363611,-281.797545723308,-238.151695754722,-301.269600067445,-305.808904639621,-200.991022932606,-293.92864940119,-329.393724986305,-212.547245914743,-300.772950503939,-183.658401463807,-300.178665473997,-335.798296963593,-281.573800879909,-293.460950709061,-328.927974297166,-258.484609682795,-277.774380388793,-329.74844920998,-193.955429685246,-268.697036712104,-169.329496759934,-360.301875920773,-98.3870651358944,-327.327224061395,-424.911023117917,-327.516696727533,0,-187.547388401462,-365.891682068896,-426.091463084222,-508.914142810642,-99.8739673019687,-241.556211897654,-350.114417535863,-416.446871597826,-336.096463208866,-300.221919456757,-395.032738604851,-221.574144615026,-254.543481924708,-235.647485444621,-246.477000219726,-259.132769191693,-208.609780259332,-238.141774642141,-207.683409203366,-225.732638805864,-224.960008624583,-239.534818174341,-223.171570368528,-211.047571190181,-202.305326454946,-208.206854154196,-211.544805701632,-220.237542274188,-182.517311326627,-219.075510080596
-167.154342184921,211.785390907261,-288.711597526059,-133.462416153118,262.751666620846,-273.921976428227,-328.63942814408,-354.210090984531,-322.053708678913,-373.875079412188,-380.687815149464,-286.308307174317,-382.452695773529,-412.053122223832,-298.610685544818,-393.011619324588,-261.557709339147,-381.260333518593,-412.022669773131,-339.831546233877,-346.593458465865,-359.588359456522,-290.714538094944,-290.975791179675,-326.761715395774,-182.295541875482,-269.262505370161,-140.977653186862,-260.792263165797,-102.317327742568,-225.723956592029,-374.426272100014,-423.128627194934,0,-185.578018416709,-348.610782960461,-564.203046753507,-697.079883776673,-145.053464060733,-271.846393921713,-422.131604575697,-495.860486729793,-396.392392665357,-357.812761181112,-424.735275210124,-288.602433101704,-312.660349232502,-301.689856852335,-306.177342064647,-305.782113283983,-279.081604805209,-293.768664302512,-282.751475999677,-293.689342702241,-281.533597878482,-286.86520761961,-294.361093606657,-270.106802815536,-272.131654596221,-273.714280397065,-265.595745959772,-276.186701420318,-249.201146981736,-275.867100740329
-262.909976971636,134.050464753803,-399.636590469332,-228.381060133671,182.988950050152,-386.021290734325,-434.547491461917,-458.439879083156,-431.44217729677,-482.78255449135,-488.73295397526,-402.952910760138,-502.369154820288,-524.889514821648,-407.816658094144,-513.123112383884,-346.770195714954,-487.706788352923,-519.640009360019,-406.929636011644,-450.028071123977,-346.693464549785,-377.054167708443,-384.619382376066,-319.300878287351,-280.563835105255,-208.362811669853,-221.899179074103,-284.760341758506,-147.686991932229,-259.733546642243,-378.313915101426,-465.202064057235,0,-259.058271759845,-414.319727257734,-646.735188002907,-757.883548872941,-227.907758688975,-372.120284216501,-536.355427421473,-558.700028182393,-504.36386953835,-456.445707655843,-441.148279650663,-407.967963924366,-409.402644675856,-413.206462739446,-397.391812633744,-391.051626766673,-397.912599742792,-384.315843223802,-396.572185411515,-407.237010508898,-381.516005880373,-372.16185596334,-398.845326977724,-363.445367893903,-387.424228211914,-380.388421806729,-364.979484730837,-368.319672458967,-366.135668874215,-371.584442446592
-376.479344642518,28.6987937617849,-519.551683631411,-340.46045790513,82.8174536929423,-507.314825445262,-549.389567701023,-569.733433673819,-547.138532323626,-603.843139070065,-603.498194230399,-523.912913258042,-626.662667552643,-640.914770671438,-515.691284658969,-633.044697815832,-441.06090850543,-593.584521161514,-631.338909391648,-485.737150709481,-569.672682235631,-371.702053059359,-481.217042142772,-508.26738186353,-363.640446941415,-416.361653942482,-211.742397519328,-344.112335173291,-398.017871806843,-248.939057506188,-388.706158515427,-476.96092526443,-512.812236988055,0,-391.960911633348,-561.306195440283,-686.354780581295,-683.227604221033,-345.67364526269,-546.254717087029,-664.768034039328,-615.268292550207,-635.78034435086,-575.307955001476,-456.21120196589,-535.956730873052,-509.612506356181,-535.067265347984,-508.313448145776,-493.766172349669,-531.758182199899,-492.035525155445,-520.616735571757,-533.719741611341,-498.998311988637,-478.66706118567,-519.51203464973,-473.151251205928,-516.314012054733,-503.132474739765,-485.392812283494,-474.742535327217,-498.308676043804,-486.762591420229
-482.626161505796,-109.954614293036,-613.612617783648,-441.497640758004,-44.3291691542729,-602.369879893979,-640.648857828947,-653.630230360639,-646.241434166891,-699.542481158,-692.49652761638,-620.681821760615,-730.719588638818,-731.532097560148,-605.729814205889,-729.492954477904,-531.937211802554,-684.759326464492,-723.290523457781,-575.926205041195,-678.704340055504,-456.715961456562,-586.230578703793,-614.610280801342,-463.14100991088,-538.011147663187,-310.927359897118,-457.953021502759,-508.286022451391,-372.873098464209,-514.5465828176,-582.053558940054,-565.475033402749,0,-520.794104765541,-688.228142767939,-703.441543859663,-529.360199995726,-466.974258005992,-726.344301092732,-714.513290764348,-628.687841533837,-717.21932747497,-638.402803367379,-447.879075596914,-622.007834533574,-586.475053816217,-625.537473470775,-609.244501233408,-579.877645795737,-631.148048884154,-587.66636640589,-618.050754340793,-627.402227610653,-594.95132571602,-573.244804641003,-616.881366637167,-568.078607836748,-612.340476104677,-599.877973449729,-584.477265952668,-564.378620000021,-597.445780583467,-581.556841411545
-566.678731196818,-229.035994795044,-683.242163136174,-516.599381583486,-150.882300986321,-673.168384638317,-708.316699708319,-714.589161635287,-727.409907813265,-772.479024349857,-758.482297278464,-697.609573500575,-816.39221630059,-803.543042350445,-691.080406837863,-816.359734657306,-615.645393770693,-777.072174947971,-809.84554666613,-680.226810802133,-789.282824926073,-572.534326167036,-710.309532619281,-719.868991439405,-589.232461405341,-664.734295021602,-448.444592274213,-582.744961201433,-590.603011204694,-499.058163008854,-610.288308314377,-646.774095050145,-601.461955190327,0,-632.631137580943,-734.546059103966,-742.549901179359,-394.468266828499,-584.506005992628,-855.336639880091,-677.969777003599,-592.476556638684,-731.531327990453,-623.494200261597,-422.059942637859,-683.062661793938,-661.16125667657,-697.253341083772,-693.450630739356,-656.562997513906,-697.116346360493,-674.456366970968,-687.382975189624,-693.990888848813,-674.404751645324,-662.101879412497,-685.209415203855,-649.739275547529,-674.857452435148,-670.400199885128,-663.663355482247,-648.435704100243,-665.501389686445,-657.957391341928
-636.178930994618,-299.243089390844,-751.306088402235,-583.086288643045,-216.13215331066,-740.669899167857,-774.406942645245,-778.177400376926,-801.629371221772,-848.210466743095,-826.693221903828,-773.755497318825,-894.529879406997,-878.457862046921,-780.878410499504,-907.795945230532,-697.393355604394,-874.173906630887,-908.78113128184,-787.137998751235,-899.642965593326,-689.817014681487,-837.076823301899,-831.176988495369,-713.688609361336,-792.438655826777,-580.464802107789,-710.062063664593,-665.453962754955,-618.143622528547,-683.925459682773,-693.622655140397,-616.422102128079,0,-740.102901792227,-722.821310353561,-801.151442459759,-352.977263773546,-698.230319446082,-902.329498402754,-629.432737222525,-551.287085711513,-711.777313549582,-583.567559799859,-418.83014668308,-746.123966925068,-746.286561191158,-768.624315306516,-771.735926894109,-744.590775247202,-759.704245914297,-767.932121535886,-747.551306827975,-763.661423014791,-761.304526183731,-766.467298244986,-750.641100092148,-746.503515876952,-734.358925715055,-743.372304089819,-749.590902941484,-754.166727903952,-732.491429897262,-750.115218851176
-683.724246982106,-348.503228325978,-797.209596252512,-634.258759799041,-272.620313663591,-782.74004928938,-821.67108482126,-824.085219015123,-846.932121957369,-903.571564292321,-878.498186707354,-824.368272900442,-943.119891834952,-931.70025834439,-837.229089187927,-964.35751292727,-751.40810541355,-928.155599967758,-977.7010708371,-850.93283429604,-956.259075965713,-763.304355360712,-901.995339172172,-891.087269423787,-791.966947654196,-860.733392955633,-663.281265650156,-775.281645579655,-710.910471135447,-688.416333011622,-708.970183008035,-711.795267383612,-619.833116537335,0,-800.067984620329,-681.063435448134,-798.885705696345,-394.939366600036,-761.087341769477,-849.551409720321,-600.410696829992,-541.661695680687,-672.00290025929,-562.252087181927,-448.151534524201,-773.874050701942,-796.297619564239,-798.42608920155,-815.953070119634,-810.424073689211,-793.353509278629,-827.962423912773,-777.807621326566,-805.242218088951,-817.71724720976,-843.476733624982,-790.038190280462,-826.839350993779,-772.698909732873,-792.362943443772,-812.176149285099,-842.519629285732,-774.675500467072,-829.401853256299
-667.334020166644,-367.688260186214,-772.384117374219,-622.544640747179,-298.400572686972,-754.032762806658,-803.68004768204,-799.639255484533,-822.245231161736,-885.021615349351,-859.390204970574,-802.654530043427,-923.480062712928,-913.997212178844,-813.702461596936,-935.336986169698,-740.688219391032,-894.18837659673,-955.205773577005,-834.293452597804,-917.710874302084,-756.122718961894,-875.755121599283,-854.152696439842,-790.060302942942,-838.999413138995,-656.297945412937,-751.417285525056,-688.594162502865,-672.460107628049,-661.974552748407,-673.801435187385,-618.239775977613,0,-756.903632601206,-614.499851619236,-700.269810685928,-449.716820829662,-721.698129074335,-723.509018924247,-573.032376071334,-554.544638136493,-614.004401623078,-555.690754298079,-479.527104492636,-726.385724520908,-769.612683627679,-745.156059094358,-783.759462889426,-796.078994757763,-746.809344192998,-793.549007006636,-735.463740320133,-759.471184648282,-779.207617480806,-819.645449828607,-749.189835228584,-806.984011339804,-737.319904548098,-756.63544091057,-782.829356452843,-829.716208600896,-736.442444840735,-810.697448021683
-568.106444004708,-295.080285267068,-674.680162459056,-530.755207911468,-219.185597715907,-657.768260108007,-717.61424035514,-704.552830028667,-727.523522838739,-794.378685689422,-762.887553072094,-709.472069433417,-836.000068244022,-827.62908561271,-719.299318358826,-831.10940442511,-666.216684428426,-794.123507994675,-849.700884224877,-754.574919828286,-810.330420338665,-687.173288147873,-793.436925825906,-753.722454889526,-725.29622466903,-760.103037805287,-583.27423599929,-676.850243653542,-613.511214060064,-593.405999192301,-570.746916163762,-604.101492136801,-604.498720916942,0,-635.943210703983,-537.53724965314,-582.090879354976,-463.703607148173,-604.1119898691,-589.532090118567,-542.832071179421,-552.82882342984,-551.301160261343,-540.202988613943,-484.154905410621,-628.86014486409,-690.601396817758,-638.438165624685,-691.570390402787,-708.505975209119,-638.889713701529,-686.139245647149,-630.038108902043,-645.371589164618,-664.854813420059,-704.906462766947,-643.936402411437,-684.265619316076,-634.872266385892,-647.718866790294,-663.914744502464,-709.184762751099,-628.666353775421,-684.52278973311
-430.482379582962,-143.498290413783,-548.221981613866,-403.776083506262,-62.3927113388352,-534.795893198851,-599.561871056562,-588.114844070822,-597.893946348886,-678.972628650824,-635.772637041006,-579.729182402898,-712.377399843798,-715.210009787543,-594.637279437123,-696.417727190756,-550.353357682076,-670.112918532927,-716.218727791634,-645.351751607975,-681.109582318175,-590.223244675129,-685.721544110983,-638.647133314743,-626.403024264923,-655.535914790858,-490.535669235163,-581.315536383003,-519.676735673509,-492.758644324476,-469.641599989355,-532.920814757722,-559.438368890984,0,-501.707432588519,-460.545519907523,-504.411474191505,-432.895278051408,-468.189436978913,-474.569487309322,-499.775862212643,-511.350426483027,-479.227692133627,-491.734622794714,-450.940029923621,-520.256487979796,-603.076802423329,-533.240221821273,-594.625024455852,-615.542875834341,-527.780864136916,-591.628709025186,-512.190544879553,-538.363962043976,-562.313899843173,-595.209983484859,-535.912308538528,-564.669320406073,-522.160747716344,-539.508601166581,-544.214391335892,-580.157084210435,-514.284760455566,-552.472818292197
-312.016650853629,-24.516097435119,-424.09070136456,-294.595142662376,38.0185265163244,-408.272181698759,-472.30507597969,-474.693348198272,-456.038792431666,-558.425318323038,-514.167487022553,-438.476673374744,-571.504428357124,-597.16176462733,-462.137554367368,-555.334996704862,-412.255301413575,-532.290648798693,-582.29268269812,-516.451028089051,-550.877360111471,-470.303457599903,-558.109129318193,-518.667959316459,-498.930612856675,-532.034346522528,-380.295275064147,-463.794570446425,-413.483571072717,-378.855962531209,-360.140280541081,-448.342482029014,-477.103926498354,0,-370.872754193149,-370.952655322911,-436.017214454251,-379.127634350003,-336.355026104091,-352.667412596942,-418.81177184058,-442.136132766022,-376.744350277158,-406.425899379866,-387.006042760688,-404.07946143312,-513.875758672208,-441.477227702497,-511.423442520234,-549.068332388327,-427.361877112324,-542.091711822255,-404.930792029485,-463.884076643488,-512.593557618271,-547.09855896546,-437.471263949422,-519.71198020755,-417.466745663341,-462.319126532535,-485.258659580668,-521.333696314466,-416.403235727989,-492.330916358742
-207.934147448599,42.7966207636352,-293.686393637064,-193.419956515244,74.1048495384828,-276.432002357665,-335.409596610696,-350.068456753287,-305.757223991313,-415.57921606173,-395.862339142855,-297.851191840239,-412.931324912822,-463.378888455626,-325.344645928287,-409.630369923317,-276.899209487027,-385.152611644074,-442.513148382479,-374.603622828955,-423.192364041391,-330.840155776138,-418.595817475618,-394.347423255195,-356.49539260422,-399.847539735378,-248.651483225906,-331.122042049324,-297.169712629124,-252.97777899615,-240.920425594534,-339.085933411016,-380.029092477469,0,-235.583923027536,-259.895702296794,-346.526947866102,-314.547302773745,-210.10659937278,-216.158013386327,-307.17330840688,-363.825489104958,-250.948799092585,-306.448671629294,-308.587598667279,-264.349795776312,-389.454451661115,-322.694887435195,-398.334714479343,-451.078235917594,-304.747564717922,-463.812817245361,-282.84316038152,-368.38753303146,-448.59971439634,-488.034615751205,-313.543811520048,-475.716344092899,-288.291276943625,-367.080040694304,-429.229133690844,-473.758505583378,-301.577432861922,-441.683933307312
-31.918425928192,258.746934670776,-121.59705671698,-8.06268725097767,284.744427343405,-118.525775122983,-163.392457031223,-180.59365102171,-134.995401906873,-225.595623721087,-239.72265690776,-144.864702689025,-220.826484892091,-288.544285354748,-167.586930796893,-236.658760636496,-143.679334496887,-224.162884615724,-274.98457460668,-214.719047405662,-273.928738152031,-175.222675991688,-252.633065044083,-250.754501166558,-210.101086435466,-250.777032994358,-106.799719197023,-186.419780546392,-160.556848953183,-117.189355382406,-109.567778337288,-203.98702461321,-265.207514223447,0,-100.253422458689,-125.618954675552,-224.061717318674,-208.113977613093,-87.670517527365,-79.7082559862625,-183.709265966728,-245.654080301254,-118.959512820618,-188.062635029958,-204.352131675381,-79.4550137702732,-177.612259759877,-123.337747096531,-189.061632031429,-236.87408479088,-111.648518293636,-253.507181846991,-99.2114035261349,-176.697172517569,-252.876917361651,-289.772943357899,-125.114587845831,-291.273864237621,-99.0461824072395,-179.307014578865,-251.624721642019,-298.650039803026,-118.713216770784,-264.546434776103
259.223148888629,774.60581435015,92.2816955039011,309.430826563735,834.485547487889,69.1670849711144,48.9895710660171,38.2285696651571,57.3962254837453,-3.84578511351892,-27.8451310619034,29.6326636055802,-5.42149455336462,-75.5911144272949,18.3608452830529,-28.555014625646,12.3553833546942,-37.9292603287626,-77.4153172599556,-23.9053933676114,-80.3854267737862,-4.28040556152723,-45.614530719577,-68.2415065998429,-47.967648232493,-69.0624943148714,41.8894256999888,-26.6901969203729,10.0735395093899,33.3406112882601,33.2436657501885,-42.0077543273058,-102.168696336132,0,24.2950549281291,20.8055036102551,-46.4727786639999,-32.6193153742334,33.1449444613207,51.9669580857783,-42.8583098727822,-57.0022044659434,19.6648349955608,-26.2211270999464,-52.9668061453723,142.950674679759,114.90498745956,140.557857154042,110.955786559939,80.4192554313582,146.304915170786,79.9018661568987,141.696146490776,106.152917131306,83.6328259983361,51.7902587907037,123.048978289016,49.2199048472166,135.22396642332,101.628328154084,69.0965542805721,29.7442508728768,132.912178855822,57.6187621997359
544.207216209133,1352.7554972156,275.3288805207,628.313435179864,1452.73598940546,234.589827034595,231.49852652487,230.930903030656,222.680671519677,170.599111135428,164.639099464244,183.034979553573,158.943473145768,101.536692594441,188.123261488358,153.16527215298,172.695398849475,137.53488137102,97.5938357830006,161.479705573697,111.822882365503,155.661357273726,153.826937079357,113.875015835723,124.288413572513,108.50886917927,193.240893992217,120.120295310583,172.061990982609,187.553249121333,152.019183865826,116.09315985591,78.0187009977254,0,126.086344765305,143.733358592553,155.262748894248,157.484889873519,141.209827326594,169.145707037845,106.531668416404,145.800238144256,155.820955629779,151.710160509893,116.03595803961,343.310378424772,388.703817547508,374.392018955043,394.907515095634,380.727174291307,374.449734224546,397.545443283843,355.964196600539,367.890274722658,409.97528836121,386.963692089397,352.636968804813,391.967811233802,339.492791411551,366.510103706656,392.373964950335,368.822845020147,368.578190000607,378.799075482467
682.640561148554,1592.69964765717,378.49002770821,777.76249267732,1699.55770648792,340.497338801719,326.626360451007,329.769603861136,319.171285486549,248.842965793709,260.98398228944,286.867918571841,228.022844052481,180.314856518795,304.28561445648,257.49351133411,296.039208078235,254.081925855517,212.715877052862,288.417305310855,244.876124601632,279.968755472786,293.010461262619,244.731207087505,283.667360987855,240.365554993581,345.512257536176,233.346779814256,273.040455990114,336.130179537501,226.163379960246,232.057703199279,205.100928252263,0,219.836339216289,235.5656193414,309.255296670213,286.912438551988,244.713429338121,271.038364881934,230.306484472936,284.076668982697,272.951965142492,288.603899931137,245.483074051837,476.870234748861,561.85911269015,519.518007043848,573.583777361643,578.455711958279,509.130112120567,592.512307305113,487.80723994791,524.679163763139,597.488074562226,599.087459023585,496.562657922324,601.795176116792,469.796471889247,522.21623808329,585.445027381271,588.219439446284,517.369293047014,574.30049202389
698.259946506739,1446.43248074375,441.24519193923,763.196178761192,1520.89744238799,415.195458996314,373.559455793928,369.593805184699,371.82749307196,280.074174611896,289.040854718229,370.873388545748,258.793507144681,199.640643650355,381.407597472778,318.407561193852,374.893190528234,315.095862268178,299.064159609474,356.113997837029,323.751625907762,366.891422641575,373.839923939966,332.965651156233,408.57520686042,334.904083541759,484.905087522388,328.784239549206,326.41088006842,472.664355861541,284.398619835939,305.774383855955,265.91601600989,0,327.333848283293,321.618719295413,394.09668444261,347.517853660603,363.142854491514,370.257236835923,311.055314790104,349.884721087811,367.101885577349,368.751156480357,315.82453107734,554.164007368241,640.458698542344,597.181154365598,651.700604771311,683.461372901543,585.108998728674,677.338807716148,567.119627195055,603.542318223541,665.966163113058,700.029878754353,572.228493877512,685.699121750953,555.665404967495,591.351685609271,654.669906641758,686.198381737668,594.655217395337,655.899308961946
690.435863175818,1217.41293048553,498.953021077475,711.991117093716,1250.74078191575,478.021221227641,422.992548429185,408.482012878851,419.274376806526,325.175739356729,308.441147088064,444.469350024855,311.808188507273,232.953234783258,435.88452088736,378.603841361466,420.871988579932,349.605544948566,382.074142444962,393.760764127146,374.054348730115,416.135140381067,409.168455897808,397.211846892675,470.700738726627,396.413651869117,563.467266092418,397.418452004642,368.513445594658,553.296269737866,343.101111277535,356.538782845344,301.796876559036,0,416.434802600513,397.686092260958,437.016845479218,374.237126639753,466.669671088164,454.642538234373,375.477159782317,376.546469645859,440.700205527304,415.490293249974,355.67045831806,601.00061207333,669.503925738375,641.080766373763,676.701770951612,730.619870364616,635.884935918632,706.730469101156,621.560283622315,647.489202176762,688.621703461379,739.464794160786,616.115564891143,711.081154140089,617.167978233505,629.832827867983,669.995678756572,713.540271569951,632.209835953829,681.012344271079
695.057977543278,1119.01663182618,538.326553115545,699.156443281562,1133.4265088757,519.523906957857,474.83708071342,450.330585737804,471.590565431818,392.563126287725,331.236107440904,492.689296461442,389.890837664145,306.055591111926,482.455485606767,448.24289632244,462.492035903834,397.037632065738,456.379151657437,437.601183583696,423.677983843192,453.983306291283,426.633414658726,447.702244157827,479.30957317653,424.501123458464,570.698979851978,416.489558378238,419.594618725402,552.624506834949,403.234456295541,410.475866231621,357.452924986582,0,457.000181584497,465.252425328913,468.731637370694,408.712200206478,521.607117640222,520.930806246303,474.414051269859,395.491808759636,510.029631869268,460.003109767485,407.966443507061,641.432668846875,695.844888924207,674.92612909163,696.842202262282,749.551601939426,662.621927766479,723.665527263661,648.516281451895,666.361203826576,705.898192103642,751.688096176225,637.032128152213,721.52178319597,643.786501830884,651.994275755866,677.907918166233,715.482247330427,643.042872919507,683.490111348154
696.424671903147,1081.82220341524,555.756914323351,703.052774385817,1087.1641008279,546.99690843862,518.429410050649,478.198314180669,523.637469413931,465.508755572616,344.845551297757,529.925393528873,477.90626859212,394.891402569985,537.944706306068,530.491312504732,523.511988729092,481.726331258239,528.214135732068,505.091349355334,501.258775432195,515.221463968578,468.39588296453,510.314896527445,489.018916347556,452.509334837219,561.522089684569,416.276844953716,481.420727578422,523.073620792221,480.277508661715,478.595219399884,434.205794120567,0,486.724445789754,561.937501206494,492.571577775124,464.670952556338,550.363087852541,603.806509325885,594.935206684729,417.26045043524,585.164510886393,502.767319811533,469.475178159665,678.902946878565,724.953575757235,705.196328473623,723.285578833555,752.453300386208,677.98616595001,739.36861030231,658.194979299421,673.423540576199,720.415738534835,748.733455670462,644.180123499372,722.593684269412,644.704588292052,656.031760711537,686.344952348527,718.04867346147,644.089235716753,679.109088682924
644.42357936121,941.449233518886,530.936361120503,642.6474929448,917.351103371283,534.025864214553,513.862261309635,450.92153615074,527.100116366088,482.268259101313,305.069453168842,529.644760431634,515.474832650147,412.859086579562,542.522588599468,565.777758519181,536.740812234788,524.914785680184,555.129973999121,522.821332762688,546.376596339603,537.887956776853,487.150274192304,541.331152221128,483.575698804851,464.678893581049,533.231370200618,418.35720379955,486.065818210742,493.292147209318,535.437814588469,481.620412774086,448.329471177417,0,508.705642545063,632.686817251269,445.047554157777,463.228263644704,549.860425173008,668.561807536739,611.145458319158,388.518275611535,602.622436175611,476.390597485462,457.977818073374,650.183412578951,668.525319742577,668.844331136132,676.731268223755,674.811725896755,648.417218343749,679.449109193268,623.49482885262,633.776385665789,665.251136680462,668.009651574003,610.921731053725,653.478472578491,604.851889495124,607.045183629709,633.568280909655,661.334566687698,606.780557499206,621.277623798236
477.87557807387,653.018957825199,401.561970355431,454.889495711236,592.235242793658,407.837243091332,386.768426932292,307.773538610738,405.090591207593,353.096871344584,151.24555129937,409.08239737733,402.608337426013,264.541682048106,400.56030063407,443.395727682759,399.371329525383,402.557659330543,428.002682121668,387.762669108751,430.451480524654,412.569533718727,364.5177541125,412.564904142544,362.368192932668,363.420398325025,408.360690194926,369.512906963286,333.825576916729,407.155565525216,468.677161515929,301.290568128555,300.343316484951,0,445.327091072464,508.40857511136,248.031656805797,287.037191811496,459.554734270731,584.357265839118,411.535377666868,227.085979467568,462.387457424086,305.553522535828,292.049166947741,478.703427562545,436.807964625056,480.192173696909,458.772530477995,428.458008968077,482.171199265076,447.307283240422,463.760217127644,456.03617854189,449.914133320588,422.431084283449,458.075945133472,431.443069877013,456.318487518514,436.805777951868,433.530481415361,441.500512246701,453.865510437352,425.801850633405
207.918194730296,299.144291498495,161.9281781408,170.637888832531,228.777920764434,168.860590938472,132.503289767427,56.6335381766723,158.798613313669,84.1773449607487,-101.547839464976,169.811098912562,136.874838716252,-22.141721070059,139.041148656425,159.017388838739,145.183363789444,127.411686782038,127.410950676853,119.16566234442,136.596400315699,156.167932941041,84.1387734635295,91.5551960528955,98.6152516713081,110.47653498366,180.131059300437,218.921079961374,42.0422902087818,228.661994072638,252.462029637299,-35.260446438038,3.43994831003232,0,276.274238425036,140.019187921483,-77.1737169368308,-61.8665059451819,272.241009581019,300.364120898187,46.9590440286036,-67.2726803461721,163.011548060824,8.72460593382241,-11.5013779044326,176.416295286827,74.3917595825841,152.614917538878,91.0287514489101,50.1425144491159,167.104417644867,76.0214790050627,169.761654674028,136.518390723875,99.0028575572786,50.4581768676791,169.607122612624,82.3801904027097,186.509407801066,147.897220069406,109.607028143288,84.6116054101036,180.879989078018,111.956983748448
-83.5462465035141,-47.5052525882329,-102.594185599278,-125.170695585463,-107.412517072449,-86.7355503009498,-150.198585502779,-215.124306975017,-110.279387923334,-202.847977885556,-361.383817204738,-81.2274913266831,-146.993672926343,-305.261448457205,-117.983501297725,-151.952988238542,-93.7196580261731,-164.65463720789,-211.750690513336,-171.06257070035,-204.740484944381,-116.564279765827,-239.925716208618,-283.839913140551,-211.863971401236,-203.259770467297,-71.2090710001619,-11.9195948644153,-250.222956490596,-4.06430123973068,-19.8679386085506,-348.609072028026,-334.777108902235,0,79.2744962328965,-278.438028800968,-423.413924284202,-442.897227831033,57.7715897113793,-66.5400544771643,-325.622578548042,-400.002309044844,-178.843761262828,-316.130051025773,-357.596298412197,-165.350942820138,-277.369381379686,-202.970375640831,-284.133774463286,-301.708309007659,-180.020379305715,-282.981017160516,-150.959198954125,-199.721268312209,-246.393827207092,-289.058800076425,-151.983973200713,-252.952304208179,-110.290014090061,-155.580998419894,-206.359336086887,-245.379778722196,-111.728129303121,-190.732099301893
-319.406576950817,-367.543652737409,-299.203299748848,-365.702690275746,-426.109320137017,-268.836864293833,-347.08194251002,-417.19047827443,-288.034302372552,-381.494613537378,-538.483664862281,-247.085749384994,-307.10844576823,-457.17297430405,-290.080306701795,-351.860214768692,-254.663364776431,-365.357863073902,-436.316003466183,-394.633595513479,-451.288768528896,-335.535499220392,-479.052745153965,-544.878079019523,-453.333690908713,-444.329822485863,-279.278020204465,-241.984689633192,-421.451305526501,-223.660803759008,-225.043106864472,-499.5853969201,-609.663789454018,0,-83.1433989713805,-500.900630297693,-681.784143328391,-700.32498641497,-121.393406005085,-348.838475498044,-585.499266795685,-652.948039018203,-430.631599965846,-563.941141855412,-632.22912167162,-429.883870492613,-495.303059057335,-463.120915966218,-515.247094502534,-490.946960815237,-422.308720832456,-497.082764127124,-377.431208679465,-426.780803582441,-463.777558080816,-472.260742572484,-382.634710277638,-455.192218042675,-326.991587719854,-370.257493502068,-409.341210281141,-427.196514119934,-325.507619979747,-386.397756451925
-465.924947389419,-622.813788898478,-394.795867282751,-514.454222423073,-687.591935852717,-349.210658392686,-415.000454164131,-506.471162681908,-336.167936100279,-410.141907908187,-585.101391972939,-304.80411649474,-317.382057038627,-444.754742910355,-370.094074554592,-411.666056049825,-354.165434212087,-448.413375387865,-509.465492916496,-512.507613034171,-551.538734854792,-482.605455968835,-575.252824698855,-630.322749916516,-567.826725016605,-542.540072339365,-418.916862305205,-388.653778088767,-453.069255572756,-377.36822854906,-313.514276043801,-503.392953272666,-750.496981335058,0,-217.086731475554,-485.2392272586,-781.619654659147,-767.604140296939,-250.062589542248,-470.351126504106,-695.532811618745,-743.350139568214,-532.754750603659,-664.790604618045,-744.683291383367,-538.955095528655,-561.174018080708,-571.464467082879,-573.482911361119,-530.905863486762,-517.535562626994,-558.937945153266,-475.347715314667,-522.405317054051,-546.450056856557,-522.240623697082,-485.788098683911,-533.755791859055,-437.451551752587,-482.063329107972,-505.737893295366,-497.495691403927,-441.824590802957,-491.447575406692
-515.598513171307,-746.279527022568,-401.496747346323,-554.112575976755,-800.084452528241,-339.694020750439,-382.790270074665,-481.343619268303,-296.886851517591,-332.538872593964,-494.555156964654,-287.39521749369,-248.561963093676,-320.425772465394,-380.131532091853,-389.596786241332,-399.589518781456,-438.264599359561,-488.782084966767,-523.895481812637,-535.33437018151,-535.942817713017,-552.105631075048,-584.625763272034,-560.415177900924,-518.644019074222,-479.851622775746,-425.129431766992,-397.467258553128,-448.399264090496,-324.731645328428,-448.411653486711,-721.013347119585,0,-331.321558926875,-393.040466868539,-713.501050901468,-673.104755317029,-334.631862597945,-471.217557550066,-670.4657708201,-658.503164826797,-507.314412306367,-608.584197202789,-669.843187463574,-514.705809126997,-558.278540474999,-561.986954214899,-559.185932978497,-538.328975657069,-513.24901473538,-557.330990162199,-481.500558079836,-534.243604001369,-560.698919061379,-539.194034953686,-499.25762950297,-564.785078249552,-465.543531670826,-523.184130681246,-548.228810034352,-546.917358644877,-482.184526886082,-552.72407721981
-457.106437331132,-712.413322758151,-324.992593090731,-476.504089311589,-727.37130413101,-255.962274050816,-278.981583866362,-344.594900255125,-206.721338457175,-194.999795098399,-280.056419775859,-224.155527770662,-147.389942409916,-140.045310603049,-339.297949431059,-325.066272306268,-376.277813569189,-363.842275306971,-409.697491584363,-453.155384713908,-438.922318777651,-481.174716535342,-455.262677141538,-463.045978253,-465.965525622591,-419.025852552992,-456.754870737305,-368.267314374423,-291.224926204866,-442.797110155157,-295.890354638798,-367.633372624415,-543.35094851727,0,-377.418024938471,-344.489918936644,-530.421529486938,-480.773097015763,-366.501815032133,-412.494309061346,-539.936372431817,-458.070117418294,-401.504604423032,-441.546202548092,-457.72716347188,-422.334045110375,-529.374925575339,-478.295888853937,-523.618292726863,-538.532687834186,-440.789601435934,-528.228762903079,-412.594036442397,-475.803484609565,-525.419181120524,-537.928382382063,-437.421084963692,-551.808916143307,-407.239136771484,-481.1064548257,-525.872810337584,-561.592438853762,-438.360825412096,-545.080957399357
-320.096326593966,-586.460374662986,-189.986141782034,-315.358624707318,-548.22937252457,-133.927918001781,-123.173318345261,-124.509531515212,-81.1988853278672,-14.4451569545696,15.3285634984525,-135.377102533149,-13.5392684844849,75.0928432536401,-275.512883616158,-226.332005522653,-313.284694841094,-259.397600359725,-281.506154634693,-346.685971697385,-295.8433408985,-368.961641084918,-320.50001491171,-301.273328736657,-335.681095286721,-278.91769410989,-377.308069072268,-254.139051516997,-146.26700595038,-383.310402239437,-219.774682268026,-250.972043189342,-327.946563771124,0,-318.155208853699,-301.418539039528,-325.911126115089,-272.397122357114,-339.732195767418,-316.710960283193,-355.405044328999,-247.868603032294,-261.794946768903,-246.24836484387,-214.728374599533,-297.673080269607,-436.798831959898,-341.391720276343,-426.292277429061,-466.711598553834,-312.646677511702,-445.931478901207,-282.928701480409,-349.086395998327,-427.930737481783,-475.35029489186,-309.836774038124,-468.831649191555,-278.377142145252,-356.413692671251,-422.295199519751,-492.602825874461,-320.40708929913,-447.678550733069
-193.030395674759,-467.879693129347,-67.9995504642444,-156.524681218333,-380.197589205302,-37.7529955519649,28.7522570822901,96.0565404474517,31.4603403570406,171.392876996101,306.295994496057,-64.4392453577552,124.316293476815,293.852299752145,-231.091182285268,-132.602335719004,-283.05817379279,-175.764105530266,-156.312481052475,-259.524354994693,-165.699994937989,-287.819930836659,-192.687863464907,-150.314969087969,-227.707218450225,-145.327139040667,-301.887212225819,-138.843213739243,-1.49307169843878,-310.404387661115,-103.14326070784,-119.112155785439,-199.254303993014,0,-205.188559551721,-201.383946279717,-180.969197422073,-129.110571641354,-280.785533397604,-205.897766005501,-192.381832311213,-110.553964017344,-137.970384573252,-103.004240278945,-46.4074014041407,-174.31846938768,-287.25118025836,-199.943752513005,-277.334705205197,-327.573454171544,-185.853630015141,-321.459010257546,-162.569114134118,-214.551179691635,-298.303624054508,-357.763332160834,-187.34413294828,-348.788851415509,-162.070304817899,-227.999810092225,-293.372343466944,-366.213427066294,-204.77211893558,-318.406862196634
-123.415439326524,-391.044038753395,-1.37582686605725,-57.4802825881074,-268.352003518101,4.89534739801068,122.805334716176,245.001424433309,90.8615013885706,308.584272083183,518.179027955615,-35.2231529909248,220.150516344591,467.756018119182,-211.414026068662,-75.7301999229474,-296.738574697627,-126.359755857905,-81.1079828361961,-204.13065948988,-86.4767404763883,-251.113903729418,-105.644297567913,-57.2107418837486,-161.16955566709,-62.2706616927958,-251.380364653356,-68.989004554367,91.7446000660151,-250.812422363683,8.47190060581637,-5.91533822763788,-150.662277703688,0,-115.483560477408,-67.849745967933,-95.6941605914182,-54.0734508684039,-221.599174563322,-113.512259400341,-91.3402458129843,-35.5037259066355,-54.4977545332858,-32.834335427651,26.9658326910815,-82.7140316843558,-145.716396287999,-98.0629651720933,-138.24268521326,-184.971904184167,-101.233740567102,-183.986969798013,-97.2319871584491,-120.159967042738,-167.982145593301,-211.95038943906,-120.955963742485,-219.449987673492,-108.633011237832,-148.574068467928,-182.485327134755,-223.286137343396,-143.084107739226,-202.077692045184
-63.7873273923638,-319.437691431934,53.2022998409761,11.3121692929524,-187.421745039366,45.1670164374078,185.242448571204,335.40510907421,137.699708802856,399.729605382734,649.312256097721,3.89235532709079,291.540949272887,592.367120753603,-157.338664224212,-11.2146859200794,-265.908464217058,-56.6498573221366,-12.9840958432409,-129.711507253156,-23.9495441157828,-181.673281580264,-40.8608260768729,-7.35377428028311,-94.5560632569999,-23.6891713578698,-178.366355836983,-39.4167774520957,129.228934134547,-193.629918020134,76.7457094292156,90.6657110210804,-56.4118857992258,0,-57.6306510122357,46.5735615868445,7.51892425446799,46.1618889853509,-159.883844747932,-38.6811288530214,-6.60714712147362,59.3929992884039,18.0194627751419,21.0145658202548,86.403088347738,7.21227852179769,-20.6889448972167,-2.3176777291196,-7.97323951340058,-58.4862913558452,-16.6230268586257,-37.7740436216752,-31.8290463520359,-26.3036608216537,-30.1020158268634,-55.4597441333777,-54.3115814410287,-71.9544173930627,-61.4415383222511,-69.7679921212164,-66.2623696128973,-75.8064899505863,-87.6352005054973,-80.1008102139004
73.9437790289892,-186.271791736171,183.670127934977,135.62092982632,-72.8506824737723,168.347770724729,309.582220946278,456.663207821175,262.527973986821,522.439453634465,776.217793279157,137.01175207841,416.592774784232,734.724124626876,-1.37070667226855,143.544230922861,-109.240297806673,98.3668652035056,146.830335712362,25.6838132720773,99.539123747006,-19.7314946602232,67.0790377539905,81.6686988521703,29.2293751226535,40.7295047703925,-35.6862620935948,15.6794402581424,174.214767690864,-97.1234860307131,128.696467709227,211.544497494889,163.186932386173,0,27.583605352066,159.549207951226,208.012567057229,269.899037203977,-52.7990183834237,72.5232292341872,150.554376676318,243.014542030789,147.517537164688,149.23436306658,234.348860082108,179.015722461815,179.228944970646,177.062882721951,191.889912542952,119.072806649235,150.223211201355,151.837499138509,130.834643314035,151.137259224619,157.664018121833,126.671218935062,115.81929666116,118.776284861545,84.9312602836615,98.6978876688411,112.923293204073,102.473065853939,62.362809033685,100.71266622502
318.032068594177,45.4262155445545,421.314578998831,361.241576941884,135.720214076469,395.231109515837,535.483539790147,668.850414997565,487.927614523367,723.92538819895,965.900321392939,369.447722594971,624.662336223436,941.005432869918,246.360034375648,403.538211068069,138.407932407664,335.788806797693,425.076989892522,253.794560522713,316.254160549346,196.408571262433,255.703762979624,268.916927481797,209.80280507544,196.056877609031,149.132008157075,158.85363110954,294.408725109455,66.1426046650937,235.702301358476,386.981761803993,450.669458347802,0,187.513381327121,330.853531151042,499.149694592566,599.515939180698,127.924388245206,262.678897638026,397.749250788458,504.153036379619,365.293044408675,383.003206042416,482.255765687422,463.144016228261,526.424345512695,476.029497237757,514.179304960983,438.047075386299,431.462827632003,445.173674289796,414.808820886257,442.322499207415,442.288488819345,400.071142104272,408.237961171163,392.938853512121,361.445630832143,387.243068516222,394.912350352361,374.18684077432,342.173454428708,382.903235581915
582.94439882066,305.224784189344,679.346280358865,619.20929758665,392.538670667391,632.730987294284,776.293341506161,908.63088301502,716.477685486643,933.662837185759,1174.964589776,596.796063107053,834.189942123435,1142.18121633778,484.676115695659,668.884484320022,361.853933843444,565.00832555141,710.874278325842,461.170588929223,548.117077990135,367.354042078319,465.174195318796,496.923297106374,374.040742919263,402.841318092256,288.908312212267,354.755249765123,467.734939468292,251.056830204645,402.092691912017,574.507425348112,682.199246947986,0,381.611434306102,541.896863238918,763.159099955391,876.506636619858,328.176049894252,485.448579148433,646.23553256311,748.440765689077,604.322063068319,638.658223265251,719.951997576051,767.329716474257,931.825156396399,804.824261675051,888.407907590889,854.485662629643,746.49183630557,817.843672591281,718.469748285962,763.097148451136,785.054477326407,764.438214503414,714.83481488165,732.037330521774,662.736358471046,706.946402803827,725.699323455458,725.931993974101,649.807210279923,715.548762016245
778.071222457446,492.507832752762,858.62842432393,811.661015457618,589.91195152094,782.632087257379,935.523860615204,1083.0167813401,855.204626477908,1063.34274712659,1318.04789921817,733.771159147982,961.575404755255,1242.30719905828,629.10353665058,831.380182737573,499.090797905733,701.052725995249,880.017436033745,578.182805756353,692.716839113302,454.570148114418,607.174525339976,665.806377133819,471.663532004621,561.852724196541,351.002383696248,509.097873543475,613.069898810928,386.188595074448,552.089500323939,705.655964850611,802.202298281439,0,530.43421888843,708.500824479836,893.771515464671,962.707021021519,469.831179818423,661.137839014207,813.246049763874,888.635133322689,773.506934441155,813.203392909829,843.725314846501,981.245819373382,1235.89592663315,1044.48692260431,1187.56186559976,1201.63160967869,977.458888861465,1141.42984613631,923.332680441899,1000.2436849221,1075.13938662048,1102.03668380055,928.914612618169,1035.89159960199,869.728379288431,942.854032814693,997.611796022642,1040.427101022,866.747282388318,988.662476059971
914.789098323051,616.538859285036,970.223703760019,937.359621666741,714.42034988123,864.034665093962,1028.06393007533,1198.24296429789,930.817978870521,1128.55503887793,1394.84156696492,812.993175860911,1029.89064905159,1254.52760798638,705.621922549225,908.280292688581,587.305825279533,768.877835771153,950.240380165953,646.684390644725,765.297008373093,525.994145981429,689.093572837079,776.388794680367,549.473809342539,660.246426987464,408.877488895636,605.771547824777,710.151328810727,479.310853077904,652.693642060429,789.473831744914,860.178400972633,0,628.999381745201,806.835477883081,929.828409495657,902.409011744346,560.177455106631,786.742972374896,897.683270496353,930.972271308471,862.42054858467,895.939253522259,871.845916652006,1099.28370446442,1403.0804853125,1180.84330273982,1370.2865793636,1401.56765328631,1103.88521014875,1342.05989544727,1030.35346440335,1139.62922769196,1262.05477112224,1326.27950663818,1058.9071375524,1240.05423938574,987.028343034014,1085.65425144813,1177.12504859049,1247.12596085866,1001.37711277992,1170.83003833106
1017.91537597817,722.784897508163,1056.4249049538,1029.62060049536,805.254927352363,935.190306251485,1097.86879605576,1278.98492154543,997.471117225916,1177.14685429362,1436.34096775699,886.652617554503,1088.34592144681,1247.80243657056,780.289821412159,985.215632761497,670.800777235499,846.670455001744,1025.97940720478,734.963473683269,856.06760664781,639.103628893789,780.325601135102,892.585904667901,661.860214257029,761.196390711008,519.243981278528,699.746144658282,794.870882288903,581.328949957353,735.990509703339,868.772511269985,908.304380335906,0,721.318208234017,868.442664582048,969.619754090659,829.976397742934,648.916194727053,890.967193798019,918.358899441193,928.246345670168,899.339345563578,916.933709966441,866.284244842817,1154.80111590401,1468.96902291047,1248.69268622275,1448.3901867078,1486.55464820459,1164.92378955179,1433.38100389732,1092.23536373758,1217.50054111193,1355.84279416051,1439.72538587339,1141.97971109601,1350.42984675213,1064.70184006472,1174.82482933758,1284.39003289042,1364.38360163325,1098.8518046112,1292.13452204375
1032.75771828583,753.26681152366,1076.84953711396,1042.70821160497,812.064801537802,965.806612534272,1109.52148449493,1270.03002065648,1022.08100338553,1178.55734210957,1400.23973579786,923.258488580064,1112.17142334908,1220.68251279682,844.699548241254,1067.75988677006,725.721017500249,936.219892852018,1137.21125499702,823.088950125401,973.958546651075,745.781402386305,880.708140395088,1002.90825161204,766.696836102463,863.499359312587,625.121391641939,789.106358400924,858.590309683133,670.952098532912,796.526501622575,915.095012558801,923.114468842655,0,793.294144770368,880.668027515497,1003.36054596167,785.350305894536,720.77114522333,934.02811765787,871.007953206639,891.501247643394,872.242474533272,872.221382332631,825.495084172977,1115.24044920098,1389.29410985055,1211.78355451592,1373.260443571,1429.18909255747,1138.75057777623,1387.42493990499,1080.28710821754,1202.37223097242,1323.42547127205,1418.74458083341,1136.24020486967,1347.65348590401,1071.83476974898,1179.24411460243,1290.24249455579,1378.24270543706,1113.82533516781,1322.95664352368
898.500455192955,609.041138925612,968.230566068267,904.183615049973,640.556794081573,888.827856048001,1004.80756222117,1117.77809839825,945.420148941056,1072.11644158944,1222.10430084233,873.31943605666,1051.76969816514,1115.30372046622,843.944204257611,1081.6450345927,713.653111850261,966.846713856413,1198.599413954,843.978174015618,1029.01284958384,770.212771739103,914.703376740498,1024.08965615064,791.152007613366,893.000076836412,646.682701596982,806.667995898401,844.566090691713,680.017645240807,778.434594267209,870.200919396558,860.561850675458,0,787.145402307421,803.822811010312,944.773102699644,718.437733831363,718.086791031044,858.932188293109,764.196491093468,801.546938636272,765.23192291409,761.555819423625,724.964556686818,942.255526460713,1119.43203238274,1019.18782788443,1104.59780478316,1171.3987788614,978.102305729476,1151.84159834539,936.930836372709,1038.91531889365,1118.64360157477,1204.04725635032,988.026110272758,1177.64086671231,947.358362275667,1037.99695844161,1136.86124306618,1219.68460472072,983.585254837954,1186.37389539067
639.879751150916,298.601149500773,746.219566263788,629.497462130053,302.268239545002,710.876960424807,793.959025972985,851.537916443222,774.093686327026,862.467195890112,920.56049570837,747.268688395295,901.766888801448,911.976719351872,768.790503972068,982.820106705471,652.690480879885,898.859310969753,1110.47704483805,785.09577932834,953.575081667162,711.50381108841,842.780458736061,913.320469630644,733.503898597046,817.896789043438,585.305076069295,726.599676418339,731.715154738439,600.531945171935,664.862878437686,738.481002466115,729.881464896589,0,689.506956962126,655.048257765596,776.363161346734,599.622027093249,627.273121456182,689.161879275793,630.575704051778,662.73894737546,611.736757062806,619.468029928044,582.808571983823,685.532255245297,756.03974990949,723.517057571201,739.46608503749,793.857238461149,714.307424577652,791.946737455807,689.596258362486,757.543928543836,791.771065054941,840.657101447135,729.59906162697,859.165810368676,708.789087492277,765.859903611957,835.852554055918,893.07350721153,732.248247427565,879.052556444836
345.851803306807,-49.8147651389335,484.76207371687,320.451396818987,-61.6119831861059,492.268539904717,539.441096824133,550.226185831751,555.638416626193,608.890676626224,592.889760050768,576.194476576397,689.527054526603,659.013636977426,643.872146616947,793.617926332389,568.544995836991,752.568279342283,879.894341803861,676.395145936967,772.423015388498,608.631132753882,700.187279950085,713.799424437232,629.798232793796,675.445598505617,480.807434564912,588.558688917023,559.644003796307,475.601562397264,500.150680336575,567.183025400416,570.453214261441,0,532.297997742566,487.986394781637,563.597413392407,444.811604948061,478.702696309224,494.41576549727,490.132178978847,501.641811096508,453.843718410779,471.869358984858,430.029450178312,430.456875086015,455.403328471591,437.635431306915,436.880608237011,471.383080081394,433.923843759454,468.123783148948,418.426141826518,453.643373264208,468.368571279816,494.676766073179,444.769718275852,515.753836480353,434.731512844948,452.357093020134,489.709175862864,531.336545526031,440.826415041909,514.163402396196
102.830892502967,-307.49999355177,251.539810771204,77.7284180449071,-312.106767095433,281.014766103188,305.857466147233,299.415016483106,335.149325003774,377.828152608396,335.050923262029,377.497096901746,461.122656085871,436.412921653619,475.440454781567,566.44178846526,438.604165780844,561.819732724345,619.456856615101,525.883432690445,558.904468957216,469.253650085339,534.416303371728,504.260399605371,491.556154847525,507.509961751845,345.446013557957,431.042667017041,376.998157121164,327.360013979029,328.865940382641,387.951648055518,401.508586787924,0,347.214920268753,323.64395985054,365.496621940986,278.629085482696,302.108395518109,308.604518336201,338.999868520983,338.948921781617,296.567123212335,317.410088732647,274.13173295477,214.464034541665,262.635549979251,218.509670131405,247.643321922667,276.434418349444,200.277863213425,267.744585164055,182.370746920956,207.511436667217,238.554042969002,283.866991092683,203.862085816139,271.446962760555,194.97544988756,197.083800589603,223.191867898459,280.124078160532,189.38511433167,239.982788156512
-59.1918583095881,-471.879923169625,81.5197454926453,-75.0254935862916,-464.758167640525,106.077582376405,135.873992628266,143.446495420731,151.27831898541,218.582316318194,173.247337020595,181.261848918941,273.253561449782,296.289867778646,273.979348427715,357.639955920103,252.359730006382,357.491614050405,422.151400668928,337.388953557156,368.997421988765,293.400883530284,365.836452074179,329.583544573436,327.313592360507,337.356465080619,189.531416605496,266.937521030447,207.784030731745,166.84466480503,167.483081232744,219.410836986576,233.010935696864,0,166.592285081384,161.244354058636,200.5408743614,122.147285631117,128.685089423086,136.149988727213,180.544238731205,185.325919085694,136.911100387915,160.80014419191,119.974275444999,34.5330550659669,99.5724005731845,49.0351404097652,96.6835721226439,132.983305849584,30.1402713509028,136.72692990589,10.6172177757797,46.8657590361448,99.7700141201627,166.336024391905,39.8993323974458,139.877148357293,27.4076251146451,45.9789995998272,85.9831953106543,159.3010312876,24.5848359712601,110.113007310409
-193.248926003636,-646.904370592375,-52.115253073239,-204.739651803198,-648.792457780059,-38.5917832830206,11.3806646686126,26.586475847491,4.37370955516637,111.952906333562,44.0381890868406,10.2330820906306,133.365718766058,208.182075996151,71.878635804456,190.734897815884,55.7102847535302,167.938746143761,278.092741333641,144.464287860765,214.986502576247,111.712350718674,199.099964604733,182.078862336604,163.072657121292,179.892552653066,40.4933050499441,106.571630473114,58.6942252211843,18.7300853817399,21.7422198224605,76.4244359276603,85.1624134414675,0,14.89240159223,12.670908512132,65.3169179748762,-10.6177719017671,-13.6168745787899,-15.3567478036212,35.5780044041965,47.3435481278229,-12.5750484167898,16.9089282132111,-21.1852335480409,-137.460193591543,-121.040169913605,-125.112183954618,-107.148787373352,-66.1902320009677,-119.685822736858,-39.689792019943,-124.491735895435,-84.6654258270185,-40.2208621979085,10.4801741864501,-87.9840972110483,12.4128403721499,-96.8241558577262,-65.0698226306498,-12.1256348932322,47.7669931574832,-94.7920929288815,16.8069513171267
-366.078027085197,-848.317767266916,-218.669831763236,-375.998550122196,-868.87390943277,-198.332871778096,-139.115492829023,-145.617336274174,-152.307764449505,-30.6665730595154,-134.024758262988,-155.009186762349,-22.1251767503033,81.8510257814065,-108.67414271031,39.6966538552586,-107.758312785328,8.09957205731489,128.761460237001,-16.3777253919873,82.986948773864,-43.6019866776182,42.6498478697696,43.5911164818894,16.5778706387099,40.2667601586755,-89.720984993888,-36.3184575651162,-69.2090445861852,-106.600020656791,-105.747712405905,-43.8549822201658,-31.1394185837752,0,-117.083934287814,-114.31872899243,-49.4761689974976,-121.418900973562,-132.53525224489,-147.44705479357,-80.1693129862479,-70.0417433267162,-144.797457913617,-107.311945340275,-143.466192222379,-342.630059031506,-419.90917865991,-358.283546477333,-398.891071428994,-368.876278502895,-325.884181383303,-334.067577517233,-300.964697449023,-291.6062804459,-292.094625126971,-280.380161819063,-270.429024942035,-239.943206625405,-267.182032209349,-255.513679158657,-223.950890832943,-198.702323993664,-270.066591140563,-199.31637061118
-543.807174700796,-925.553549973549,-420.235037017368,-541.543207004321,-940.803182385694,-378.440049949235,-332.098378522788,-362.31010170774,-335.009735206565,-240.038188027135,-348.159388664572,-327.290089435885,-227.003386507574,-116.581663842065,-255.510979377735,-113.785698385633,-234.516528708292,-111.808920884472,-38.7208060450547,-126.813952874003,-27.36440775193,-162.489009596637,-76.5762315204875,-73.9601057859518,-102.184327493674,-73.5805209512372,-197.57641598669,-149.523916811553,-168.734337697369,-209.459878520432,-213.084739960001,-144.343555061723,-116.877836746791,0,-239.015648827779,-221.933479929372,-134.082050362007,-206.42123638358,-246.153231121421,-266.59528874013,-164.490611102699,-152.828345356011,-254.755933970635,-198.846905535001,-233.614645009747,-558.647028514217,-719.15203094618,-621.215234115169,-714.241074387325,-712.498488699461,-575.032747913078,-691.781278126046,-523.186641747763,-571.095227802352,-635.054446345571,-665.891967599664,-511.267397275682,-604.309854138826,-497.104435573756,-529.487405022223,-560.845059219654,-575.693096488925,-508.240451081019,-543.373077018626
-633.42040962481,-798.925230804646,-570.517916153023,-606.539830715039,-779.799790406677,-522.076330382266,-490.327140132277,-515.444562978266,-496.623032752039,-425.427024395374,-500.30618312655,-481.483405614216,-420.829888920413,-306.481198088726,-365.040540866314,-256.533285361954,-341.949822677593,-200.428963885609,-197.240671503925,-198.327403598638,-116.046851545456,-253.384676002282,-146.951197375453,-161.378200310048,-185.322608619239,-158.106563163858,-273.189963982647,-235.400461297119,-242.999976709583,-284.480703537997,-307.888179450702,-222.179694745045,-178.227670055454,0,-340.773916719692,-311.582460603116,-177.625385105866,-255.180240479361,-347.024429807116,-368.520732128134,-233.124668604284,-193.829126616866,-337.306492180298,-250.662092531052,-286.433775083796,-677.136352348325,-858.318486703647,-770.23039507068,-878.448178278248,-910.167050550776,-724.618737652409,-916.374758479243,-674.354749714123,-761.151050536395,-872.068256220482,-941.426134273734,-684.002145127664,-879.586703550992,-664.724493084484,-736.709480136674,-830.797927784498,-881.901046364464,-682.742976071355,-828.171004777605
-633.068658810636,-636.693622360335,-625.930740126722,-586.718339004179,-590.797675905107,-606.366315543542,-561.708996639853,-556.917995704977,-603.835593676625,-508.354056598252,-544.33405433658,-607.638739199454,-541.02002334805,-402.985749825782,-473.018493440555,-388.301675773573,-460.135540916855,-308.538111749795,-342.665881252999,-288.29461395919,-220.683670088139,-351.499623388209,-219.221868535763,-257.685525735829,-256.398116297735,-246.942485764993,-335.556367206587,-326.331314109719,-334.673050870468,-349.182048358117,-422.140943088012,-307.061388715319,-247.960990513333,0,-437.14066192026,-404.013109113431,-225.111526662522,-298.519178195627,-436.228715322439,-462.299597966369,-317.90894050253,-233.789972189663,-413.798908534745,-302.21928867406,-339.358616787696,-642.319077372981,-768.855863829988,-714.364168107692,-789.506074507745,-843.369240766628,-688.986768722523,-870.16158693423,-673.023022196314,-743.67374498271,-852.314303061649,-939.44838205049,-695.014100557956,-894.341535592629,-682.251586042324,-760.987973134609,-863.735656708616,-934.243831289338,-708.567779750223,-886.862061799729
-606.988486323229,-605.510127196018,-623.21578892293,-566.680894432914,-573.029663039045,-652.710382577634,-571.308473369839,-532.869724193618,-660.703966062371,-514.338740254259,-524.930994949573,-705.933593773807,-592.471941055784,-418.074833516269,-598.779468780451,-502.393333445042,-585.783297178229,-447.751558756932,-467.41373628501,-422.82836311236,-348.998424910697,-471.088834175401,-327.935273834455,-378.209580154119,-337.280161545992,-358.47606065141,-409.331781294544,-433.564566339027,-461.766046361946,-419.218038546851,-554.785101358625,-418.390552018483,-341.076872065042,0,-538.575810031897,-507.546818499873,-313.040429207249,-368.221312672002,-517.556489777005,-553.585577507563,-413.54285807479,-313.561383121114,-493.975754157898,-381.925992160513,-410.151618460883,-531.941909590717,-584.625897199779,-546.57925346218,-576.822698897748,-641.482907774754,-554.901112962304,-658.173507655548,-572.320669198881,-589.093765423919,-656.18336773178,-742.752763822498,-587.967716914955,-712.571768910905,-601.313102226175,-643.231815060077,-703.825708854351,-776.776154941641,-630.515572515293,-747.245021570402
-551.677583743322,-600.133638288821,-582.526797637227,-539.974941667964,-605.593282363799,-652.158934918817,-541.545962323601,-473.91495750495,-660.068696083243,-490.316142712045,-476.836259770724,-737.959220833389,-596.425392812644,-404.487322619951,-668.932846225334,-552.977343764355,-638.636170537409,-531.065414483774,-521.775190217321,-517.297020351767,-423.777736258352,-545.574687976013,-405.818237921891,-450.238119465064,-388.94502946998,-434.351464481246,-463.674976727536,-501.619523158543,-546.727133701135,-461.280498925576,-625.929195319993,-490.599399019643,-389.708370159981,0,-591.046102191397,-563.377585398785,-373.609873647005,-409.026703502182,-550.854438080823,-599.096191674001,-451.972657765407,-385.19055444933,-528.247060372963,-430.2104984873,-435.090637930974,-430.52750610885,-443.227663043032,-396.029540256955,-406.630061492005,-480.538975982213,-424.604999604435,-457.189640710784,-450.229240097389,-417.56091815147,-440.979851073896,-530.585869065263,-443.002568174588,-496.352842547208,-493.307518295325,-476.885060624923,-492.728372201018,-560.907599175085,-507.793815805246,-535.688040903521
-436.691022827044,-444.920215597828,-503.222810546505,-454.355136689453,-475.551850855427,-592.686455872075,-480.501835181904,-383.417658339027,-606.353553406074,-457.774130419488,-410.251569352126,-681.019929809523,-566.37301354336,-398.064734836608,-609.624281248648,-519.193882834997,-556.505331764761,-492.026134608978,-482.000312120411,-482.75376306999,-392.40754627428,-503.609658834402,-383.844791456774,-413.220094346986,-365.58085778829,-420.64473337358,-453.623144089167,-485.899563555889,-510.369721386494,-447.331359755917,-576.131002848657,-449.685181601072,-326.747807090254,0,-550.272372501872,-510.806133490505,-332.845744759432,-348.368873525378,-505.509752768473,-552.06302981795,-381.053779061239,-369.783919626492,-473.209605054196,-381.024699697371,-358.514364746541,-338.709894008232,-320.069475723639,-276.696928233485,-274.822813260383,-347.799446399444,-303.831730668454,-289.35964993345,-330.453191903616,-265.47486424068,-253.279679495667,-336.849355508325,-298.949706822512,-297.805085016729,-376.520331317458,-309.21634278215,-296.680189246405,-348.059565850521,-360.953450124348,-320.928946073527
-320.305881242526,-213.233979795239,-433.89430248561,-362.068328284246,-252.476301675195,-521.685582736511,-436.713508677063,-318.513354586831,-555.863930208892,-460.394772432317,-385.93191630926,-590.084036750324,-545.198023084019,-445.461342467322,-471.690567360354,-453.972837935485,-400.888382139142,-386.66101923942,-408.530904196304,-360.203616057185,-314.396154131623,-377.03912181034,-300.966791715731,-316.545505605925,-290.844221407753,-352.156626780845,-394.922139998343,-422.164149982985,-398.908425251141,-405.672093965727,-458.131417589514,-337.148351770008,-204.802698791841,0,-463.796803532167,-379.769679758923,-244.96462191024,-230.256499852074,-428.068007419571,-436.826854995858,-247.462236994386,-290.086419166004,-369.551019676844,-279.130582965879,-234.69256399782,-257.946610720809,-172.940912109259,-176.389370595252,-137.541241195652,-183.098533258423,-203.37240972882,-117.764743986637,-239.635488222778,-147.131780021157,-95.908517872816,-135.920620445615,-195.505350073171,-117.713410154757,-283.203974769306,-179.163646768465,-138.428676524904,-152.995142259074,-237.142311431653,-136.682718424015
-299.954337408803,-118.554073229793,-437.299988615817,-372.904855076271,-176.663955294107,-500.714872353379,-466.637044088422,-357.487580012056,-557.969257619018,-541.592726629325,-474.786204875352,-532.589622263437,-579.509413036384,-578.011172928961,-367.391926744835,-424.595189194333,-281.702742998641,-314.570334890387,-387.446531796383,-259.927660857912,-281.321561525722,-263.200251025615,-243.875657860965,-264.217117570651,-228.665163573781,-300.210273681717,-345.088018513416,-367.284438024935,-336.300795803084,-373.998909811912,-368.19075533791,-278.508627304526,-148.596131455166,0,-406.326976590172,-270.050368893646,-228.848789382017,-181.107896039956,-384.816031202158,-334.520858186013,-170.818101522427,-255.35447398113,-306.562586966689,-235.719890956943,-179.174473959381,-241.973302934764,-82.2762803134939,-147.665529771357,-62.8063322158791,-65.8467094038458,-185.871374446164,-9.44494495342594,-225.404350714209,-108.086008990021,-21.665714835035,-2.01596424247461,-179.074052996198,-16.1904229692992,-265.951632586426,-139.432570331803,-67.9014315249554,-39.8579369562103,-199.532009078083,-45.4299815405534
-378.862260718823,-196.56941445127,-498.766278092535,-487.336494306508,-292.349544553305,-522.608738336346,-549.006292967851,-480.546346434438,-583.183916907362,-659.673388161849,-641.420412963097,-501.638588465858,-637.62919066082,-733.473399687454,-326.606121361877,-428.84797026862,-224.618968202864,-301.687127445208,-425.867933154216,-225.241001749262,-309.678891615774,-210.00414494084,-245.42125941105,-297.639870778623,-210.078712147103,-292.534414649584,-327.480763347667,-326.348343346851,-373.203691947899,-350.862245184532,-337.5641361592,-336.37321984407,-207.049795831531,0,-383.584896028332,-265.340371806889,-317.723075755714,-255.358062627504,-375.495075292698,-303.727530820406,-224.263781509127,-319.75138784602,-326.79744976732,-295.275814968018,-243.102690689613,-313.409983153028,-131.625408447259,-219.497674264972,-122.41122753582,-94.2964482468708,-262.31290433183,-44.3129431174994,-288.128391216989,-162.054159470557,-64.5731369842476,-15.380696424815,-243.806798564358,-44.4397228193517,-323.157246981743,-197.666988015604,-107.704577261574,-56.6457717141027,-248.895608222176,-79.1124732444423
-463.715976073654,-291.973298731179,-543.725175044905,-591.780301821022,-422.686809266482,-525.60642324122,-601.206270372004,-581.177242223765,-567.323595534042,-717.752346028058,-769.698476729616,-450.356950866164,-633.374970631088,-807.39153103408,-298.168835266677,-412.97069666644,-187.083570056653,-305.143921109989,-451.801189024403,-224.655990351991,-351.072929651554,-191.645863965828,-282.610235376409,-364.897700613939,-219.065056854606,-311.907582384025,-315.152114764168,-279.956047211696,-442.457582843493,-317.115962928959,-332.314043380614,-442.144714639062,-308.076316915425,0,-348.47798604502,-366.675927249553,-437.495431421071,-387.003967967221,-352.765459340685,-336.229672670846,-355.413985778022,-426.965865872844,-393.019537427143,-398.893190707465,-368.838060400301,-413.059114955198,-270.50447341921,-329.508519837489,-265.721427507311,-224.762185826932,-360.962068184688,-176.075201349734,-366.210127097718,-258.377995963849,-178.20425334437,-133.906573613625,-330.207740379638,-164.573630554679,-396.915568902374,-296.910240268612,-210.852118039153,-161.425233899453,-326.898505681033,-185.170373033755
-487.863021303714,-300.132830405692,-537.237017562825,-616.123046769569,-450.377041622152,-483.771416281694,-586.105390880597,-604.34618464042,-506.202862516987,-693.394607537374,-803.626309459864,-380.58247344333,-555.671863143237,-790.474855491614,-260.608563878304,-370.074525247424,-152.414846840977,-300.399729710907,-427.833641009436,-234.278260693561,-374.809024264547,-180.778735804174,-328.694773769308,-401.873579003455,-235.27357927711,-335.403830322014,-290.247409930715,-241.602735668427,-457.473816681936,-278.27942843188,-320.418756434153,-486.303660753314,-370.142493234839,0,-283.078619134017,-485.440188104072,-512.853732349416,-488.42536241793,-301.506188526609,-387.840974993598,-459.422869817443,-501.244910178062,-447.873382223875,-471.394904444252,-471.272486806969,-481.479594142466,-404.718400061744,-417.332341963631,-404.61288706509,-358.700304767747,-430.512649746501,-310.216542467375,-413.731230336464,-347.023777133541,-299.196607339737,-265.298153567134,-394.764338853122,-298.438334179395,-443.235888192966,-378.637312712246,-318.995477641422,-280.081914787748,-385.795545186352,-289.544200276007
-487.073200702247,-281.335913614575,-524.646614522944,-616.210907652173,-446.306944130596,-450.273298826184,-560.651419208976,-605.659141107718,-469.943658498903,-672.065557932796,-803.215948577004,-351.538409404964,-506.637900911064,-779.717084394271,-259.626786986301,-368.987874888434,-149.162355370312,-323.063121926619,-412.845413179053,-273.682903152218,-406.91558564464,-201.589016211338,-380.371343607533,-415.443469105973,-267.631566352403,-362.234984174779,-285.953732337571,-249.737535762113,-417.861428106133,-272.419670409078,-308.523441023755,-449.384156754486,-409.055255617473,0,-236.011744908271,-525.753908418444,-550.347095239552,-542.217136112457,-268.874322409404,-436.78925196301,-511.261149716748,-539.652116538901,-484.669640733919,-509.750847418132,-535.027961696243,-552.056840961493,-539.068311741348,-518.285356969284,-544.547357992185,-487.040057070303,-509.981137623877,-443.023789392394,-463.775028704472,-445.246526077026,-427.066543647853,-392.107695778015,-461.698892736473,-420.259938988535,-479.82618259368,-449.931348653882,-426.230751115009,-395.494487067813,-434.254244222257,-382.713625934863
-523.215511010552,-325.49044738197,-558.126993261826,-665.141816252006,-507.813328582082,-479.608943546138,-591.906556511698,-651.820311662208,-512.320484061331,-723.18504470246,-846.509542488153,-401.148535536862,-567.476200120534,-841.859178963421,-332.179646928209,-458.199796422326,-200.991300336591,-409.684488095729,-474.618621164205,-358.239224558341,-479.002390578651,-283.946354977304,-442.482874679819,-452.953191496393,-326.029109409141,-402.352328823627,-339.729388611632,-311.618744593389,-388.8317138764,-325.976781681966,-319.990178930553,-400.459969003097,-468.939055485503,0,-265.524566959742,-479.318349350365,-587.792922935666,-569.660781796915,-303.160112173635,-484.98160358233,-547.949185105852,-569.056117082113,-522.084054312188,-544.282943265936,-579.277161690314,-681.943057511391,-711.545692700466,-681.142075360057,-723.576854230199,-641.483766942049,-650.293911645921,-613.560982807639,-570.380740427906,-593.409810944038,-590.750664991394,-545.484949800374,-572.287477411989,-556.623754021237,-551.236303056402,-554.089043470499,-555.948800732854,-527.988059619396,-508.484074560148,-498.261177911755
-574.14647090144,-402.159067217347,-605.877652720171,-728.045557713626,-598.160106479387,-528.369922938639,-645.987896221781,-710.790569638781,-581.324189697841,-792.139972413822,-905.810042295674,-474.683047311947,-669.48434429662,-912.872682146917,-427.291961339542,-570.805428860726,-274.598464623839,-512.523622054879,-565.482443624606,-440.953368253993,-549.464749130902,-378.28155941144,-488.680802811966,-494.512643579589,-370.441339758437,-430.520373817428,-411.684384254397,-371.774439171189,-381.732708133145,-398.293797533921,-343.706495392771,-374.622726138688,-498.351142655639,0,-346.212000935407,-408.032920827765,-591.754437459242,-545.863530298138,-370.67863595166,-505.579675433769,-553.322297787408,-553.009141928808,-527.060761510173,-538.849401333611,-563.648953439915,-819.322527539518,-863.176134869431,-845.467352391949,-886.771669722798,-779.102355097809,-799.93843195782,-776.586389717832,-698.485942549805,-751.963554635025,-750.636797201802,-692.101528148889,-693.54450424187,-691.837891991275,-642.063383489844,-672.305620502875,-683.544241368655,-649.697380157827,-595.943497771122,-619.224689112925
-584.471320917887,-439.418252526445,-600.357035043769,-734.817558599738,-639.110014362477,-511.351675501229,-637.014984419958,-710.241082463641,-579.583573139073,-780.521068914094,-893.284770676155,-471.12042373705,-675.971357278408,-886.854919577103,-443.876572450475,-584.273072661273,-298.435369135118,-529.878167223256,-559.416531264714,-449.712078704254,-530.81042522057,-390.06106320422,-468.997998430971,-455.787333434389,-344.810651701802,-396.069239977278,-413.787566395759,-361.338822443915,-336.118567222912,-413.920503471776,-334.485821188418,-336.288236043002,-425.055208155529,0,-386.646597481915,-358.075737057307,-502.80673662476,-436.807985593782,-389.621849936009,-461.061010737114,-483.389317164153,-445.946865425795,-451.996151425366,-437.784415119087,-445.362778677464,-869.164087808114,-925.827920531222,-924.009158654962,-967.79669404746,-846.023212534208,-870.969448483441,-863.521251028725,-763.470191480215,-846.090912270407,-839.805772368895,-770.16244288209,-762.395136825335,-772.159309597479,-691.92501428349,-743.828966383469,-761.527386528483,-716.458789556846,-648.571264323036,-698.408688628987
-557.458371776694,-449.034129394618,-533.614916898399,-692.590881365974,-645.281706061767,-414.107979403359,-551.542323617568,-647.251637917271,-480.716536737347,-672.803392933425,-795.165367250895,-355.356891498619,-549.987224846533,-752.086753225138,-339.03595267194,-457.374299879382,-233.978854608561,-416.797643847237,-410.878477344845,-361.988038794285,-394.798477874495,-292.763772709045,-363.521548811005,-310.09773563762,-243.503665077145,-283.940843436511,-319.821509617956,-265.137903740925,-221.251960459169,-343.636781747873,-261.364767864921,-256.867064531004,-294.677434347629,0,-332.61787630616,-312.176013447847,-351.247383198328,-291.347123525882,-329.847448428087,-362.109880765136,-357.118919159077,-296.271567404659,-322.374887257275,-281.760763419784,-284.252952346042,-828.904278681561,-954.69365766671,-930.472791913825,-1010.1936185665,-892.193607304622,-861.966413875153,-909.04597497847,-744.258657779994,-876.548331573196,-878.557947546561,-812.135804695023,-771.42474945782,-809.30509878657,-680.445198464924,-761.330172812974,-801.031931000355,-757.248037112334,-653.331834816721,-745.772821602755
-507.35857495648,-454.909020564544,-429.831118754746,-628.316920760884,-647.180905173645,-277.563113054335,-431.051739787249,-556.689254172064,-324.74085696027,-515.24779507388,-661.758891349328,-180.765876540671,-364.307713886124,-570.651222023754,-162.918402585681,-258.913502179596,-102.661375556937,-224.68201196195,-204.483905007078,-208.97488452905,-203.139707818193,-143.276426984674,-207.41969016688,-129.605691881652,-107.573676296361,-133.229291219445,-186.460199546683,-126.366091828071,-75.2843674487232,-220.90546981594,-134.611884662388,-152.3341529753,-205.734756215539,0,-209.759640209048,-224.235451311411,-223.605430381402,-193.993825318037,-226.529451519367,-247.735621658023,-229.718811143408,-188.405681665167,-202.456157472746,-162.670695354198,-175.822621501196,-737.810445839658,-1016.68751314371,-900.536386983045,-1059.45974454269,-981.134443485069,-802.896115198285,-973.694880050241,-665.938899098843,-869.424217979416,-919.323984626549,-890.732174239042,-732.998755194992,-862.730718627972,-620.295720651529,-750.841878366092,-836.867264619494,-832.795455817328,-621.563922557349,-801.527073303344
-416.843925452315,-421.616838991283,-296.533340190297,-523.839705684485,-605.91031574558,-136.43548991715,-293.973046352946,-441.117033308864,-160.64846798466,-345.477703781612,-509.448193131975,-22.1066439305944,-197.762423073344,-387.509040297679,-4.69597850472489,-91.2027305877111,30.2053641418745,-56.4479925350522,-53.035137991934,-58.6485760985253,-53.5554870976987,-16.0577735556532,-75.2210606476353,-2.12819515514817,4.63645648084795,-15.9031004370509,-81.6112939194859,-16.7956561585643,38.8946212070361,-109.747561985448,-8.12417664166894,-56.2705953164266,-169.867203330105,0,-92.5500141864195,-101.936243629655,-152.881124206136,-154.525626602558,-133.457749827934,-148.080571952129,-132.100889498862,-133.704801617487,-117.768140912683,-107.331823256682,-127.748186506749,-587.877172460772,-1023.21043842113,-791.665032107654,-1031.08034182803,-1031.98281612534,-677.577539844137,-1002.47131083903,-539.286124333106,-798.10109825247,-927.815107744854,-972.688835078083,-640.347418806226,-923.958543854771,-517.659592773688,-708.377639523027,-857.862610788763,-935.796942133672,-554.390829113446,-862.333657434405
-281.144780605292,-326.710306359284,-146.358292419879,-366.396455846126,-484.093145442791,-11.4013202067024,-143.680438844936,-281.002038427596,-26.013577987667,-181.577619689118,-305.178409004075,75.0761297287519,-78.6352791154321,-208.057677982016,65.1129832270627,-17.8736339646629,84.4657560984102,3.67672114625777,0.640173396120396,2.49219334467634,-11.7527951819556,39.224890441199,-36.2829116307824,40.230251903858,43.683532097661,5.39895918024953,-32.6483854104555,5.33726616254021,75.531265216776,-61.8996033215488,49.0160689089366,4.6089240668957,-125.458140719327,0,-42.3449488040447,-14.1061866626832,-105.551564623724,-110.230753237566,-85.6555594538941,-85.3553221985287,-67.7742234315776,-87.3321174992774,-59.0862302171169,-78.5542640276526,-80.4820674306642,-369.592842856254,-833.171407978803,-563.742032208657,-817.289520539503,-898.697387431082,-474.703502179729,-878.064926108156,-369.536160154933,-632.228206152493,-817.616509589241,-936.112550898797,-490.385784287367,-898.076055427048,-379.765880044981,-606.108656501209,-808.175664382414,-970.788007410293,-448.932111813213,-865.706329403511
-128.990953282014,-202.576481689669,-13.7392011433168,-189.446299315885,-307.967721080033,71.2886287759818,-8.40740191480393,-83.2911703477627,51.3079452054225,-40.5172443720798,-44.3101050450318,89.3349602551992,-13.482429869236,-43.936098113412,13.2962200890009,-51.3841373234957,15.731520974646,-65.4389567114501,-32.9675311629729,-73.6915654029335,-82.0380148018633,-2.20267581693638,-112.440102401274,1.36899586390239,-11.5511816653083,-82.1620114007341,-46.2930726850578,-70.8504674055124,17.5523455308443,-92.0290555800967,-0.233199075200472,4.19851935543507,-61.0082971253847,0,-70.8420955916192,-14.4558535612453,-59.425271943563,-31.4096955323147,-92.7168819779032,-75.3318270126737,-35.0914989706699,-38.3040178875283,-25.870860150599,-54.619884630463,-20.5191994156495,-142.294769894787,-501.215508528159,-287.245759877725,-480.505312049154,-612.015418053073,-248.722866905416,-606.380656030683,-191.524009935517,-409.771368913109,-583.939892882672,-739.523901931476,-311.078745015937,-727.623158432348,-233.621539270701,-445.640440506749,-650.76589184908,-851.560581062244,-319.830459103455,-749.480527031065
1.60284137767735,-79.5639058430807,68.976486925934,-39.316344506323,-129.320890809189,85.4881574223393,70.2646867437865,93.4550458510352,55.051367861491,46.6846419016545,186.195804474762,21.6862713930469,-14.5593762141038,52.4063581467513,-133.271865064586,-161.587334189275,-141.552517552617,-217.446248989066,-138.254109256445,-243.072197395608,-220.033745146936,-130.623161299128,-262.193053563411,-107.41060532301,-147.579107887327,-232.776437109984,-130.311809654616,-204.751238164738,-114.688482373078,-181.489526701258,-131.33327980639,-69.2564635848126,-39.7480121712179,0,-151.112691794614,-90.7389506849772,-38.8856014698663,37.4980200546315,-147.376647642154,-114.969653478618,-33.8055087209993,-20.5232251018734,-27.1335650970332,-49.0588534655208,9.11926146244938,10.5507873712905,-223.878562432247,-79.0835685747102,-196.507719951689,-349.600180753174,-80.2090254553453,-327.911544191103,-58.2081408403314,-212.101090924109,-325.204677606805,-473.364981197054,-156.758768344864,-472.254889171336,-114.640319271488,-274.658821113102,-427.659241475578,-602.504853799132,-197.064320329211,-528.495566158114
97.329901338549,45.7050356317114,105.97261069075,68.3586429585432,20.2556539036235,53.6840063346785,90.0909193428258,185.047846115352,10.9834487016641,62.2641892833176,278.679700992201,-71.5169772736443,-58.545717514392,45.698022009803,-264.742763103334,-268.081629923323,-279.631682111087,-345.624596488412,-258.783826606287,-378.20691314077,-337.793959964705,-265.7716015994,-380.615229240229,-227.17838868302,-291.810991194067,-347.562178719986,-243.820048327269,-308.196648315523,-239.339573974437,-268.218169370885,-248.855897477614,-158.222800593438,-72.5572202393938,0,-219.991400744278,-164.399043595164,-44.8700315439535,68.935516550917,-204.275581706068,-156.35357830047,-39.7469959676251,-26.6550771212225,-40.8714144480758,-49.7438103252323,13.3313180600399,94.711795697317,-26.1327043786354,55.7218857616972,4.35248903616393,-127.786059761743,35.0759484999923,-92.128873691459,39.3797463325379,-50.4631976808607,-90.314060880198,-185.499625930731,-31.2943299994961,-189.019380276239,-8.28860176509228,-104.003104130669,-182.57569185767,-280.189675214532,-68.8647200015927,-243.795790329209
163.284511401541,150.283583124312,127.194777861689,133.214867305593,105.795695948565,38.8579173409337,88.1433517158594,180.904797633291,-16.7585763375865,35.8883294555597,226.711880403886,-106.311548016594,-82.4576018865509,-17.6447339149292,-270.564345151929,-284.479591565876,-297.658408276955,-347.942678667018,-297.181667257945,-374.393893691557,-344.317554017304,-300.793038323939,-368.222745969309,-262.260792308362,-339.306483107861,-338.826043692124,-290.206343920125,-298.664882556831,-259.265848950139,-272.681950358922,-252.355363254371,-169.374838604529,-77.3112797533949,0,-207.263126910986,-150.784582822737,-28.9669654634468,89.4400558246895,-195.26459649397,-129.250533205355,-10.8185614824455,-0.00546991936720076,-21.2711482586283,-13.3092870712023,45.1102115188878,184.603951970301,215.586412216261,198.46025872477,227.928065348325,178.295989079718,168.39157271111,177.739346811746,156.601098018306,132.223360165504,164.042271402282,159.832932103203,115.898357530441,130.854311428178,129.19302494821,103.755974261296,101.158984117405,95.5421785799915,101.315028066059,89.6067232582127
188.087734159108,171.325674111855,140.637536240619,141.587905121857,83.9170803996327,60.5067463826629,79.5259163457854,117.70362666803,-0.360239207391689,9.38535748524333,114.651491749038,-63.9546029739197,-64.2306208727937,-64.4459787414846,-161.073206711461,-205.213763380304,-195.298028669585,-229.137845946362,-227.021698047203,-253.128271841473,-236.209461002908,-216.963923902373,-236.90468652122,-191.316068417752,-260.42319518724,-222.708146076954,-220.2836807101,-186.811092088732,-171.44859158538,-180.508520932251,-146.946955576898,-91.5523244088024,-14.9655860974331,0,-110.286159134535,-48.1924261925471,27.1359210592014,102.438488295502,-105.337855659876,-19.9031320477665,55.8484647844184,63.8211238777072,43.3752128112309,61.3653187320139,103.034409989342,287.890735446756,466.603810676505,344.46833474087,453.092742366409,501.433143917483,303.219654701512,444.975555649175,265.113416896748,309.195288238371,404.907843319753,479.816712154175,257.792735235955,418.025859092562,256.836668935853,304.21419577809,372.913022833686,426.728572290021,261.713863448724,385.1238515888
171.341957980162,113.560373533677,138.714600848496,105.680600921647,-9.65384361477204,87.5845915262575,57.5546869626192,48.9885869551142,28.6212731529741,-6.43434116858771,25.354431866488,3.44493918761444,-40.4294366459206,-74.8304586017463,-29.1449610799121,-98.2835100738336,-48.9621902877656,-78.57212901363,-121.260387279786,-101.291505407714,-92.8891447985843,-80.0218200259145,-78.4781605687928,-82.896217948684,-120.527507552255,-77.0606156777339,-75.856097831538,-47.4462413989092,-54.8518899135644,-43.3766800194041,-17.7258771441742,9.24366250081565,59.08306219011,0,17.4565820711435,75.8183484566283,99.7263114427342,89.7748971316194,27.3901826289777,122.968777220947,123.149391390373,115.482606015553,125.875617011715,133.146812043534,147.017050029485,358.893344877748,594.379346665296,426.215724993316,567.687073962678,657.014676091025,365.010401529387,581.182050708415,295.75982630805,392.573764376366,528.164478231868,622.590935584384,312.938728291269,550.845505691138,297.269471117389,396.901017031382,512.326739568325,578.441787493468,323.763982038461,516.522148459081
161.176486244541,77.1343267388293,140.923462495595,89.2018224765167,-51.0768714186051,107.25495044525,44.7511810894637,22.6715520095838,46.2257478203013,-10.8350908778847,2.50376339343521,56.9856106048265,-33.3174226771523,-64.6568441775635,74.6121149454316,-16.4461127236292,81.2884661032998,39.9203770103314,-46.4456195274064,38.3134976762341,21.496986182402,56.2794688122881,54.0885710915268,12.0910508733426,13.6040871617584,60.0564089124621,77.816847797004,79.7869775616141,42.9519079513809,96.426424837916,88.7409818809587,91.5975292015611,100.720756742197,0,142.303548889811,169.746718237778,173.538823233896,74.920628763886,168.158316867754,247.550503383898,170.109542003243,141.879629963109,197.335109202532,180.516356858025,172.126983219918,405.941743444334,635.375872219207,462.507591799962,606.615881745226,682.555812377479,381.317166665792,615.678028701559,289.789848258802,409.165152121865,553.652445974628,634.599607877872,312.053200028448,565.785543983052,290.416618453015,404.004127458722,527.610140914248,590.392605092848,321.299220977188,511.947725795152
209.891126748395,132.523225750227,187.205416435403,146.649350748503,27.199899133696,144.259472146275,84.7390525067641,66.8422178247421,79.0131286253925,22.7872776640625,60.1397874555029,109.137630430009,-11.8203065770194,-27.6678157924461,158.337304795466,42.3739210313239,179.874405567205,119.402184164042,1.24289409658366,154.893693035527,98.7178112937079,171.676278458198,159.712895126685,98.5157116027796,120.978768159085,178.825143767255,202.594304163407,190.015328721232,127.867409815994,219.402791747279,178.479470690245,158.178433773671,129.648878840644,0,252.992966455917,223.624422428604,234.463705179934,96.5292349597275,288.049648633297,323.913322845128,208.875226111471,169.67873542265,248.094820367776,213.174079523576,198.34372928188,464.321040015225,700.450752305872,518.326121402277,672.249257816792,738.539809843612,428.820171565786,670.652771521369,336.270389104547,458.033764981888,590.145379206795,678.059554358654,357.258566892657,601.793905382942,339.519532846858,442.646439032554,544.867523839059,616.03306425677,361.446821350503,521.200486228924
319.589752297174,252.044466646239,294.26335870076,272.34820614606,169.434616447164,228.826649240434,194.477196424843,183.467493118476,168.627635318189,127.274918644508,186.103115084696,190.69618393162,71.210843264254,64.0463362616461,239.904234642449,112.241092128941,261.116324779185,186.089760362466,68.6548702095634,245.166977444216,167.74270199531,265.073103542632,247.038984580886,192.835495073017,212.480422331563,272.085236483474,298.492411092473,280.322297589305,214.552330725631,315.525740477432,261.424169968014,228.139796725897,187.502562795472,0,341.913725357293,263.913133902321,277.930663736585,165.565815746724,371.553367824723,361.863018416174,264.345390324697,222.658053809309,296.102033761741,253.896683954155,245.595101203521,528.265179837803,764.551712156623,584.833297853277,741.222881147435,818.555229646009,502.265039449022,739.595575463304,431.606432384075,540.296350164716,646.71024639262,759.762757743117,462.348570165989,675.300175525593,454.332272257251,539.583390795734,605.974968244605,693.48081389517,465.28734175349,599.894117143327
427.27626116413,355.845607252096,411.978888451192,401.398193297731,279.30984486627,336.539396976808,325.213573054511,313.713640897615,289.033364396613,264.397677318566,313.803218401178,287.441826596056,197.367717824278,186.002704854072,311.407797319014,201.416866016606,327.717644125682,258.071246126258,169.541398378549,314.189649488533,245.263438921954,339.620172097387,316.487552565157,282.646657645206,289.433825148764,342.741549961111,372.722764466764,346.422686892345,295.373397865822,381.081735196127,327.594394339595,304.359083546222,273.51562049626,0,399.048821331177,315.678648840601,316.370028778752,255.883972125235,420.147003455763,389.795618986042,328.68141305828,293.204844994089,343.691730962675,300.472189812436,301.583105841925,557.935844797632,736.84157137356,599.562634670506,727.902119341051,806.01806510888,545.533086369814,728.372431945066,504.639875932239,572.959575683717,639.910115476842,763.353236406816,549.041353136268,688.134860544126,549.566429296971,606.272411138665,630.848403260298,735.048639329935,552.96536393912,662.47114079688
447.282557536904,371.215732554702,449.680131458432,449.373748263384,296.507191619241,380.501298959429,383.249804165826,354.665297246208,344.52226643891,327.645306747599,342.555177538523,332.689882850006,273.104737550246,242.370327520498,337.178103094793,258.358426805945,344.132768917729,304.573929884109,240.743925552166,347.000686228369,294.618874813914,372.552150560312,347.247390101567,324.493924572837,316.136866072629,376.225503047476,396.723250473956,368.374251736648,331.993821939069,399.172587187436,345.962367540728,344.758407939933,325.336402623228,0,397.654410146227,345.021896044122,333.143084072403,306.677008058477,417.224834073933,390.668191890431,349.865567978813,332.268596339857,346.488536207067,309.803952805958,311.564330488692,520.410645723488,614.671575332446,542.524556314646,620.684485475833,675.377315721684,530.960675185979,618.887582996474,508.968169339821,523.964648009364,545.194768250702,653.137852695164,552.258905031293,601.469364422856,555.857416722052,579.965318302242,562.539521925665,676.604174417428,551.951325322391,626.166813787527
387.769274102878,300.496783154686,403.011771024847,407.739655069041,235.017308757852,341.056350961492,349.087054203971,296.807622674785,312.982149863329,291.532061623781,269.222428152904,314.875704394116,263.379084087374,201.149846085348,326.497264436253,257.093774027958,322.204188566471,308.054880149294,240.076421161035,348.597259783944,296.103747804548,366.143857197171,341.425401413653,314.972238602049,296.844145344587,370.336613616975,370.417935822533,351.49830366647,320.662867645029,377.995645312137,324.37754158469,334.430850880991,320.819793641357,0,351.61120997114,327.499449322089,319.950210028878,302.650744074281,371.786787756237,352.869439857734,325.13733781017,322.417412776476,304.90446795516,279.260942351066,275.831799990246,453.190191133266,496.2312059766,482.061592821858,508.905808496792,533.961342411562,494.48121458765,511.063998375888,474.805400998698,469.924629496029,462.390782697206,532.480745788358,508.253229198846,509.202374498969,507.810583119052,523.561130350046,480.111983817838,574.808661887881,495.727614621899,541.196414773822
340.412448522477,215.89664914208,361.297698166033,352.706369158259,160.613369275787,304.158724204674,301.381543667181,238.855216432158,276.861169729686,242.600553364053,198.21282748218,300.741861989081,233.506884352485,143.61217718504,338.491883021169,248.087458930197,334.182688022592,309.899396205889,217.806980966315,364.649599604764,290.352882145893,370.800908548701,339.722369889006,303.189412600558,293.877088989077,363.085462423107,356.823739281638,341.060532029148,310.526568144792,366.082384328776,316.538197993856,321.227474417387,314.480944221101,0,326.900979383721,309.548032023997,311.880794946752,297.401902265724,343.722746844804,324.651839082807,313.440096517839,309.045027368075,282.485240242877,259.348831466784,259.592879446916,426.727608362084,461.551989331656,481.94470623092,485.602378214636,491.677179904366,488.377673131841,502.504489021418,462.019011216202,487.916597555383,483.391688417946,508.557833216092,497.507921792609,513.271849624618,485.190063146385,526.50317840323,492.180086020816,535.544113579661,468.067379785645,518.31854981922
309.740583163553,154.865670296379,336.12827955387,313.697681003142,109.766136053462,290.507286927689,263.909819952252,202.4802216872,256.041478822026,205.708932127757,153.069824525884,297.616341915169,206.62019452579,103.069641916268,359.27988599506,245.245515992505,363.380708224437,313.068615291142,201.185138005888,378.595635640625,277.851140118443,373.124288844265,333.081712138065,283.009649068067,294.894319916474,345.260834626886,356.250152094416,325.683591105686,294.456858676729,355.660887092168,307.348609976634,300.377443525148,301.472074506305,0,314.302458353449,297.440814847304,294.173886593958,286.038484270448,328.79585038836,304.057415822355,298.898496908785,292.77709262802,264.868144689299,235.902500618316,247.838005895576,397.988221573992,452.242800096443,471.309444473626,498.383509232664,499.312904514271,469.429643011882,531.73637748603,435.186778123454,506.682404298253,525.403530721812,531.471806334979,483.319865943075,552.767860614856,458.06085733959,532.645125204526,535.82227078787,542.243886131401,445.326736328394,532.330015127906
220.818370609174,109.989011789481,247.252054711677,249.107281495384,90.9472793979116,223.555191084513,179.422093625837,109.0714313085,190.124791534308,121.267740033225,56.3523249035592,248.542052775703,146.443624098891,30.2169027590973,320.045317887155,203.820340078566,323.438069970206,270.679868496633,152.689569255688,328.533535904066,217.522133251075,310.851575801919,275.740031248681,208.592560399313,232.406782218307,268.94524723437,298.995435088578,251.131115288502,218.222506156848,290.36533322924,229.568365024026,217.581622249855,219.553007038496,0,237.384268437193,230.172146108432,215.252547109794,207.386295153089,255.430944972878,220.899768536085,211.172370705878,221.192631062608,177.370767161606,152.765428188654,166.282734955025,257.414444795228,339.319017282966,333.672034366948,396.076569045972,403.641224962562,337.481185305731,439.966747010699,297.44459489906,388.416334974777,430.11698041188,449.865866088759,353.824867707332,471.529341117812,326.8130284291,412.340386683288,450.481157604605,465.516713728794,327.296093068853,445.738505459934
85.903885453893,90.3330742415438,97.7821244077421,158.552870696135,118.418501694589,104.570220104988,58.6019871695738,-38.4128574634638,98.3403716470989,8.63832719344548,-87.2865262388619,173.810420761402,84.3244669122965,-58.7200305143144,249.413882002393,146.832254421255,244.90535764408,208.91768004178,91.3937258937946,253.183449034213,147.238992795195,223.87089554942,202.396598095179,123.448592091699,148.007171817888,176.706965344158,208.895529736738,150.765525649356,117.600284391722,200.268867576479,116.922649764024,111.20702558278,106.928223564265,0,118.332924618044,120.903361071747,117.283653576418,95.7537723567563,143.709310346177,94.4775325429543,88.3852951473699,118.05107664485,51.8808808481787,45.2584863789934,45.3631540169579,20.4319885419627,91.3037076508179,84.1579656524245,137.187775947208,155.118811623749,98.8853265204867,186.964065341671,63.9186525517715,136.747153990477,185.772375040435,212.859971052986,117.609486944323,236.974343170125,108.671510339304,172.758628830802,220.12682906605,253.546125938871,115.321073095067,227.043435778402
-32.3792439311923,58.3827683424895,-29.0170910504137,70.8663327591067,131.621585467393,14.8035798001325,-30.2097694094667,-155.671034083572,51.759051482768,-58.7311992107854,-198.49091736654,138.157661744648,71.6190831697671,-108.32160583597,223.485040758293,128.612299287486,222.687699713897,189.995449518361,68.4926392228755,234.637151407347,128.469302149624,195.843362482631,177.666291680726,94.4459082235531,129.130260808026,147.027583771417,176.179454265889,98.5320264836617,66.5401816856053,167.278438715292,54.7330578082108,60.1384272169466,49.8427870888202,0,49.8198052176169,50.2474888440001,75.0901871585791,34.1215313205971,84.5612852483345,19.5502797172119,19.3276005563965,54.6508576850256,-21.7255690458636,-17.0191843339617,-31.8670641851818,-210.958389929373,-217.765635170474,-182.123459500921,-182.641566475291,-164.945202505032,-149.521519334687,-129.617696791952,-160.086894342074,-131.042915567626,-104.590198904201,-98.1849579399788,-121.252940646814,-54.859934640177,-95.8185536102876,-75.6400338471156,-48.4542737552956,-25.4253265674107,-101.071786550073,-33.7005385251169
-158.040017757356,-98.3079032412332,-124.575442704191,-44.6332778166743,-3.86796088362721,-44.3612575952055,-100.47863101951,-240.5856164338,16.7756343062784,-108.768426296647,-279.713475045868,110.302570786954,48.8954566008861,-159.631281862912,200.348719225457,94.9742429592722,212.763841415686,167.255086934324,31.5959154648997,225.006888514271,103.494439943493,182.101293936941,156.628866147868,61.581766006703,129.907163470974,133.969823919227,178.551599661557,63.6955433620899,22.9266212299969,165.348220593656,12.0998342281472,23.0855333210517,8.70672647704219,0,19.7472204356957,9.53911771812702,43.6055148746762,-12.117816243107,65.1913011624304,-11.7738191189135,-22.7090082071201,6.69021652446228,-59.3804816431629,-60.7180550840789,-86.8608761055626,-396.364355041623,-498.445974995288,-416.205988615233,-467.487063769486,-465.727966835744,-359.863206866689,-420.987280787242,-338.32886778172,-355.712162887624,-381.644480515354,-395.350788377074,-321.789326037025,-332.165853787999,-265.170963329772,-288.511674878076,-300.035891852534,-301.182183941639,-286.737271685328,-282.070092089225
-307.92284528516,-376.141386168127,-212.617046661856,-194.057929568674,-276.758342154112,-111.793796466374,-188.631054436724,-333.947280760546,-60.5267189777562,-192.152887281768,-366.916284741083,38.4500118159229,-39.6017631856457,-255.59786235282,105.499237147223,-17.4252806620126,117.630310573677,66.6363962879739,-85.4271081366267,132.187385568378,-4.87790895310983,97.2519914919045,64.7021070007787,-49.3655897477476,60.9208639334358,50.6604878504638,132.462354644349,-18.5116940664584,-79.7235986660132,112.913157825475,-77.0179925617863,-73.5603041675873,-93.7698412389273,0,-42.0437626088985,-64.4655132027549,-48.9884083502329,-111.481404252807,14.6391691438993,-71.2734172694021,-96.82280381311,-86.4624242385677,-117.36529417175,-134.181103860213,-170.303429074873,-515.524106712741,-666.129767503594,-575.245110564563,-650.533726628945,-668.817061192685,-508.921161601249,-626.953569693047,-468.468183054869,-518.987234523056,-597.267866083065,-608.674951794792,-468.731834127611,-543.160662796317,-400.386413910896,-450.720979508891,-497.661940517236,-509.931647285058,-428.76243322427,-482.677777575949
-384.927896842809,-588.601422082902,-237.060972186521,-273.572028976915,-482.012888219547,-138.491455045177,-232.672401702585,-385.213354690464,-105.984653409511,-238.909283852091,-404.1333455277,-15.7679362466958,-105.739266672575,-310.889885370713,-1.22645086975037,-128.979663219404,-8.82439549157997,-54.0945026152684,-206.147609583384,5.64899460192097,-131.457844218219,-7.9840306441234,-49.001378198865,-162.759607371127,-39.8450630215018,-60.1097322376938,59.138576612017,-109.89937028651,-175.873437974628,32.1086366608264,-157.248535566148,-168.797834018506,-194.754646474105,0,-106.31873585678,-136.231425373745,-144.74409299045,-204.340448661872,-39.6320761827783,-128.477673749679,-151.663017538047,-181.07317369243,-160.665802521535,-198.664798349716,-235.477460909129,-529.900466261875,-688.444732568491,-609.491759740941,-691.053158885377,-719.131506323059,-542.571213145159,-694.789240588531,-495.625758860731,-569.537483231024,-672.787524212831,-676.571893004944,-499.678576225958,-615.301423587657,-431.768998914116,-496.857771216385,-562.465313853128,-578.857708575177,-465.570367114679,-557.460127729533
-325.659052893243,-615.67880919525,-155.296383224072,-211.64174788471,-494.481255941603,-72.5864868612683,-168.60988771109,-323.759868157101,-47.486799171751,-170.492325360408,-317.964701211066,15.6296146090095,-66.2105987079346,-238.482965719897,-27.2865018351719,-144.983831476348,-56.2784459363728,-98.5413952298633,-223.856825949761,-46.1528151665167,-172.595660389954,-36.1623601563799,-91.8428315748259,-176.987800923052,-88.4217571119034,-104.040052655545,31.135670160164,-140.612230790742,-175.343374610143,-4.99254714916401,-145.783770934583,-164.272376950538,-189.439125913707,0,-105.76461589632,-121.436928166894,-154.432100391053,-198.840202962785,-34.6101691136965,-104.203740542164,-116.067315202097,-195.556726329408,-132.455464412319,-197.40125116873,-220.767744590822,-463.060929258148,-623.979415102102,-549.234269754824,-626.662625216769,-648.668061697302,-465.507375567396,-644.32811943946,-410.269732665862,-505.196425427332,-614.646407396468,-618.970488952968,-411.746246806501,-556.6076859282,-341.677121948415,-417.597956114668,-493.945637076874,-523.530452860969,-387.419705489487,-499.458194384505
-194.228829280039,-531.360417271001,-19.3942381907237,-69.0873152765704,-391.894114435867,38.8783899426359,-36.1088262838529,-171.325948675924,55.1248446982221,-30.3677375996297,-129.1170633974,88.0820193135106,24.5169622885308,-80.1238546414898,8.45571870303268,-100.890129652589,-27.7724592923696,-74.6277618566328,-160.462897841418,-17.9974273911478,-136.262463445269,4.5818966881966,-65.1594054737392,-116.734392024936,-76.6480275579226,-75.9594530974719,55.8076047944353,-105.229233672218,-102.717657272895,9.20380446398315,-55.8167930799954,-80.3457003610141,-95.3822778738608,0,-48.1938278610655,-19.38756847924,-93.3265760790738,-108.364466408796,20.6131576963701,-3.08771962485306,-14.6747264140573,-127.4106448919,-44.3339619782329,-129.710767341045,-134.776827532369,-354.554397438723,-499.521634707638,-440.840743468332,-497.682636833831,-504.492770068078,-337.423970436514,-521.019813727131,-277.348152879935,-383.349534338432,-493.913076261362,-495.804107195181,-281.554273400104,-439.299999215256,-208.905426264909,-286.953750971683,-372.27694297882,-412.042703642736,-264.674955963786,-383.36152645183
-57.6166621936064,-432.609967593067,109.615639464527,72.9401504857899,-278.6951684038,132.646480125242,91.9398946642286,-1.72742405064634,125.920512988716,96.7141258251417,79.8394780984737,136.804407053294,87.5729860359737,70.2602856896912,53.0403694432649,-61.9140730548739,28.7300912964289,-30.9814805266608,-93.1732026366865,38.2874241851264,-78.7597883707485,62.2548162246467,-16.8490006790978,-52.0694933651305,-24.1452684807237,-14.6650374063372,112.030044617911,-16.6645407895183,-21.4902076187198,62.3042479030129,63.2686750778336,3.24056255970434,12.4317361936161,0,38.4765284061794,102.964372175875,-17.0223630920694,5.92004248550367,100.0953620455,119.254925430639,88.7622477268095,-20.3270402765194,66.4022332061679,-18.7322222556004,-5.52482528739654,-174.132376989684,-272.844771741698,-252.043722323359,-277.261301189131,-279.249362426277,-165.043747794372,-317.297431944803,-118.494909027279,-216.10108549171,-317.904604368086,-310.930048870473,-133.077840586,-271.265697588131,-69.0205114734348,-139.722504641121,-217.73461478186,-245.640666947825,-129.389488663305,-228.37503150555
