-31.9709291224085,22.5463921929004,-90.5480509611979,-38.6406014109836,-32.5509006257629,-135.713331784918,-127.666227175876,-99.7550985769482,-142.093018321816,-149.705144303342,-103.742402662509,-155.794845088562,-204.29496205657,-170.729111299937,-94.2453692950819,-138.323203550012,0,-99.2476235115132,-132.740977830227,-65.5367798790415,-100.407566518222,-43.0628841240605,-81.6309890971248,-100.407566518222,-48.0651383404918,-85.1833145551702,-41.1779767381589,-74.0188631155989,-82.7184356659142,-62.926908113947,-78.1511600769987,-84.4583501759772,-82.7184356659142,0,-60.8245114142875,-77.5711885736443,-75.1063096843883,-65.6817727548801,-56.9097037666456,-68.2916445199747,-69.3790910887641,-67.131701513266,-56.1122429495334,-55.2422856945018,-45.3102736995586,42.6279054965447,70.6115305333921,77.0637135082093,85.1833145551702,46.9776917717024,46.4702167062673,72.3514450434552,33.6383471945523,47.9926419025725,90.2580652095207,84.0233715484615,16.529187845599,90.0405758957628,-17.4716415385498,8.91706186407313,46.1077345166708,65.391787003203,-39.9455372935309,36.6831975871626
-164.895681042217,98.5725298113886,-447.120077699075,-201.110399486832,-166.922668215694,-664.908133883338,-630.277131548094,-501.536781409759,-700.399344492891,-748.843103067959,-533.868289349431,-763.529292538807,-1002.43331011903,-873.757610810223,-458.211585872526,-680.336766262961,0,-484.339550465637,-662.983783746349,-310.898029013734,-497.67306886626,-196.720276804184,-394.151846202645,-501.297890762224,-227.777999175807,-414.632371358711,-191.981227657327,-357.669999884262,-411.201171182665,-302.139068922686,-382.787383978898,-420.689465285301,-418.523311412514,0,-296.658023695255,-383.877743635951,-377.764175256892,-338.989670435394,-275.61747182548,-336.65667552479,-348.051278347105,-344.129634807005,-282.852997004292,-285.104756212186,-242.689854337475,199.441078042355,338.602426995557,367.405477071022,413.037449724486,219.935721811538,215.352871065374,352.947982438786,150.986113942435,227.144019480047,438.059479503295,403.981221161102,70.8184932695548,438.259937115672,-94.0669919637399,36.1490578991535,224.289877719091,327.464193350358,-201.357582570957,177.178282536875
-378.840280492346,143.517592277789,-933.196582337553,-463.090129659026,-380.460532025013,-1363.96998373041,-1311.15019846281,-1077.02541180004,-1455.12912122503,-1589.98229640565,-1188.76526281129,-1568.11561082447,-2064.1342509063,-1915.38088231353,-926.149328274611,-1404.7771624397,0,-981.353702834859,-1399.42512332901,-598.426260967786,-1031.81527401135,-351.253618049372,-780.026192516495,-1049.23246052929,-436.736742409643,-830.784120924783,-356.300195448124,-708.094215332819,-851.629089852943,-591.658907565535,-774.668588208769,-874.10748858126,-891.374732421827,0,-596.17482707082,-789.652487219684,-797.987169530505,-745.072140304206,-548.274719529606,-689.928876207981,-737.310117670997,-749.865493488511,-605.121908016187,-632.769094632765,-570.5481411124,363.76426448239,655.425974148609,708.802658448668,821.766325396555,411.068465547321,393.448308770442,715.306261838553,257.340562019916,436.585963983302,880.030075164704,801.024933850509,111.539659417228,882.956388413454,-221.244730096306,52.4848206728842,451.51883762118,693.549183609666,-430.590701234499,348.46002488904
-572.321916352318,-17.9253348602078,-1151.05970932157,-687.66627944022,-581.879987426008,-1612.14425447621,-1591.95193939045,-1387.74104361676,-1768.35225822784,-1991.14181150218,-1617.50461005137,-1862.85209595926,-2465.16335215843,-2491.93945547061,-1073.4461727774,-1687.67510654656,0,-1127.05302081298,-1722.3165394235,-625.575623639234,-1220.66401357613,-313.996774958193,-846.158624465677,-1249.38925723566,-448.985641333158,-914.250821900326,-342.733768652421,-763.925591252477,-988.163446539739,-625.932206236863,-866.675625863657,-1019.70813081511,-1080.99462119745,0,-663.060019144235,-909.454179774983,-961.366947238528,-955.377853188282,-602.1181986085,-796.570072801074,-905.01102334322,-952.463650243552,-763.577638847709,-843.581838658981,-826.811078210666,269.826015926501,616.575214236592,677.616866742756,846.387105522412,359.017389903175,315.918084719994,781.237749529187,159.278520336546,412.145513934214,948.964836401862,853.237391205967,37.3257323915556,955.316255831097,-338.714265259542,-6.08900696126774,463.304350652237,807.052090708777,-562.109643930617,320.641006700179
-759.916887405532,-396.481095433099,-1147.16765038576,-880.460061440481,-831.682456777378,-1475.90094400695,-1518.62538092511,-1449.26583038512,-1699.78238668223,-1961.96324048868,-1792.57386621526,-1731.32741708731,-2307.93739793896,-2497.87652308195,-989.919112899562,-1604.37776907084,0,-989.494140155324,-1628.92766855101,-487.302406664612,-1079.14930512212,-201.422350126752,-657.394293229778,-1084.99543938941,-329.034674822946,-704.42724074111,-231.406547520207,-578.847597253959,-815.629189246688,-461.346594088177,-685.672668968544,-847.908236980751,-941.75881134385,0,-535.062849854675,-755.870722802962,-848.765764651517,-910.649392827899,-485.657818391791,-681.785467894668,-839.275474984552,-906.898756503432,-758.341069724595,-887.291561771871,-942.378931638732,-137.426253022827,143.820857626306,211.693491130713,395.774611101325,22.4984507908834,-55.537227718596,473.016165668623,-146.850126412824,83.3953130780193,572.054989376135,527.723325969183,-190.065602601065,585.610514808202,-483.41186879629,-212.636697682242,140.419945696335,517.387847701491,-659.021743476025,-15.8249074069515
-975.851860793806,-787.731015096275,-1237.86719189519,-1106.91817856803,-1198.29501038276,-1468.83086811696,-1560.11113361368,-1601.95845747982,-1758.16453268913,-2034.72572221158,-2045.99693479784,-1751.52536282959,-2347.91430324629,-2507.58804038121,-1045.94335658588,-1652.14316418008,0,-961.326298447954,-1579.8965215967,-468.911026873007,-983.026373883232,-231.595623958925,-556.817294667684,-934.567195211171,-286.313958546213,-561.750301563608,-220.40688864694,-480.733938405434,-675.35130456888,-380.90035260956,-567.76449559451,-708.49651817234,-799.549876401782,0,-473.845442592883,-657.940576062777,-757.906691538137,-839.726021318607,-446.192222449186,-629.987341097678,-793.222069707254,-857.396710548274,-783.914283699529,-936.876998535098,-1011.73764612487,-641.187002708139,-467.978050559112,-369.540833866744,-201.698990229097,-420.985656285165,-512.021538613411,41.6992182211516,-484.471089223668,-391.721877453033,75.6046274339462,135.681970696303,-517.671643419603,112.50850240435,-722.924484836161,-582.603388078876,-398.23242464574,23.9873631552789,-895.557777554463,-530.429471639934
-1092.40332373416,-1009.82133172317,-1315.46778562606,-1247.23181965139,-1512.68214265024,-1486.1050949794,-1626.34436970606,-1772.4969985327,-1792.82948997593,-2127.09529079892,-2324.89470324967,-1760.02350278137,-2390.18457828585,-2539.18407332245,-1097.95365623049,-1642.94607028385,0,-928.032645604235,-1481.22093745537,-473.669384974989,-866.609809236943,-304.318824016972,-478.051833337925,-777.758637372626,-260.443632860499,-460.136194998596,-243.187877800223,-436.266685329584,-574.224771017488,-351.135738541622,-502.17243386324,-619.157501120942,-697.500017919957,0,-442.294203128777,-608.88472355201,-696.255606502703,-761.745507993832,-436.849663401502,-608.283534796961,-749.495941277569,-813.772673355629,-788.994285336148,-953.429933509917,-1011.70293604178,-993.075179993219,-985.95494311064,-817.857292405632,-699.719334850951,-830.660348089459,-842.151214582297,-336.408377716143,-701.381306893838,-817.25315530821,-338.338901155009,-179.024723478773,-804.699434171668,-269.532598393238,-942.054177126191,-952.167832458072,-921.734215241682,-421.103288087025,-1148.65409953618,-983.285490085926
-1024.73132237313,-1073.37429239119,-1136.46654662341,-1192.60809451866,-1631.63445953433,-1176.48304838363,-1390.84108362343,-1723.35541168313,-1401.53365936642,-1854.65103813991,-2388.32814951048,-1317.26033953935,-1856.60713307439,-2235.98242816353,-849.243902848916,-1172.69651097693,0,-615.51135621199,-1014.08929665799,-319.139718341371,-507.246775599063,-263.395643631117,-236.924476521178,-413.007986797724,-132.136211755289,-215.64479001578,-169.704815582917,-264.029033155252,-337.432156583671,-215.296774758502,-311.187973141231,-401.702573953055,-482.634529046141,0,-288.486529232204,-425.054460315734,-504.384564043005,-561.495994817523,-306.323233343842,-443.157639136545,-558.072449848958,-631.27748013011,-626.013350063497,-796.325290582625,-863.957720457766,-1082.02293459289,-1345.04211654492,-1071.59862336494,-1046.72852819323,-1153.34074204763,-967.819543703082,-638.190340345526,-757.723533748698,-1064.08921321149,-643.347252541003,-460.811882740084,-937.566685091969,-576.125781043829,-996.627009388183,-1126.77989057705,-1217.06590159647,-757.731888033852,-1209.4325677915,-1230.63906509592
-854.697294879725,-1064.98182556198,-785.10769277887,-1012.16834175887,-1613.47780620765,-652.627438616997,-929.682308387076,-1492.06478218407,-719.911279425947,-1280.86554735507,-2234.81271747124,-576.633037430294,-902.544964853321,-1627.41039407808,-425.012133176203,-447.042720244256,0,-184.166538696428,-359.222664580408,-107.658627469229,-67.6812244084762,-166.151968162691,26.1974877218584,20.8955839696036,21.5837971249427,67.3677076259461,-50.9412190008113,-41.8291310204036,-45.952315165384,-33.0903549214664,-65.7315934725101,-120.288634564865,-210.294113649506,0,-82.5554095179939,-167.176841630779,-243.802324744337,-303.654618223464,-119.175538891508,-201.540421170134,-283.854070490369,-358.113792997048,-356.417283326425,-518.970036026764,-620.281619750227,-1026.56954981464,-1570.46411576412,-1235.28017462541,-1317.09386926419,-1414.22478362464,-1019.29548174279,-962.211290263738,-769.149638170084,-1191.3312216292,-935.86600987952,-850.471764537497,-1001.63586982009,-944.360430818842,-970.689179331421,-1178.23340525482,-1323.41944821528,-1181.21325952336,-1157.58174724938,-1368.17455233407
-614.289383780833,-932.2142145702,-403.062048489699,-736.036684226309,-1440.21373547035,-153.359716175974,-433.619408713096,-1120.67091452342,-66.1484778605721,-639.615502197895,-1844.75102614496,116.516396304246,13.9438627295362,-901.422679061006,-50.9758085265542,127.427524443087,0,120.797301124221,132.725016810374,54.6549260941084,228.122122777569,-62.370086285121,164.19522048409,320.608531303994,135.118414950495,247.79064613895,59.3570526269984,115.471858393362,160.444977673849,109.138520650578,116.393437224207,91.3989645095872,0.844594830017208,0,81.7902334639515,41.5814208497968,-33.6783452639464,-96.384505135892,37.359589731624,2.65387050660204,-44.275621384981,-116.462033338022,-94.6554730206945,-239.424264989577,-364.490036356625,-988.634101775001,-1671.97083301652,-1401.17365460783,-1565.08568197633,-1616.6301592326,-1137.10556479789,-1406.61725600306,-879.914665558368,-1318.86217330314,-1356.71917833457,-1455.15745982058,-1127.72276121187,-1506.18632520982,-1015.5816455946,-1274.99489770209,-1452.23097903601,-1801.58679788772,-1142.63160144965,-1521.76619540947
-253.865900934667,-590.17690785538,32.926713858225,-314.057491676091,-1017.94679076245,333.605539804247,95.0366736754084,-547.170066466618,525.889069503134,29.057660856311,-1121.66661738927,727.910778847829,767.217635807508,-74.7234081917669,273.211785377186,506.250528771122,0,336.250063694596,445.049226725961,210.65352775728,427.039506984157,80.148884459837,259.914671617618,521.358057963819,249.460188689307,375.794595866007,188.13798756336,251.996305289351,317.34951859077,245.174859684022,271.264976292566,260.076746991788,176.046752500209,0,242.650932852449,226.023585176619,151.903026521901,85.9337747537054,198.977040652427,200.713610708155,177.85861867008,97.925068020949,161.618370880431,37.577104067859,-99.7748907322906,-907.486650792073,-1567.90471509898,-1420.96670720507,-1654.79853197142,-1623.34875203517,-1205.82391303359,-1802.39843857833,-1031.05922350676,-1358.31477323679,-1762.89714651801,-2037.65273717119,-1224.10759001859,-2037.64632482214,-1069.9836868196,-1303.95519598871,-1529.66617037803,-2263.60614608232,-1069.16384188276,-1545.81921477032
121.506848609741,-204.820210225524,463.7955901442,130.840272012382,-515.46091654692,801.803009064867,601.292495212339,64.7751763852279,1063.22293432113,664.502372555717,-273.462618172593,1267.21959098256,1369.29065983825,758.015222970768,570.586186872773,829.274269682825,0,551.193171521845,735.064997304073,349.42279518033,618.898796601622,214.163903137488,379.357012564237,686.748934416196,351.038175563433,492.279726422017,303.529615169358,385.553311109524,462.569075880611,372.733445028562,414.362536870754,419.214127568484,347.493966221453,0,396.389020232589,399.20699893772,338.243841186294,276.135714097814,357.755889188736,395.815255636701,386.585038296039,307.679069815246,400.66760631214,309.200205912465,167.791424530593,-684.945701791822,-1249.01139703367,-1159.14796246416,-1459.87257150577,-1320.69928371524,-1059.20096826046,-1821.63540373824,-1036.13979040124,-1173.07688006009,-1787.97718994597,-2149.30854314211,-1120.87430162925,-2087.42515882111,-969.221830852518,-1053.66125828302,-1282.52308684926,-2187.73538402509,-803.684129783722,-1288.91675224131
277.212643249076,-78.852931628961,683.904884330069,340.015071990919,-267.574651055623,1073.88878121746,896.395954065661,403.899934150565,1395.50275847362,1095.66859412393,316.11563756772,1575.08416091571,1741.85040457952,1369.33488737489,774.971847118549,1123.83174660007,0,733.675645466201,1020.67906533435,414.109997884209,763.718385299124,264.683965045957,463.728401619005,771.680048739035,379.48519248115,539.278574909754,332.72102248721,441.247084309184,527.940098180327,414.369470064458,466.47547956506,494.241948921516,447.331458461177,0,447.903395783553,473.857364468655,444.106940296873,400.48984987639,416.514444962481,480.394008833769,484.060969051732,437.00497283134,512.084592788976,470.723650355488,355.185356762707,-426.417756684434,-886.556565278038,-786.488840546961,-1095.25080695395,-815.727219194389,-777.439940868768,-1408.81021030683,-853.889535148764,-871.470685527691,-1398.48662750244,-1741.12323850767,-857.917382842732,-1671.63920105759,-723.88580357954,-650.554670448194,-846.558939837117,-1855.50588321124,-477.632142142784,-1025.42377051558
239.475270980029,-182.550241485191,719.506195481899,345.558451122576,-244.122370898985,1159.68112751898,1023.47687476915,545.220741664128,1538.00189528273,1382.22776574972,714.398605474936,1645.1226353903,1958.28058723095,1832.80339503167,895.201909327852,1385.65839340638,0,873.168801719407,1263.71159531554,454.581941753442,858.241594236865,277.350992212762,515.43970716892,816.287919450423,379.677947468715,550.005221260714,314.89877319593,445.471372569141,538.279308561011,390.985894057321,452.747920850141,498.878870029968,487.390560899003,0,412.725767533024,463.447874713201,470.039288938086,452.704963282916,380.004969617714,452.368973249036,482.124278460581,482.310820840428,486.1764905076,500.413154925132,457.857177202961,-176.147176292951,-579.071369458018,-453.421486467718,-694.385113338816,-290.247278719425,-463.830625404022,-825.952361951591,-529.603848351822,-585.398132914225,-944.527890438746,-1236.86576311946,-533.77150261584,-1295.65480508001,-407.614608264706,-347.066161948202,-636.815442524893,-1762.90256347632,-237.85370404585,-1082.37230657112
376.673953231648,-89.8929710701669,918.105240582483,538.136999900142,3.11017470295124,1359.97788385483,1314.28476651711,930.723496712044,1776.92600035962,1839.04338291939,1402.04287624697,1744.28565664445,2293.28240511344,2511.67313467042,1020.37783071357,1677.38871482433,0,1017.58211919694,1545.48199944839,536.527013038337,1006.02135478817,341.319195592079,625.230699468223,991.745056095892,455.470863847373,665.757575953603,368.137932937783,545.657712141915,673.717227063003,443.781416535533,545.467849066061,624.913909917134,659.291605308221,0,459.306910873503,553.573713637262,603.457353013533,626.811626781528,400.031962506427,496.723156578997,583.508934870938,636.173014792041,521.893481477075,596.032580010828,662.687881743401,295.98063200031,-167.450913419706,18.5003138769567,-198.006943660452,219.685450940648,33.0549238842861,-306.196781064727,17.8775776680366,-169.525285540631,-594.229393442364,-873.053591121826,-41.5309533654636,-1126.64637278933,92.560052606228,-33.8724315107986,-602.955228999551,-1713.37858433975,97.1382347474885,-1201.03212594079
909.351388682837,466.59636506104,1446.40670268172,1117.76984304981,704.949097231595,1797.76438239505,1875.26075151415,1675.0406795298,2209.14786654475,2517.98138969516,2465.56816668574,1998.34034459516,2783.29148222531,3404.80523521825,1149.43599488946,1973.38190612443,0,1137.34479358743,1901.78955847937,593.56550645601,1206.82661633924,422.966305264714,774.142249657779,1307.90930231114,566.864958199455,870.057931360441,479.994058601794,740.323162036369,959.096297716631,588.516015924343,767.364086829731,920.660923734982,1023.62798066539,0,625.907401725117,791.776466039417,907.715858426501,1007.82882746915,521.249179265611,679.691679468309,847.425408864145,977.810560518341,714.581524349902,864.564411868365,1046.01119608449,1120.8307656271,539.903093475197,802.218002626611,476.770513138714,791.963103545601,863.565018490925,153.142974540559,846.945040700373,569.464536280347,-149.810730728855,-409.293911852132,752.363238843814,-727.43812297896,893.918662594678,597.079387707363,-227.347668911176,-1103.59949355363,776.861674463766,-791.551243793284
1641.65063770422,1284.10385050189,2055.92612072147,1827.2568712334,1581.64113027984,2225.69264902935,2403.37836885991,2390.50621751971,2562.1645796408,3054.98646858041,3400.84293041334,2212.63574705588,3093.18631191022,4008.36134839383,1195.43940511932,2093.33148884262,0,1133.044806753,2132.01821811824,530.3297842504,1286.76349992617,409.277344498588,814.252759583235,1501.68693374278,544.969861022821,938.351202076537,487.874004465916,812.841997537162,1132.09304555899,633.19381524464,876.63214426247,1117.10637544594,1304.53626184965,0,701.571648090094,933.143014527102,1123.3706329417,1321.41183143743,567.374309369132,784.500683728397,1015.81171275561,1237.52682237905,842.53378460069,1065.41100732445,1336.02695482979,2004.36644324064,1466.22498604763,1724.49962232616,1271.57727309218,1483.24609115733,1870.0743024116,724.116505092378,1785.5145111768,1571.33338557067,597.568560931046,420.180841535695,1750.92795577903,266.07670409982,1857.42895366856,1597.51548381174,782.2823706804,180.023623559196,1736.30805766266,347.711763230605
2252.89805928904,1995.18123057399,2456.16690895939,2342.10842407468,2280.87844792677,2410.23847750942,2636.33212508319,2776.7390462821,2621.27321989341,3173.67673982654,3841.95484374128,2216.35005437134,3010.04534467908,3987.64390814241,1139.77461614693,1946.89960672041,0,1000.00000603305,2039.99308916256,381.543400778356,1160.71434625371,282.328552478438,692.23103918838,1379.45846720848,342.281866154105,759.137925384596,318.900522817519,650.503379430022,1013.85020423542,467.623831442716,725.52225523205,1015.21340164828,1270.01840684061,0,547.642452119618,808.287412400972,1048.6208707784,1312.98906368582,423.419550569746,654.106539325207,905.047740943442,1178.1769408862,722.640339728635,976.887047150686,1295.36541230334,2527.36915203036,2247.63397865774,2441.63065853732,1991.53770331833,2214.35910753386,2712.02119147107,1484.50025012859,2550.45993935257,2573.44543276528,1592.56213556679,1511.0267671637,2684.06549478308,1622.96002328683,2687.3260494413,2690.11971375929,2140.55614751006,1685.90421314619,2661.63644544819,1823.63675494087
2553.6602447142,2363.09780583654,2570.79550703634,2557.73627856825,2688.65460163347,2363.87805246345,2613.44418679261,2880.86062464405,2480.10796827997,2989.69998228566,3903.98132810267,2068.03536367359,2738.6922086913,3558.36242464586,1055.73386104042,1713.4991334024,0,862.375703084719,1756.35088556119,267.104010670736,974.337262196296,147.988981748901,535.500042298248,1082.78092347855,123.05588128681,506.462349781004,109.501004820218,424.986689718222,771.133015756378,251.738233040735,500.194900687043,793.438347120041,1079.38686937855,0,331.22816466024,601.505820477346,859.969378536387,1135.24661610058,240.107406547427,459.713551526185,709.710002958866,972.124866417815,534.073885677134,780.17175192099,1106.59556273719,2548.88772432406,2598.62720031819,2735.40610934627,2430.32464445929,2800.12307845796,3106.59323582545,2251.70956630164,2904.52938774615,3255.02458705041,2539.92829638483,2500.59483719495,3248.10581013038,2776.63539329072,3116.86286298105,3456.52531730801,3251.49209343872,2902.69831577305,3222.20664692386,3007.26366517939
2430.8806739785,2251.69898358871,2381.63174188091,2422.48925772387,2747.9456713802,2147.59178119326,2408.36730297277,2746.84432865277,2258.09479592121,2690.56178670192,3720.69345588075,1862.59881220336,2516.36596635086,3062.59123386882,1003.56299821588,1608.46493277839,0,819.367682357442,1554.40733410278,262.553351616488,879.619210344327,110.872956677097,472.488717533362,856.797880161134,59.7054003736978,391.925052270654,28.2331588107526,340.27899257378,635.420366290858,183.749174994396,424.444549364741,700.466147484504,981.562026268303,0,267.763267272677,545.041262125904,794.178950480079,1043.93378388176,201.875395761474,418.472393869837,671.151536510341,886.800605295018,511.497440769772,744.026647760302,1041.81393170517,2109.77659737813,2592.26797388368,2498.39674220393,2491.89279192296,3103.16079960651,2860.44518160957,2704.79010661336,2658.92761408633,3286.22423104465,3011.11943465888,3038.87824135002,3159.57712699647,3286.07051703474,2954.61650035185,3513.1763717956,3619.30836933494,3479.04647138002,3171.03711021238,3447.0231185041
1789.79413814964,1601.76449357798,1807.40910211313,1827.13738294661,2368.68246640977,1709.92375447232,1926.8124338199,2275.25755732859,1858.85842511777,2220.16104540382,3209.32851075102,1575.31857599948,2216.68907264571,2519.74556759223,977.204854296001,1555.40503620573,0,836.677267478761,1438.47772858552,358.304829787776,835.993209291954,183.108237156199,481.227646993385,722.56896338524,144.080378851617,408.053434125135,83.6030271338663,374.640583430676,590.644870389454,245.932792145403,459.038664989446,696.093160059651,929.362780707261,0,324.436062558221,582.675576920041,788.369203861938,985.604537714372,274.318376038018,477.510874815396,711.753945930898,867.058802290179,579.334258800942,797.09060101614,1025.18712173887,1207.44260543671,2272.20585707399,1625.28907225868,2053.16057583402,2915.77243170107,1887.07411101551,2468.10086119838,1758.16128725806,2436.75925215039,2566.09859352477,2818.7538053436,2279.33313615409,2879.28513209356,2150.20036526481,2672.33625478049,3010.91420494687,3131.62266573058,2412.89845677439,2957.69398781009
733.450569798671,612.253219512869,882.923750987458,863.244442071113,1682.54451359143,1028.43969298407,1142.45720606361,1543.23112487196,1185.43114812635,1500.06214928616,2425.10672499876,1160.14078299799,1608.67183576189,1799.45461605827,914.816200553477,1294.47292821592,0,785.806225379574,1179.08859791168,456.662305310381,701.581268785017,278.696219055253,438.493612444628,528.283496228203,226.959645624543,395.634416876949,153.553268491924,371.209822949405,482.910510418879,288.473541644727,439.65973804803,597.540547141251,739.860205046186,0,337.877211859732,534.844216842394,661.640927952351,769.97461952367,315.488381944299,468.203516116513,631.816884061996,715.267299555071,548.382306836845,725.622344806272,844.926837302909,-7.09241525975159,1458.34004681088,264.631598277824,1039.48498997676,2008.49167711279,449.859079871893,1377.8445483743,492.297745776315,901.09138260878,1192.23956790186,1726.09811026156,861.254509293894,1556.72331724062,949.661694527415,1163.45570475517,1595.98628374259,1846.35089336565,1158.90740906057,1678.11478501368
-334.074653678297,-258.452634772859,-107.106384171195,-60.7506289965439,1065.99043536771,240.656091754144,297.909104163553,876.817476461174,392.757058878596,724.041762828638,1651.66590929892,646.149163299963,811.732569151859,979.066854119563,730.899436057347,777.109909466379,0,556.37972205066,686.599327028432,400.216099793426,396.776572354228,257.41360287604,241.023798826509,182.861819941612,162.518546469494,228.709585075806,118.447795863686,234.196784348032,241.461910520405,213.855184063865,291.429559463272,349.448773025312,389.4828098065,0,237.811721691772,356.171133873361,389.471430639391,387.223830968747,260.199989642991,346.621366613237,411.900345303064,414.625664989601,407.725811252472,515.491752594054,510.181674500997,-1023.28797459366,405.195202199773,-957.477901785333,-100.29935406664,746.939403861736,-798.359488701914,14.1818618009336,-584.538357362144,-598.283015940508,-341.496197079024,295.963598214096,-477.682046315453,-25.0711944075326,-171.107422024691,-368.908816351219,57.5383703296249,270.565753635794,-91.9644331298535,213.53061647286
-990.114631728629,-661.951112687048,-813.598023263551,-573.873924543329,761.693227335736,-436.687813442067,-296.031446561407,503.600198991695,-245.949544093594,202.603509065934,1071.29354457775,125.73966463501,197.26702376343,340.621478198346,434.796998404122,256.79549908593,0,200.035639087544,149.415068497301,157.390257700686,-16.1981815482785,78.3656201676586,-81.2836569610917,-244.634676392514,-52.8094444863563,-73.2059743512329,-31.1938924005159,-1.42664250559367,-66.3938799360435,42.672751928656,61.4272763686393,51.1586290695382,23.7180089375895,0,74.1237769087175,131.153634219453,93.3492557276412,8.76807193626167,142.754369570954,185.627993062069,184.200875667536,114.707274189854,272.790796342385,312.360407286523,207.407451312693,-1336.46432143931,-162.252992937722,-1428.28687532703,-642.625251636984,-25.4185330903667,-1344.58828992897,-696.033704039237,-1103.71407173739,-1389.31003351046,-1144.35877755432,-565.644369352651,-1236.49096972808,-932.949043328888,-857.942716562264,-1320.25909117638,-862.034191602429,-700.695841255697,-891.574815679977,-722.603138376545
-1065.09721043226,-567.991919087336,-1018.36167638885,-601.353654958729,741.43064432516,-772.732442006578,-484.770407844963,425.762147537744,-552.556395755234,65.5790739010534,716.128669318137,-228.690513845932,-41.3887133627146,112.272622010827,208.471528739746,-23.9546188433983,0,-66.1185988903338,-186.85016731772,-61.6082863900719,-355.243493673712,-89.2227320617551,-347.717063478031,-575.585837664416,-253.997831604239,-340.174201777591,-168.713910648578,-196.414085654253,-285.614733339703,-101.076454220653,-113.582037942394,-135.780721142298,-169.897523771707,0,-38.6281746621041,-6.36492092956421,-61.5643199255878,-162.416246317644,66.6837383470767,101.973038789081,90.1698756482754,-12.6110288769491,255.204676294715,263.573157788646,117.720697042609,-924.004969761525,-20.0176732150362,-1132.92047479362,-470.638865701897,-33.5637638335625,-1188.43944977372,-597.07726655383,-1059.52871744803,-1371.44922523161,-1124.39873364569,-605.799777084715,-1300.6122649686,-955.659881038991,-990.180662722693,-1472.75880271863,-983.178852060445,-837.321653556754,-1027.71715155039,-894.460464907039
-640.551244091944,-139.52343387336,-700.966743525852,-265.31515589438,887.932219902072,-619.36127084925,-294.257622774268,563.525663231723,-486.917287881796,212.696664284029,607.771105735496,-252.115465432951,-3.28366377445609,254.705034305927,191.585012064936,-94.5303585151411,0,-128.195940645314,-292.273839170136,-87.1086119017195,-507.156490877951,-93.0098748034956,-430.712266931511,-700.058837610242,-315.818320025229,-441.111801456824,-195.955187875502,-255.251072657289,-331.408143206893,-131.286656137822,-145.724739115275,-143.031651628512,-135.471912868202,0,-40.3810311653611,7.17631821871438,-13.0594536175602,-76.8072425061921,89.6927682768894,148.467179118885,163.918515757409,82.3751666384499,380.04317813921,404.479549983377,273.978539845712,-202.493907523874,361.083399717349,-480.942644056681,-63.8783837465442,254.333362225281,-612.849853979263,-259.500770966451,-599.904724107116,-814.991126106823,-763.327146749801,-324.929681208008,-776.216889216198,-618.934256478973,-552.305453142563,-920.429764384378,-621.257319581309,-558.0451822659,-485.246604420778,-517.965688324366
-4.05943640559197,356.296096822731,-108.411760140322,207.729883400341,1061.93213479014,-126.735807176136,88.2617858713147,788.907578821077,-176.886957735748,448.16550044024,695.864823242852,-16.5555732065381,133.544562083926,514.078566216955,255.997573477297,-146.34782656448,0,-134.032991461312,-347.619942430546,-41.3405024293093,-564.386594161609,-32.9111324596403,-415.363647263285,-700.221841862731,-301.432856367772,-436.628695656866,-179.001351501977,-236.691817987187,-284.223214013197,-109.015491574758,-104.446253622206,-64.1614054834251,-3.60372879921812,0,0.1602046629561,89.1945206672679,125.900400183335,117.124706264035,132.907433310524,240.324410796401,304.320852179341,277.31012820643,550.35550035455,621.200575888336,537.706438834702,345.021872315011,560.802280875532,117.414926884856,211.316187744439,394.280405706542,9.33909141778984,-45.6593704873102,9.4170878914184,-105.760534739842,-400.683370365886,-118.552896225584,14.4831821338017,-341.962534524959,221.258742372155,-52.5190927012885,-162.3219767678,-213.725089681941,408.745350894611,84.2632847351361
480.74142685998,643.616747292969,378.126594483897,557.472242694177,1118.59200684757,331.764235312245,414.818685628608,937.175798508403,133.277670920372,619.41041946138,821.021237595982,217.069826141134,264.08042599149,680.009093449632,220.956170703677,-255.734500997261,0,-228.272229525097,-483.451572562107,-77.7389207488717,-646.897471093137,-45.5331043550182,-418.518886781347,-706.149244017671,-290.201784874345,-424.93239863026,-184.266190811853,-216.809287422441,-241.200774598876,-98.0664512464979,-70.7532278979444,4.35110516231815,96.8966694431909,0,24.9470160808039,153.072584453847,237.024179326707,278.079372326613,133.506587837428,297.009924855787,413.978108324974,438.156422106215,667.382999450795,793.831338120642,769.640681076892,509.726296127688,548.335869312784,422.737970230994,325.20100614886,306.428435319329,299.458953840592,94.1854125221959,373.876449570642,314.646463590398,-103.093669753768,44.2005894184208,524.653193961829,-105.71015978403,781.206164874805,527.71307355729,149.725550035674,185.71065650862,1040.95198309525,647.397567373512
652.051047222806,642.737110944358,586.655657805577,670.063532395867,1013.59002711769,553.353528216528,563.843011392558,922.360076099245,304.385797575434,673.082269617907,838.837712389981,330.871066372478,357.409348133186,707.754713595225,138.516993366288,-330.396254117221,0,-323.616189024508,-643.112357447613,-131.031140972916,-714.414211734181,-80.7619720007744,-410.705540286986,-722.454060788603,-261.927928763601,-399.758942576555,-168.084444364123,-185.144458756442,-214.207089056507,-72.8435892914951,-41.4985415747843,39.8994382446405,126.839318286407,0,52.8925054447621,188.036151860608,288.270295805582,348.651163463332,135.814129916937,322.202266130484,453.751474706825,500.547952627941,694.015039655969,858.71400980673,877.519968151356,426.041451767546,468.114977249261,453.815536878018,375.417488906344,71.0228550302937,182.331319614289,237.253801946979,290.825406546025,289.274354999398,174.253689045112,260.057314030846,473.391557744316,254.130553597921,791.278283199662,551.969571887967,302.843195316993,775.888936177116,1115.87726229805,1098.38533517395
646.174136360846,523.603291270061,644.531257790554,657.226212658903,857.138573030781,630.577393477957,605.534769253536,826.508910393073,402.287382151716,660.525758093242,767.192533473503,413.85661554683,449.326075037728,664.91240938763,129.515254304392,-287.706526618404,0,-298.116523875174,-707.288096937658,-118.944119220312,-681.826191530046,-77.5058200727775,-345.357901626118,-685.005272492449,-223.292054002091,-352.651776752518,-132.320371511632,-152.957705056821,-215.312871742847,-47.8808542535556,-40.4135365739786,1.70663500590592,49.28262837702,0,53.9624051044029,155.275823728283,234.7248918663,259.31706628039,135.457945223589,285.720406408143,363.666362734733,398.292347945285,579.104439362099,731.569855606072,744.45851950791,311.942645563535,410.946351601899,404.421813709846,412.366049168328,-231.746047646661,-29.9669390736184,334.365542221135,-8.06328063094862,138.408978042934,431.636386833614,439.330075768934,197.462962521772,699.133139425232,535.862582124473,377.375374747901,412.859210800798,1498.8706550396,949.590446881187,1499.46554027618
640.654295336896,483.471460681244,686.19791831928,671.770647360177,788.71111699481,657.673997869367,644.24108412509,801.116347452603,493.592929789825,672.509087626896,760.31650506855,480.83228475069,564.078625105874,653.597388679908,118.923741145465,-181.516456680545,0,-226.033850002579,-644.939509904154,-121.023287674742,-577.25183424032,-105.68610426624,-281.915792120387,-577.472342902521,-236.710630261073,-326.746050901589,-156.049984349721,-173.048038354388,-259.573285128396,-85.9392523921023,-106.130093910441,-121.449530491304,-121.042970131599,0,-25.3100382407134,26.1695240038601,65.8490430699584,23.6419581860909,65.0686038240016,152.79573783951,146.751728632726,150.35153839375,332.464960420444,426.644707543962,395.844081969289,291.055781585951,366.828516185328,429.224319619879,420.226524749219,-481.403224534866,-10.2976219213484,325.506020037061,-115.2468978825,217.435741362185,566.211133836256,421.384977594764,181.203699050588,956.882014878259,477.014382939033,420.184099738845,493.996488294225,1924.15694608857,919.572555906113,1717.13102617606
625.732694521715,513.841580041545,660.792320862153,703.311511004054,782.967623123122,567.13089997176,654.275746372278,840.387616586615,495.903056566796,696.020902076253,841.854287601385,394.215666335878,605.151074223987,683.832741926449,-32.8566665251283,-125.307475124521,0,-235.581955597047,-509.890820424808,-220.356081500498,-464.875660127152,-222.343625174763,-271.060133936618,-421.802877420056,-304.091189846526,-322.146995502295,-243.455108230291,-227.392738055542,-293.307962332685,-167.399161759252,-184.008276194224,-226.620139226502,-256.535963741761,0,-129.312722244464,-109.134270292439,-97.1335586882874,-178.453992744854,-47.0030447935518,6.0522457195256,-44.7591907832256,-64.770209244652,108.34214307179,148.001346245582,87.4822105680439,422.198346821977,321.257946801912,558.193669531521,391.547917411927,-539.597462752871,278.681123482828,252.685242881482,123.40356705879,511.207771625953,576.155503709923,227.426855198306,481.859773635645,915.222586690193,680.698775599861,655.249372884295,527.152664202808,1729.20852862366,1003.54292580514,1526.67380972962
517.416109916144,453.88734612821,516.80945038116,638.370578174208,686.678829787252,357.411415675802,566.512538551723,784.759099945018,365.738794443015,626.635917120748,824.927211240865,156.778276152169,498.722956237586,641.907658281995,-251.575440246879,-115.619584631317,0,-261.893866939428,-325.683090941321,-337.989703617001,-300.679672318744,-356.215282460365,-235.809426894204,-208.033026318854,-343.362501961983,-263.606569641931,-302.394737729165,-224.459000120336,-236.606736758528,-193.862685874207,-176.693789158596,-203.969146116252,-243.18738580995,0,-147.923477549454,-130.051387051468,-119.586878618811,-197.760628761824,-88.903085826763,-34.9620592033061,-84.2355207272286,-102.438077919624,31.8872440486669,50.7051787652593,-0.375047116631826,633.627846752867,274.611918708809,687.271320442839,321.276731607563,-431.655121810717,629.267698444124,187.919526420207,522.234587960982,776.526870620117,591.718195520613,71.665036530832,837.394546069892,812.750931839676,935.840391437029,857.487237644547,573.085440743836,1274.21152769326,1039.68508532805,1121.50928934851
314.956574182004,195.651227741934,347.373882478695,435.280617557254,438.842046489759,210.225495464182,435.589981785469,591.667875305679,242.689917701966,481.312674005726,636.974765345427,9.22710283933377,401.538939448298,522.064040912473,-320.274133363138,-15.8679293313508,0,-133.94193351823,-32.9227022926465,-327.413984485304,11.0199365911767,-399.624843467374,-64.80440448464,110.527419453136,-280.487890605775,-77.3813370571659,-265.938979534399,-101.097305643405,-57.1689372995614,-99.8537839295865,-44.5227323417267,-36.2613030583382,-67.604237016095,0,-48.5824362374564,-6.42927459878798,17.4747547941376,-49.2229848660079,-14.1308063121535,54.1847458982191,9.90962217259077,18.9378242907857,73.535965612889,93.2391526952466,67.0435286934172,681.5308725832,134.178510218504,614.104899310992,147.061064635913,-365.821490042998,762.32565302577,82.0719156055639,761.935726867675,774.090510379116,535.458509082327,55.9006071691213,983.916945065604,764.825993398288,1052.94479904499,861.516629050154,542.451614908598,1094.5599625688,977.643025994217,898.606580439415
107.418896158059,-172.867838267084,273.342133482556,207.845638851731,180.776348724528,264.156305951492,417.484769979243,460.546690886925,283.884513841501,475.050164268512,513.954272182524,121.350217649144,554.58647332959,577.420190545126,-156.712570105252,282.267372630941,0,189.08681726319,438.519262551929,-135.943970098324,479.705332561147,-317.056669043669,256.2737901993,558.53806621887,-103.604282392821,251.817940020214,-138.997533730958,141.578866570347,244.648844116568,101.015072545105,204.578484373454,256.871857955601,248.850927762411,0,132.952727948146,232.41162751587,274.126016968087,212.747709680341,134.678459851269,231.900674166798,202.901200563424,244.3607642798,179.794428403866,210.795645690534,206.77122771466,409.983273556492,-164.045995041333,249.908783441834,-152.992344495975,-459.466108907228,527.531529988195,-150.342701083097,630.861180501714,405.883261779383,188.117915217768,36.7837253473078,766.537941518995,539.089754673737,896.189139673919,580.323523616731,262.038409336881,1075.46190807963,788.80422695286,838.444389530503
38.5206496783778,-370.37238347034,328.341026774013,160.063311839795,147.396049900243,444.39184241395,582.359032979585,594.124122594673,466.236169303207,749.137542714077,692.112136659246,377.215076440806,934.764385213906,986.616871909364,122.993772744557,731.137531721422,0,595.924014003101,1044.45456152337,175.595742759697,1009.38561313396,-135.053542890404,651.056716887918,1060.30170595804,152.31567936497,655.704205261856,45.8247219693849,451.533840574705,621.563092188504,339.488807770573,517.195455525806,621.413562152616,643.003340166568,0,348.508444781652,525.000933211883,590.836694716883,543.612429044721,302.751696436682,444.727558050857,474.378273305123,533.411074608956,340.73354918015,394.01674674167,418.834624826301,35.5383533140237,-366.464121581792,-145.207165857099,-368.198336244598,-510.359464774404,137.024215467952,-362.294368896824,259.009239183157,-55.2940381007206,-260.254637545979,-46.390245498024,328.882421512597,143.088666389131,519.147934401695,200.802769797462,-30.8403281915428,870.438850674429,531.941775253265,766.859193013135
152.173336706887,-232.027307088864,423.468431803163,329.988457115008,364.747726778492,542.01358814008,771.253321692076,873.740881284662,589.638924595747,1079.46105291865,1023.27485097535,512.871129768239,1199.74547727815,1462.26456388414,336.274567561286,1116.86118418382,0,915.750643207519,1564.72073319005,476.437377843503,1418.2855605362,80.3302847323296,979.498860149683,1407.3227195929,399.83181701735,960.459386549589,224.37675627096,700.497305442424,902.957887932251,510.769190569022,744.039564157919,881.915762260938,916.083215947959,0,511.733083896882,731.153768146834,814.812500475161,785.709604543465,427.778693498329,597.675378551997,691.184766776807,748.065937694557,481.075870726944,559.098287593979,607.710358227055,-82.2596481667924,-171.082672270225,-198.870481050729,-234.631447915069,-252.028063352977,-8.02439176680122,-269.390437803923,11.4083554234445,-153.262350657628,-328.992775181444,1.01605161842625,66.7707735329673,-12.4477605015329,204.224197410414,91.7171277113855,77.9757884701926,638.814495549072,388.961324739125,803.111106603159
311.496663838536,48.6815365419874,443.697830433648,515.200373377676,572.985054887283,453.465777132064,785.86235209734,993.31078405883,525.146446435014,1139.29766897056,1163.37357995692,422.220843483175,1117.61545697933,1577.26461620437,417.917058064085,1257.94313499876,0,1052.80817557587,1793.53273786626,671.261110798841,1559.98370816642,258.96233921308,1121.38686947269,1449.08444289347,546.358675302488,1029.12413093057,325.199055962478,771.003825210586,930.069198143338,547.854553132262,763.308645814936,879.831780554351,890.890046833036,0,544.674910421054,737.777133821857,806.051145719532,772.431162433597,457.681748976628,612.207742727932,715.907277920844,747.754894927792,509.078392960501,598.810726124955,634.426108886419,72.4051640064028,254.622904342626,65.5520615327589,150.599435004247,201.455942471291,134.189628442393,118.315420868207,3.10554349296325,124.226489332638,22.0944045890212,283.54951092971,107.659365311438,192.895242768894,106.453131057203,279.631060076102,477.41364008175,679.864180772438,402.454429751532,1023.73086397865
446.764535109664,264.634900485135,450.164833463889,623.850087764815,654.946259122825,338.16098721359,723.289198836725,954.286580369417,427.679321320898,1023.79136436479,1134.35206658994,294.31356074575,925.721911192106,1423.18913741533,507.613547147505,1278.73459457846,0,1125.8373491196,1843.6567358657,826.815948274829,1557.33230673457,428.901689793329,1155.82566466757,1356.80827838261,631.623434896296,988.203408095914,389.851765198512,750.99712927764,830.603432207615,533.803480937084,693.78022485595,748.969995790075,717.373939390702,0,521.871365968906,658.307664163238,686.302188524788,628.65508993978,450.166751836611,570.069545025936,651.908241071287,645.291424745639,497.856512158366,587.415519518126,583.738626833926,251.630878236325,567.794645192468,346.113026636175,486.97713316293,514.038371252771,285.630412188795,509.828815988579,50.7337426068638,397.321899803505,414.23927507288,636.873535845123,211.379669847329,450.821096102412,124.26580673686,478.860010816842,801.265154346451,928.914684356421,458.11279279221,1267.29303855552
647.048399030721,497.622614711697,579.493230868634,794.632816683522,819.98814148389,371.296673681611,809.964522732665,1046.65707719947,474.734968493797,1066.30730282,1281.16468172656,308.072717964493,932.230565275372,1419.86375744321,716.951195412044,1413.62208220955,0,1292.02569441083,1979.03077412787,1047.01038271507,1664.50781706658,673.865799975007,1261.25689506401,1416.02234175012,774.405192328842,1066.44325617144,529.10121512415,825.647366960908,865.279605729551,606.959888889613,740.545353014656,751.62470198502,695.298789913925,0,583.043138890291,689.164421291085,691.925360966943,622.220740034095,508.942515438246,611.928576400139,683.20755646797,659.171936737877,561.80420811736,655.203800826534,626.074840522238,312.087166996666,718.321208056179,493.472479007375,666.404477246151,560.447057803644,332.10518949291,712.818804895574,59.0519560192793,500.534062757585,634.354473903713,866.630149838893,228.622743097376,603.744521563416,152.04606109123,574.586052720544,1039.31001266456,1180.04168646648,520.533093446164,1447.2293860122
858.735593659158,783.74071510436,720.191704667289,1013.97785593026,1127.60335068395,407.324444005212,939.31337293017,1283.20169009411,486.106490555973,1194.95898335905,1613.53689324473,279.63647959071,926.750420177339,1529.88249306398,873.481906062136,1520.52647046129,0,1431.90304563105,2093.74379780786,1237.65378382096,1810.1097199322,933.106719315668,1376.66138287862,1544.81742056897,933.698679566707,1196.51825750582,704.121989393888,943.83286130948,984.107786774798,721.412754277194,843.143022250889,840.282765728557,786.125155304698,0,675.459229433133,769.548373485474,768.604738739494,703.611540802028,587.298189517179,676.482225859223,732.661589196179,723.697097949608,601.515724464655,698.094610021015,670.834317113101,192.842337943202,703.583416231069,455.544820518374,666.938251679981,395.707554946579,284.562453759328,696.478248921767,34.8563422001848,499.327927751606,688.492854309171,898.123055549495,196.038343448883,728.699266898878,153.499657012532,604.676277838731,1261.57526984397,1306.21297577089,584.358714691301,1544.7992055133
841.209593722494,887.610368081725,604.848687984941,1014.66549019668,1268.82728084841,169.917320923652,778.743375490905,1307.18529624591,140.528049949457,998.741122515879,1695.4120856865,-110.326745472632,451.72487373273,1281.37871905867,727.573034924813,1231.43824308831,0,1299.76146939826,1823.26787184883,1221.53454647272,1682.40234537736,1042.27577217362,1284.62332669059,1430.21264351079,952.090164140763,1131.48728471329,765.157473413595,904.645163860124,931.357678663448,716.999846037434,795.026881803924,773.47168870207,726.079615974086,0,639.627935275611,698.298253266953,687.651302157791,627.084104793231,560.012110461107,600.005209603703,614.799457173368,620.882528359381,461.390223988661,539.008371736776,535.853667717737,-86.4428608985414,439.742832621622,225.806544496116,459.815158919673,97.8961361345117,98.9308377751703,502.813989834114,-66.3678806386305,397.911182657424,593.958742995605,755.303277929668,132.363092070644,801.5974157945,117.61046608278,544.465859336185,1273.68273589254,1204.89899365511,573.814840486033,1423.52458001158
517.742392515246,642.929234001029,202.560020682772,665.648716342388,1010.82744737367,-326.92214576546,268.567451348889,907.037624723002,-541.13505538201,349.389611231153,1250.81025104916,-847.542825242807,-519.932879334916,503.273501769197,292.768270284198,533.063704641624,0,894.168787592199,1161.48987936073,1007.54141359084,1245.4263637458,976.794734699098,998.294166932057,1059.14906472569,826.581954181503,878.193886121428,702.629988597505,719.615177534121,711.826660302278,599.462655783686,614.135467819481,564.151223519905,520.566340605579,0,497.912595785086,500.01691288852,469.459505003942,417.335186051481,444.824484704908,411.679679473463,378.019403519027,382.990199439932,207.744948166298,248.517554158935,284.11098629092,-315.375631561919,-7.65874415061568,-1.26836917977429,147.727527045498,-249.847731703181,-147.394205571778,267.751212510113,-227.907439680342,211.957973527186,431.523247166447,546.606957668404,49.5630070599887,743.813956527872,95.3490137631287,414.467564651087,976.073348790298,871.26583148059,474.539678196479,1023.29273719271
72.8426792555427,191.314734512406,-268.472714094428,135.013541951689,484.032301230582,-824.827901432934,-348.360530280851,240.83908817877,-1242.31760334448,-495.474033816935,442.422329259427,-1596.75181733195,-1593.6620772698,-522.317310729088,-210.980857306136,-253.07105371515,0,401.6785020004,423.305110096389,730.881436850749,721.308772037031,845.820157399175,704.001460186162,643.736838547814,678.995555263999,621.223246715637,620.964237064503,542.050614413285,503.635855266792,485.576076582244,446.234173058683,376.233737395942,342.546361152493,0,369.604920727669,319.761724305241,273.360741977262,237.857761201817,330.410286886978,235.443502691078,162.038075392119,166.037048051025,-23.7734521200298,-20.5051700477676,41.0744087049841,-356.947849719793,-489.628592115264,-40.6602882059499,-123.461931850106,-585.689127677964,-257.394929090978,147.989786555387,-322.806587201449,49.9516663450624,352.885661181233,416.785344518691,-2.20454566997663,631.94590429805,130.390678030944,302.599605503778,588.390090809286,499.990038453939,358.843851773527,541.099881832471
-337.073168257661,-251.291545964705,-677.144304061472,-389.876172082064,-81.1824962246417,-1194.15284134581,-910.936638297205,-470.669129583108,-1768.56846443014,-1307.79685162633,-473.616291534789,-2086.15143436593,-2444.78170900983,-1549.45212151389,-613.722496262373,-923.535141463964,0,-71.712974011477,-269.866581714739,450.010456456194,206.263352500348,700.19637046413,428.457153474473,208.06817233224,521.324699666624,367.29644618282,524.403878179528,361.350432951901,269.919151071215,354.345872491112,255.572520653381,153.355748440436,120.145695475055,0,216.421137385505,109.080425725835,36.55371044528,-3.77440624504876,188.735187122049,29.0919648281312,-89.3509279459191,-98.0723068640548,-276.744830286502,-325.141956827403,-284.985292024253,-355.958282308105,-875.609762558137,-2.71738655939689,-298.051635767554,-802.134958112675,-193.628159907835,168.129170807811,-267.530610908742,-59.3510581630824,378.910211222827,419.083471916321,-17.0836418896484,561.696170768455,162.908636148278,168.964717546319,281.783347868856,308.374664577708,224.322605530423,190.896740847166
-731.398994201659,-635.922996362677,-1077.00181021537,-891.019992864972,-614.071122626931,-1508.58265079754,-1449.51437322788,-1168.78330056758,-2146.48359257559,-2046.17266534471,-1406.20585633613,-2283.44951267618,-2986.87509803751,-2538.58654985572,-853.459704694372,-1444.15420258482,0,-478.741351849008,-938.370252911209,179.677591511331,-290.793239563896,530.618185934598,103.754516468961,-297.525591865935,298.782034768417,34.1440800438774,358.88244583985,90.8050200387231,-105.07732890539,127.031658238787,-54.5269957804519,-229.429090862048,-299.385902696983,0,-45.0369736797553,-233.638162048402,-368.571836327432,-455.752452079112,-32.9310842509893,-288.692436596447,-466.837534548467,-533.932691062352,-622.623409831674,-756.210262394032,-784.699106494225,-459.939523803816,-1023.89040642481,-94.7692831889724,-389.635174943308,-773.51296590101,-103.29777690348,193.942969410178,-113.781673552928,-179.431682460477,363.616796233207,449.005478925464,-38.9607223044009,491.344157440845,100.287520285232,-67.6964291994266,26.5231194468134,298.731675233719,-6.97105746237107,-26.6694217943989
-1160.8890196198,-1020.68083137933,-1505.77302090779,-1406.18382087534,-1146.92227925655,-1812.57598082699,-1985.00873505659,-1861.51027255477,-2418.65142165789,-2700.21157528497,-2327.52800126997,-2261.10366784062,-3248.4087289634,-3428.30797800002,-909.821214789875,-1756.91207526243,0,-720.525427145605,-1429.67966212163,-8.64732531241884,-650.421477816962,380.106416791339,-188.028520738875,-722.009371656191,77.0360596020126,-283.059316246505,181.11924395966,-189.279203180024,-495.157725521348,-115.303454233133,-380.395938290595,-641.949060252542,-778.751102878857,0,-316.555123492969,-589.044796935453,-808.405608644149,-958.291437914029,-250.901670094751,-603.370661668729,-847.690224380957,-1000.51956620347,-946.758103009371,-1175.08959047044,-1289.87910668076,-641.772074083858,-995.075948200404,-348.379147669134,-510.693088109166,-638.933751862071,-126.011051147044,44.736567375446,-31.8611849985288,-296.142664578239,192.84039674741,330.783273361061,-100.045806601112,332.980821600034,-100.071857516615,-303.486251247233,-173.503518193826,242.957084364515,-338.434541548567,-237.169885343089
-1653.02395524556,-1498.30260003764,-1948.27071724752,-1975.81210023723,-1765.22396640824,-2075.11566655176,-2500.91872821252,-2580.70913006183,-2608.89134003235,-3287.93126315379,-3243.1700720221,-2105.18980212122,-3351.08620598871,-4163.36135378095,-850.073656129668,-1889.31574465534,0,-802.385069583871,-1677.19472718497,-97.4378896116692,-840.552339597705,275.981234675543,-361.476144318352,-969.879763694124,-58.725267803041,-475.601449743317,65.31210028002,-372.874460093989,-749.644803976457,-263.057829405448,-591.824604968209,-916.516570781293,-1123.66989879171,0,-478.486241300158,-815.835925277771,-1108.43497711618,-1312.71346751534,-376.107356433645,-784.222207158155,-1098.51023466327,-1320.10702350927,-1131.83711562497,-1433.52062844057,-1639.58665030714,-942.888235253823,-1188.4078258586,-784.853487451295,-904.36132885543,-829.834844539935,-413.426721143675,-424.317611693469,-264.547600593688,-497.380936041334,-220.653111684821,-118.992526547731,-333.330738047872,-81.9699232069523,-506.271158379693,-532.544495925631,-419.111219854578,-211.758123078743,-777.480670826579,-639.157466991755
-2212.48671866772,-2126.75412466434,-2393.48115594094,-2614.2972770624,-2532.77069077168,-2279.68244158663,-2976.19534956749,-3335.64705335148,-2733.85258902228,-3823.57696182518,-4166.63267762919,-1907.74153623304,-3393.70656618766,-4768.93624203807,-812.852123808956,-1993.98620296377,0,-885.111577840467,-1906.39778908217,-181.452429359794,-1027.19145180514,158.905955026634,-507.247345743564,-1199.77495994191,-153.360547632536,-622.915122767645,-25.8395462259428,-514.342301582432,-949.791487347307,-360.428896077317,-746.514157178097,-1124.32905201234,-1398.15246199002,0,-584.348151875099,-980.513537899794,-1334.74070111748,-1596.80109769172,-454.585735648712,-893.20607057702,-1277.92520582404,-1559.52207042608,-1235.90113054815,-1601.44098488787,-1903.07424619406,-1498.03098418508,-1896.5528417427,-1504.10706002437,-1700.96833285679,-1547.41738958585,-1095.8143085477,-1220.14707229796,-913.167194716708,-1071.7414845738,-974.079858538629,-973.504775312916,-944.04611931053,-950.646732351977,-1192.07931649042,-1069.13524316544,-1051.27011852976,-1230.3150395121,-1440.35502510933,-1438.86538078841
-2653.77765785679,-2705.91401893239,-2671.18781949635,-3096.35580797854,-3230.84842024396,-2314.64557247718,-3196.16427279113,-3874.06209450791,-2637.18372236716,-4050.64543801908,-4855.77279005861,-1657.42844503251,-3184.87470511872,-5048.23993540687,-805.23823135862,-2012.88733305617,0,-979.41587582008,-2139.7953155992,-270.100999096217,-1221.00921778129,31.6924965496681,-652.980931433338,-1433.63863987725,-223.59140971427,-746.606813673153,-99.9394955635378,-627.588674382131,-1117.61155787177,-430.693030150201,-861.75317954025,-1294.30871744765,-1630.33933614876,0,-660.4737018685,-1103.85714237913,-1514.15454342834,-1838.6859245886,-505.999984197421,-964.783641149512,-1395.83890744051,-1744.02980991489,-1278.56073620315,-1703.96088386019,-2084.24646827638,-2171.98082427343,-2827.83530710454,-2351.19633446728,-2615.56054790699,-2428.09900366723,-1988.11969212277,-2091.50941272309,-1723.20531686636,-2003.30590438818,-1934.1356943061,-2006.77315261882,-1838.12851634938,-2111.20657303067,-2017.71062696117,-2014.00763371519,-2129.7647118685,-2460.89981335494,-2294.03194756851,-2531.61259011203
-2692.60332306408,-2889.35125689806,-2507.97335949045,-3081.57042853956,-3485.40953614264,-1992.11449081185,-2863.56373746044,-3834.04232763328,-2109.03659079202,-3612.38827092846,-4939.10440958947,-1250.65699401907,-2461.16587040312,-4641.51428436212,-699.737047131606,-1694.64492970195,0,-900.955320104142,-2042.64643989191,-259.250692888696,-1201.08015124905,-14.6285493748269,-658.400014344428,-1430.12532018068,-186.747813805393,-702.99089457941,-84.5098325618319,-595.560829420929,-1081.49118043677,-387.156717180017,-807.738643422813,-1256.36910498888,-1635.10660208319,0,-605.629731651119,-1043.84602000011,-1479.13673840916,-1840.10655905405,-455.773935817944,-893.340157638309,-1321.77268732777,-1701.59517509544,-1159.8202148814,-1606.85980611977,-2029.05353939955,-2594.01574966718,-3438.13327898013,-2947.64586153001,-3214.78739837755,-3045.17978700823,-2698.47921357379,-2770.31511780972,-2340.476606257,-2876.09752034651,-2813.57547027607,-2916.09872902905,-2643.36973022611,-3137.59336694092,-2676.30132643191,-2987.30527872283,-3241.99293660713,-3404.30032778962,-3040.56283140601,-3521.88914302291
-2347.47407148671,-2647.86734354311,-1959.5103076882,-2614.35611870966,-3278.919264057,-1384.47557443944,-2105.26729160667,-3286.01216158022,-1317.38524840675,-2672.50615226591,-4461.0954881572,-733.26489886097,-1475.01782829732,-3660.13618521893,-495.151863721242,-1122.39435449781,0,-651.018141482086,-1576.51357800861,-177.591498149438,-952.995885822609,-3.0249482655116,-524.090090858207,-1162.62889407733,-76.825773746237,-507.102549682566,-13.2507332615345,-439.519118625915,-847.065169342606,-259.327359269962,-609.34802899957,-1009.48085643925,-1388.80323740625,0,-442.920828561731,-822.034979070345,-1230.54708961549,-1579.36928344374,-336.595745433769,-704.270627282311,-1089.42843325717,-1429.30064108185,-928.222297450658,-1345.6019261514,-1772.7063737884,-2640.2851391048,-3612.39276043231,-3175.08818144371,-3443.89451751172,-3439.59868633802,-3083.78303529255,-3281.64102513359,-2682.92408880816,-3454.11127030091,-3516.33894138797,-3664.08960456423,-3162.24721222224,-3877.58146509384,-3013.25643398764,-3648.21949210234,-4073.4654788123,-4003.54053677831,-3452.70340048099,-4188.32034577595
-1890.93756440592,-2214.51947096691,-1406.14342198054,-2053.54842808286,-2884.46947311961,-846.761503866155,-1419.65682447443,-2644.92257353602,-732.463342250855,-1840.38845048219,-3801.69771805255,-344.780622381983,-861.71083542298,-2704.89078523618,-375.112310593377,-769.087722342021,0,-509.185324534856,-1197.74867911462,-211.629155487366,-777.689025672506,-80.022534794004,-469.730569546935,-936.070592402624,-70.2661057407477,-399.68080754378,-29.7269378166235,-363.066511044701,-668.857364048841,-219.651657419627,-491.432652324592,-810.498717100099,-1136.50394034832,0,-359.08411532391,-673.66390871165,-1018.08175899929,-1309.14210614314,-303.114711349568,-597.985903849762,-921.853817399818,-1177.01258593971,-795.872586895718,-1156.95994675712,-1540.02675703182,-2481.39081743214,-3602.73219751527,-3152.00582611714,-3482.3772452446,-3772.86533782983,-3188.77631956673,-3656.24006497222,-2781.66889835684,-3727.18032954783,-3947.93447504839,-4194.84789473747,-3379.08144468635,-4312.55899749778,-3047.38660401245,-3915.14687197781,-4517.53183236632,-4330.24788426392,-3519.82178643178,-4463.43042730086
-1416.36713496713,-1658.49379531954,-1019.88980688731,-1529.04796027455,-2401.47649505442,-562.806120804248,-1027.28247385335,-2091.81862353902,-522.895190023194,-1395.6120270644,-3134.02961207589,-213.786661441451,-805.906697504135,-2111.74204904659,-453.20586555726,-850.233331996304,0,-645.359519467048,-1188.08577994693,-440.531656491037,-855.695317491797,-297.480875748528,-606.672990533953,-919.77361704469,-237.853628780213,-499.605933660573,-176.251773591801,-451.857733445593,-664.14320503007,-328.382320131028,-543.706501363564,-780.622059363955,-1014.35114514107,0,-425.064769726263,-689.209882086051,-953.266577520444,-1152.14629255654,-398.648199916846,-642.997192751696,-891.452694613187,-1058.13549767341,-814.654864652905,-1102.6362998204,-1376.34061033972,-2141.00300559737,-3388.67640911284,-2793.61896317347,-3217.17338402977,-3775.48137517694,-2885.25751396782,-3580.69456966233,-2506.13333474622,-3510.46220098772,-3762.30944941795,-4119.89099488029,-3166.25794488258,-4139.98640056917,-2764.39761766928,-3688.82291857096,-4321.600568683,-4069.07706708401,-3239.13218490884,-4114.2412440337
-849.733903073159,-986.330976734272,-646.657221643195,-966.345433883713,-1846.28951397015,-373.69939879292,-740.54533659288,-1588.82209472531,-419.410595322517,-1123.20603027209,-2464.92037694117,-201.964772883661,-868.535138363522,-1715.30067351971,-621.327666661565,-1047.39214884937,0,-896.890051676883,-1312.30312960556,-724.286090544724,-1025.43172324724,-536.968630245417,-786.11822129869,-954.243935070118,-452.570850702991,-658.038477409137,-339.875748065622,-567.187433429061,-683.148771820161,-458.341530480859,-616.739405840415,-765.185509203698,-894.234885888011,0,-507.837441068421,-708.746622796472,-881.39859409045,-967.838909055076,-495.398526061448,-683.006926492151,-837.545880044218,-920.40894762906,-803.348447440703,-993.469140669172,-1119.06331249995,-1437.53656967126,-2627.63368664585,-1908.07433885626,-2362.06664753451,-3007.57573473849,-2020.90996666434,-2748.29186080411,-1762.84323039803,-2616.9479637972,-2770.37666579378,-3159.49487255783,-2400.54252565713,-3130.486586168,-2141.7491414934,-2885.33952697903,-3352.8150019817,-2968.13222410385,-2582.4468594652,-3051.10964997838
-277.493287750662,-422.366035326398,-217.254499860562,-472.705720527858,-1420.67516887353,-125.573443967093,-444.205955684556,-1233.49529006781,-218.239053211222,-872.047656612546,-1929.83368098893,-148.508086710446,-736.49095499594,-1349.08283719451,-727.210876392118,-1058.75309694816,0,-1037.70289060537,-1292.34315203333,-890.829757157343,-1080.08898903367,-663.269238978601,-831.396746253602,-864.469508418905,-563.079922401957,-695.598135058959,-415.29597616776,-567.406479747734,-574.458840996565,-488.101481054762,-568.836761395802,-611.553735991289,-629.733918577942,0,-483.49719457379,-591.873395036042,-659.032162253263,-626.828136868533,-486.141726756918,-589.17162930491,-633.469068999585,-629.332915104033,-634.01283671755,-707.758538268448,-694.779086185042,-404.253875663657,-1301.33370801556,-647.087046891548,-1016.64250595863,-1528.70036164825,-777.189113729446,-1332.51359487152,-730.340435008217,-1247.35300498709,-1281.21839453893,-1587.34609759505,-1216.45836989915,-1578.93905391028,-1259.20580557924,-1653.39555977082,-1958.39358684503,-1382.78788864168,-1636.45611508475,-1659.84567233607
105.907310788048,-160.700279699662,125.128144685552,-222.17685690612,-1260.57056123463,122.305238036077,-237.379487922231,-1116.79633050591,-6.84561591859348,-717.973302032638,-1605.83165013098,-58.9764182451051,-554.913576439548,-1045.59605161374,-748.055604657988,-964.551861710434,0,-1038.42691780274,-1162.32903392428,-912.78166532845,-1012.77494676717,-671.760680317191,-745.569127625735,-675.005548318806,-556.342778348332,-608.75537505121,-423.606434376797,-473.287832993358,-367.69579001722,-445.645025993592,-433.108647718674,-359.284497172377,-255.113881603183,0,-389.517870929353,-389.122313521753,-338.108731509616,-184.489816753584,-417.105767040484,-424.411411551166,-355.495306802635,-250.165699176875,-396.633465364561,-350.696882161641,-221.365210264918,596.746939855655,96.6344992163406,542.925178066301,332.57301561022,73.671605357511,421.611969426886,143.114103839538,281.374774716607,129.652726302788,179.579283483527,16.095762638846,33.8204243740841,-52.9305949685351,-301.924756849217,-336.42775599251,-620.513129550538,71.9798835549613,-629.998330327041,-425.13558934875
265.639933868707,-92.4970352730818,285.567314102505,-154.188435375147,-1203.28722236144,270.641667219334,-151.808639547859,-1084.5951021208,121.251735609811,-646.991820214642,-1334.99659030667,9.52856997267544,-456.728696691578,-801.245934700853,-730.759767401184,-892.895921595557,0,-972.932653623978,-1036.68434579415,-881.311435897287,-901.385803555351,-670.675759983081,-646.433304032613,-491.714366667938,-529.813765524986,-509.759635306803,-451.765379422555,-393.824694697629,-187.959323357121,-435.972529209957,-325.531320870216,-143.193814133007,76.5779902501164,0,-338.049366652829,-232.779155127063,-67.7729067195247,203.640146678953,-400.345562318396,-320.588302448454,-153.576838565065,63.6579438154879,-241.94349726668,-83.1825547367321,148.600136489998,1206.71445293479,1092.0495043317,1307.83740411105,1287.07858609965,1233.88192859747,1202.20617085872,1222.02850842743,985.581915566014,1082.58505486171,1225.00088100962,1173.84213670126,923.025458023166,1028.52917348004,425.537098865664,654.538455897533,413.576035544997,1031.16107602298,115.104461414458,428.455920180329
291.359945497707,-39.4870784483327,300.766170149496,-117.588368023115,-1069.08301700163,296.58108387652,-108.942896376503,-970.772398178152,192.539103470132,-549.09611618804,-1010.57488863685,37.5443330056092,-353.536530851819,-573.134805242653,-709.85767149606,-787.224417710632,0,-886.174049027697,-899.826062453904,-888.447838414806,-782.946690068708,-740.008943398568,-614.08689220596,-364.323833230463,-555.499416230154,-474.057323961369,-526.980340566985,-386.157250080959,-104.804556675008,-489.230567064494,-295.975895538925,-35.1638299954038,259.820697122833,0,-360.117566187173,-177.679912438787,69.7450959608785,426.030669095222,-456.541153564692,-310.4652013779,-67.8794506606714,230.431145478937,-201.518140743147,48.7388599162986,357.11603827292,1357.97223861745,1604.31047197491,1582.75060764313,1779.56780645334,1791.3070926097,1437.94571004543,1779.78596697971,1218.60237095201,1435.80043918285,1772.28057834106,1743.01788981765,1197.27330304829,1594.92380676445,662.697522587956,1068.15909380511,1096.84277511161,1470.21355109876,372.924944294602,879.940678140641
202.686587093297,-9.37905803018321,185.944103423139,-133.897642089067,-924.972819239632,175.530851394303,-127.209943695323,-854.357510995689,177.7652657476,-466.735909029743,-775.7891653356,-23.7263867674072,-250.434060812319,-429.548032680544,-719.232122219756,-638.383592168115,0,-829.313579270136,-736.366990620116,-957.489827327223,-707.95499053894,-845.293281646813,-665.035037449898,-316.601410661161,-630.326224031652,-516.936560341178,-606.599247760224,-440.777295647109,-123.37495481456,-556.216399926948,-331.125723924872,-41.7758247440516,275.287677247817,0,-412.44861887215,-207.391293608733,70.0848211453493,447.759247651813,-522.219589545413,-353.886983148704,-73.2246027564817,232.504667767589,-237.564330553,52.6695346099919,388.957409859427,1243.42469666647,1821.27816197919,1553.8743905264,1970.96171923723,1963.00867143508,1327.1884795598,2003.92261336755,1086.70476206562,1391.16902085708,2013.23086088693,1939.40750550806,1022.46670017719,1863.18631142833,473.559503959362,1037.15571846653,1469.76650593861,1581.08297454289,230.025034238973,1014.09221508889
-12.7116151744933,-49.4632136917398,-77.1923804152151,-288.542248690465,-889.105667789135,-120.989359343488,-306.073562045558,-881.307924616344,-35.1683738435583,-546.937549109832,-766.183334388262,-258.278230692246,-351.763726119033,-473.077081075055,-808.840375151863,-626.568634377784,0,-890.213751894058,-660.703176877989,-1069.57356666157,-769.310501724674,-925.263219912742,-806.511243988825,-411.636581673202,-741.508680560297,-659.08068661201,-674.135134776172,-558.533190440542,-268.056625825547,-630.115001472012,-444.806183482232,-188.607798861032,104.555324032566,0,-497.50713219259,-332.721881359543,-84.5551629109921,255.848916039784,-581.912762145515,-454.58533963171,-199.753430027636,45.7256952304711,-353.439014184014,-98.189624631531,213.497947324441,1075.99513296237,1973.95830168142,1471.63694468422,2072.1734976095,2104.1606799165,1208.31340446243,2140.95730911389,886.384785151062,1330.96215035135,2152.56953725932,2063.31669927531,800.942614351152,2030.17449764369,167.730386025359,914.08514354253,1616.48229526633,1549.24684997855,-20.946538571815,954.162748545716
-259.669119557057,-77.6544702063483,-412.80391335299,-515.82372229461,-900.359891707467,-518.646651022696,-623.106656409969,-1017.20881577544,-453.743544556649,-813.349933964214,-900.454643724365,-665.583899094164,-778.27058804147,-719.457307182097,-999.114477362377,-890.437930489808,0,-1096.22756438314,-796.434721778656,-1195.4922104014,-980.732809000059,-976.607486943257,-1004.40711357142,-667.584437935606,-869.515752579277,-880.309102222476,-740.446496306453,-726.480026868413,-530.930420323305,-734.657438029757,-634.732622862567,-459.52213637389,-227.620262558971,0,-629.817846048773,-545.571032923089,-371.989528111309,-93.806697912713,-657.726824205409,-609.708556742696,-439.497044731214,-277.112964233194,-524.408662467748,-351.299264848507,-95.9055632085827,976.13238904403,2217.34740937615,1476.96220963056,2225.97968111138,2451.4720939271,1262.23161873192,2311.05595804407,829.015207180807,1452.3904476746,2248.93642048695,2231.33788369994,757.125135284618,2105.97435523539,-34.2406530301113,906.717230220699,1654.19493336186,1399.55219721632,-174.771038617202,789.962866933671
-446.720915010208,-49.7901005129472,-707.901389445344,-717.150252725979,-891.033617562516,-871.316336193399,-950.06510361924,-1170.90445757148,-924.183145473979,-1164.70500677272,-1092.83000203988,-1101.72629227825,-1369.87595478968,-1117.27562164949,-1208.70814338585,-1293.91141141093,0,-1321.47525135327,-1078.92601774862,-1266.64444089102,-1194.94841239575,-986.572436158555,-1139.87633458294,-941.376452012496,-930.87654953742,-1043.51340768991,-761.076243170458,-843.748251178244,-767.881732215614,-808.43540330402,-787.769788754725,-699.204879077864,-545.868366652462,0,-725.691120228376,-719.247328700003,-626.397410463118,-411.66190438726,-702.295312405405,-715.687162615017,-639.24341889324,-542.9997444095,-633.493959526533,-527.522728712129,-331.988011864094,977.072908595459,2441.55975278088,1513.83273915288,2337.94348458932,2848.33189605377,1373.49589392825,2408.21992714884,862.750586356645,1593.73652131362,2217.94944929601,2302.09981607133,783.258553702746,1981.16339008536,-151.372829749508,920.609783982632,1616.91964068684,1040.31875283881,-249.991141578484,534.120530128187
-616.410955007372,-65.1946080753457,-948.393380282382,-923.72847566775,-943.860614836035,-1108.15657217378,-1222.56500678431,-1364.2314118832,-1289.07670693262,-1512.48520314062,-1392.30792365587,-1399.28646423543,-1850.97552944933,-1570.92195457639,-1296.24495668139,-1570.71868556965,0,-1393.35571082707,-1306.88209546243,-1201.8427352316,-1256.65530843116,-895.578189158114,-1118.62716070752,-1056.69651355538,-842.348534787887,-1023.96937004671,-670.241665243442,-813.458928641457,-824.229700409858,-756.001022299767,-783.674218778977,-755.648669436628,-667.100719581411,0,-691.518465961286,-728.88724442105,-689.663611785262,-537.170867565943,-648.667013896503,-687.070687882404,-666.564663167684,-612.470195651285,-612.580152894809,-537.480326498938,-387.611046881668,963.349417379791,2277.84621012025,1379.4475274547,2096.9740567353,2805.81136270211,1270.40727712208,2160.81935612087,778.487716278016,1445.83259191347,1904.44747347263,2029.91781733319,658.238758073117,1573.46610113072,-290.241080671734,744.333542933337,1395.10850049363,452.641218674902,-367.525833091317,177.381951613842
-781.359666065537,-126.884603230621,-1137.2282611652,-1134.88995420779,-1061.87944583361,-1242.19288186057,-1432.17026886199,-1583.12985495784,-1504.15531806156,-1801.32314738705,-1753.27789741947,-1512.72793041342,-2117.07796755601,-1953.33682898174,-1212.43942349225,-1644.93537241253,0,-1292.84371776656,-1401.15144057659,-1004.83703418671,-1193.52665164778,-692.845933529734,-989.467000752702,-1030.27902761987,-641.674157988738,-878.044242877926,-490.2038359783,-681.845225163034,-737.681727590895,-601.259050837837,-664.154959850219,-677.356263572432,-633.422376508994,0,-569.817014214986,-628.613482900827,-620.961281571314,-527.837965082804,-530.907942060871,-590.790439819174,-595.494423631455,-572.114514412006,-545.832030784066,-496.278467050306,-378.936907874707,748.237936289475,1592.63295690693,977.276335870591,1429.86080945617,2135.30932661092,867.289520982351,1527.33276589223,505.291672442281,963.956702157924,1308.22936286552,1419.93825199451,344.147265350352,983.660498820702,-457.367592735791,357.878433114185,954.563102286459,-184.550380628913,-547.747054900579,-183.265221721492
-821.403799169456,-65.5311376572097,-1196.06768684668,-1205.08109345238,-1054.00853566324,-1264.80595351348,-1521.04788094145,-1666.81079467711,-1575.95783909214,-1955.15868479127,-1945.01646304289,-1485.29562961736,-2221.75542774067,-2163.04824489701,-1030.43372501271,-1625.88239592602,0,-1133.92044099082,-1440.81549369971,-752.555265706196,-1126.591413915,-444.594110468025,-851.614318508187,-993.629838290926,-433.639368269901,-736.68909622364,-303.782012426382,-554.866888513506,-648.039050510538,-448.900419086057,-549.833614912765,-605.826753055455,-603.645096330854,0,-461.735483515687,-549.183165227418,-570.850785240337,-527.847936284475,-430.849288407938,-530.831935533774,-565.621164584158,-568.256558962114,-532.690809026778,-522.128927579452,-439.63536513049,338.432936825084,753.853569212891,472.622120717573,700.193195074923,1240.83201573612,368.401696326965,844.948843149516,168.225834897383,416.103094140135,662.941296206504,763.235962160058,-23.1605248078595,426.573049579692,-603.223191647444,-55.6037595629585,473.999610782098,-661.33392499515,-698.589029980243,-408.557178356686
-680.670093905897,161.8476376004,-1073.14621560881,-1059.50898137499,-827.931563839085,-1132.34630756081,-1418.58699321954,-1512.8609288337,-1476.18943787091,-1904.62473613862,-1830.88998349487,-1321.08952007944,-2147.28565981008,-2174.604501159,-816.835779866069,-1544.0812452607,0,-970.516236507121,-1448.05131772433,-497.342718013527,-1067.21553221238,-204.491954638007,-708.883617226262,-959.632903925134,-250.758454740079,-610.096077965805,-141.13507730016,-437.159947683797,-574.367378962378,-323.550205681328,-450.867244868268,-553.26863416395,-592.428883783053,0,-374.812949500508,-494.399393110556,-547.968895435115,-547.120083208299,-350.568218095407,-490.076574129717,-561.78205253646,-589.036081206399,-545.722574562598,-573.232708865321,-543.068987980542,-25.3029798236293,174.392176564258,101.742758527553,236.317916697916,580.079395410377,6.7231001319979,399.71873386409,-105.262650162916,56.4809135641929,194.213305812007,261.626631424349,-300.534938376493,4.00085351047067,-685.534617651416,-308.148386782178,155.103954346858,-971.150833215809,-722.950833477036,-524.37224756015
-472.259249230361,359.203852934549,-823.862074822262,-831.078570144098,-557.999271514022,-836.60299402268,-1148.58255855584,-1236.65621753748,-1183.4219182746,-1677.55320318626,-1557.80565618489,-982.434065374161,-1819.78258693119,-2049.94547905194,-567.245765239822,-1320.44612760596,0,-762.451619396995,-1352.7516114932,-258.383615720131,-952.475378249919,4.59486603641079,-527.352687864026,-860.245519049627,-83.6454613323983,-450.168106937998,1.64159621475936,-290.936379833846,-460.775703326027,-190.620491356418,-320.821393163211,-455.804896332972,-531.853478080614,0,-269.283951730935,-398.874717122284,-487.41006684838,-530.858086969105,-250.027948228199,-402.93166374874,-501.233219555554,-559.401988943015,-508.58142984279,-569.165085296805,-611.627794550451,-178.979595357454,-142.352717591987,-96.6802251676349,-45.4579288269689,195.247892460355,-168.643153346367,125.203464930025,-257.332811074197,-75.1269287136002,-76.1265613800335,-123.090260810809,-393.877507466212,-323.350034704508,-624.444551430382,-320.165242575504,11.4696752294757,-1245.11842860875,-574.368490396321,-691.768749992082
-288.107982284643,401.488394124562,-513.645432148552,-649.479533818274,-409.138731810103,-422.443767203803,-796.158838243905,-989.695247244999,-737.08160522368,-1361.80987098605,-1327.77842506065,-485.175103902845,-1282.05196622419,-1848.82410686291,-255.860441703913,-948.06928236424,0,-486.114248006675,-1138.75607167012,-46.4484676802658,-774.922131287583,159.914828045768,-334.94387845855,-695.046278756823,44.2638189929669,-282.295659191223,102.707954302945,-148.116478819959,-324.444230493144,-62.6969281618047,-185.810557701912,-326.543847807077,-436.719411018375,0,-158.393630354403,-275.521079689167,-395.735033159591,-485.40669131498,-136.632769505445,-279.576789257178,-397.673201916857,-489.454682205357,-413.722042403533,-513.780903747711,-627.433427229094,-227.441626439273,-430.620581312051,-266.112291128085,-378.718359022453,-123.65528144896,-251.062034626499,-169.728892368401,-275.810166943382,-108.83709949947,-264.726625788093,-462.710715925298,-319.579547032732,-588.297294460378,-395.753919181058,-178.380716472702,-93.3357414000161,-1500.50207148135,-309.155802370779,-947.165314570147
-108.090716860522,407.940646085253,-195.410749464413,-484.767266966481,-310.189010229752,1.91914956468789,-433.739642617572,-765.308968766755,-241.144609319355,-1000.71419852752,-1125.98568706708,39.8632514425551,-688.815192878726,-1554.77343174883,76.0800033327908,-556.895692034187,0,-206.030516255495,-894.555406313301,118.955215485305,-590.706501325062,244.241552299626,-195.11818955689,-526.362161453707,110.051106252816,-169.391139944657,143.462041642596,-66.5021406330316,-225.955855849356,17.2337385253107,-104.335792188749,-233.108676610937,-356.687785293697,0,-82.0524783717909,-188.854987748681,-317.696310302755,-432.345375927395,-51.0403626939146,-179.930941432596,-316.377558573419,-425.058811110991,-308.422721225037,-446.071410397453,-596.573634814687,-331.616835105846,-746.346085406842,-494.270904781602,-753.362528622024,-465.86589016086,-339.0737419743,-514.217244167776,-235.615790313388,-203.400527564965,-468.177199309174,-747.528001731556,-245.408343844724,-779.357253023938,-164.429989006529,-93.0855758898144,-266.24847139982,-1636.22117191493,-99.6376564116585,-1157.33957699219
45.1588321140684,495.79930239944,17.73951027649,-304.408731011553,-135.780708679162,275.994759357321,-148.701622570289,-510.947599211904,152.311170616489,-626.602357163957,-845.301249729147,414.846105169894,-189.932147844996,-1172.93845691356,298.73783620207,-296.545718624957,0,-48.7609381100988,-741.774306161835,176.718841197479,-478.782071398955,235.801466665009,-164.674017905438,-433.006327352427,100.66288215991,-153.041461447519,118.84051043927,-73.0517118191243,-202.568109531711,19.6330366748834,-104.556609568733,-219.182712856794,-321.051943070171,0,-67.9517311158774,-177.761995178984,-289.619923505632,-390.413077890309,-27.845970980869,-146.771005589085,-287.649537751202,-389.552785476843,-235.579146670121,-394.946495000085,-545.848303183927,-468.075171690482,-943.488371714555,-717.26557733959,-997.470113989134,-726.705086969416,-458.597617171353,-823.555888461002,-254.442700939285,-405.474705001316,-710.450225761105,-985.06549834683,-323.277763332132,-927.378229447029,-124.097300523205,-192.624725093397,-503.388037150968,-1683.03774278381,-85.2496693723714,-1261.24174261033
85.607773041344,590.054252756282,56.4967390126089,-185.970624777034,73.301300327765,351.462672809456,-8.21365212456174,-286.234636132264,367.361321736851,-303.810927746993,-539.067087952215,610.803769376423,177.10739891547,-785.524849253127,355.644536901143,-171.915925667089,0,-52.8241302572887,-704.170238640384,102.764856545497,-470.877909328406,137.996233094772,-247.841880505099,-453.444400683184,13.468839775546,-228.870370037566,35.6102711400452,-155.045151175016,-254.658483137583,-52.1788708046652,-172.98845326214,-270.869773119342,-340.491944478927,0,-118.572417044788,-227.545965941969,-318.798954700263,-385.245974400523,-61.4604928689589,-172.612743987543,-299.812889811627,-385.87926908536,-206.369127814342,-371.583994046245,-510.789923506757,-521.273323867299,-996.647654684669,-864.524335913172,-1112.40199933564,-851.101035316576,-575.150299417688,-1084.98798608477,-339.852392596459,-630.937250271622,-989.245544900545,-1241.89106942848,-492.621371882954,-1098.25701018704,-225.72576890134,-402.986822515175,-738.016948293039,-1798.41789478825,-206.182717382186,-1332.91157682149
-29.4299860770889,508.493090844373,-26.4818477525952,-240.387171981645,127.01143932188,334.676166580085,-13.6729373525075,-233.398115333922,448.451479743135,-118.442538079134,-397.029175920095,733.98170589503,426.876786481604,-492.986510355676,343.707964202901,-108.447733024888,0,-124.299610905026,-722.009965952603,-22.6851771519949,-537.961036962676,6.67466339658192,-387.687733876439,-557.972774867353,-122.9299508748,-356.398105813712,-84.0861908301298,-279.740848620362,-361.929326528166,-167.874635370323,-277.081998473295,-351.672288515858,-402.058751784616,0,-213.056925758505,-303.116758675043,-380.984280270942,-420.37455299909,-122.806402604579,-227.220458586743,-343.823253660646,-411.030313685635,-226.129843047045,-375.804486052478,-496.341686802591,-474.230405228935,-1073.5506645891,-943.777604545823,-1254.54448471967,-946.191116344428,-646.048857413249,-1357.09748761305,-398.571355572447,-784.302263422377,-1294.89755079718,-1556.85507848078,-582.356803456377,-1322.37813636413,-265.965109942483,-588.8938492037,-948.583192044969,-2016.75301926467,-309.501142480496,-1440.40854565304
-301.24305025067,144.957585194252,-194.438413050459,-513.931964600413,-126.87877161025,263.867039481829,-169.130187485359,-430.69684476952,396.020978011336,-159.122309105596,-504.01838217741,766.410034369093,452.189124184797,-373.672519277913,311.806943023986,-165.891059575671,0,-227.211468640058,-831.432021511262,-147.287870075438,-680.341384592351,-128.689508853497,-550.450851467912,-728.990965741298,-289.991726449084,-522.572290335373,-239.01613823495,-439.213604937475,-525.477179663203,-318.852016263272,-418.78911980421,-475.57855674307,-514.684721923849,0,-347.192888830962,-416.083913912105,-480.434897418314,-501.527380844607,-225.941493595859,-321.683518424039,-441.245271178881,-481.11246793679,-306.762881462954,-422.518497728755,-503.520961195607,-374.475177137999,-1215.53558180671,-933.658493554955,-1418.98844477333,-1059.63966843776,-642.398222574655,-1608.84685622196,-386.217556009803,-834.540545955015,-1565.56103116867,-1863.98480411658,-547.805294851852,-1589.71965658653,-197.297866141439,-708.196985206164,-1203.4977041069,-2230.73726576345,-375.470902880847,-1627.74011101972
-617.151307432028,-327.16741716607,-396.202032710719,-850.543097619944,-539.965091762461,120.985454793758,-405.097249566884,-713.23474424436,215.754614297605,-341.459732502293,-652.541136315962,629.496883415508,216.985919387473,-351.457017024654,199.483146895323,-403.17068877061,0,-408.717433316786,-1079.33119938232,-303.281232866668,-888.246013019517,-280.936201722406,-719.698813927017,-955.665537366589,-473.581634513418,-712.842538109058,-420.619251951607,-616.01533432428,-728.66654041074,-493.284531449088,-595.230835745212,-653.081070690039,-683.795624257754,0,-509.06489796008,-573.795910031444,-623.8546882228,-624.502355833546,-376.638157120559,-459.896657830555,-574.540351333706,-589.120221868187,-406.978059782068,-493.150352351244,-519.346050769705,-222.9656302867,-1180.93915185853,-746.751342042584,-1372.9197040323,-1023.61119386642,-519.567618578457,-1643.4312706225,-296.565820958932,-741.499673515189,-1632.17142788693,-1949.01268465032,-429.6438899752,-1762.81357933967,-110.006976503602,-722.474440718296,-1453.88916896583,-2260.64410718099,-436.832203354836,-1819.95562067467
-683.94430044478,-490.28156857895,-421.499314877951,-896.09719772752,-676.820228554567,56.2837567443806,-457.152413738055,-715.672487371479,131.026259686842,-315.858208237923,-482.512884193637,481.660696624012,70.9941019509215,-127.783973553681,43.6832396725643,-594.241559093283,0,-590.046260319978,-1270.25749464029,-477.361716993325,-1030.91554774497,-434.395547359257,-824.034683497226,-1135.36655516396,-623.422639923654,-852.994709846386,-576.774208128582,-749.270598560334,-891.424400084043,-637.099699411344,-743.611628172253,-810.866278488317,-833.012616718694,0,-644.783993495696,-711.392572210904,-747.111596092183,-721.267189325318,-513.593085561464,-583.348044724171,-669.084818775948,-667.701552228322,-461.629729029025,-521.632011872489,-492.630133995804,-23.9535786554264,-764.982235141695,-384.488158232697,-954.216782117795,-671.244197421368,-233.177969092498,-1278.23274279994,-73.6462007579599,-437.906296870918,-1314.51101206582,-1574.59644719328,-191.820886834671,-1570.39583489753,7.36922479826069,-514.094355032622,-1398.66938888448,-1865.44866617795,-380.901470933461,-1701.57795939318
-316.9400916136,-109.78839355695,-119.075753375796,-455.526902013691,-277.956247856786,225.643065058915,-121.336152660852,-247.082340268552,364.75415967812,170.949827681321,128.511034887399,551.171338811291,405.134086706158,510.68057520432,-17.8712825233103,-442.306221291266,0,-601.54919065546,-1130.89542613103,-595.359817848331,-976.122550049749,-563.106236430669,-812.749132736672,-1145.81860682825,-712.250817744907,-892.690419724309,-683.515078857427,-812.37159845057,-958.296132533268,-727.623860637443,-821.507267391915,-881.412818327981,-881.613141720786,0,-732.342307419827,-781.95255196356,-788.632647742595,-727.871700964665,-608.599000338444,-662.698890569972,-699.352013024399,-672.763062678797,-490.092684583224,-506.036463543525,-407.963580570396,152.575938088703,-121.608219196134,-8.73684602979256,-318.824084174501,-105.145680278793,148.608611388712,-617.938151205544,287.542700459315,14.2381760610786,-688.30189983359,-809.519034457671,180.519997485619,-979.572181404835,228.644942645942,-71.9055995327953,-880.272800687579,-1024.50374159644,-100.200994295545,-1083.54805728068
295.012735887286,596.509357497738,344.024932455439,267.936212438996,468.530794673992,502.27756443112,447.738987189436,514.614988940592,783.090995873464,939.67271348087,987.193311064397,760.96777966215,1090.48653909433,1423.45933609584,35.4336991156017,3.96062331353305,0,-428.217638752122,-667.175619765269,-619.750824473706,-750.979345803755,-649.385100357542,-715.451762118528,-968.229780613369,-740.941773236734,-838.251470094664,-739.282425338186,-807.400772793456,-916.64114290283,-765.755872931079,-819.704641937992,-844.701757996473,-807.039630241771,0,-768.49219430661,-774.311419772015,-732.216662454131,-626.760022542268,-666.937106436909,-693.135412368543,-668.019801896229,-596.746887058805,-507.075899165467,-467.173964670748,-276.794528479868,320.218241995131,459.48246998561,288.334870542209,267.518951122092,425.017581487347,489.736640460102,45.4244462478187,663.37747021336,449.357173149639,-49.7780530868443,-13.8109744540922,571.498069217621,-307.976667116924,516.133769969556,411.09413615385,-190.582480540983,-88.2435758176888,289.954405884134,-248.402122755906
824.797686396523,1264.09688616342,689.127173388958,942.474912270078,1248.85132222322,641.456159983806,929.792891288053,1289.08156301855,1067.06994466515,1620.05798523531,1881.47398994222,845.829331918611,1657.48773801351,2307.00062021013,66.3740538767534,428.284643929369,0,-231.698485161731,-124.85134210368,-586.743123829837,-475.400845438748,-676.020796404642,-566.49791616677,-658.506837890646,-686.796921080385,-683.83204519797,-704.380769431218,-695.570590980953,-724.703563266459,-700.139305568636,-689.292124752682,-653.382950571887,-576.306677315588,0,-684.894027205726,-628.85480999453,-533.272178987594,-374.999812852998,-625.854717628638,-597.17930748937,-506.247505658498,-382.017527084759,-403.042556346163,-310.063465593549,-38.7407112016263,644.342032918721,922.297792215815,648.350895527452,769.296082108789,787.551525055955,779.445146056497,576.947321854433,928.257724597748,814.016478102406,463.51429310015,584.176408103679,851.164553136504,248.654946053888,740.374698939721,736.007098602423,325.844072131527,636.930216265488,572.72405335388,429.022249616268
1150.36368470258,1744.6616169017,840.613725370282,1427.27614713575,1903.66157630191,591.702050695843,1195.65198580314,1912.37681592564,1110.24460973993,2039.01539827117,2631.31102513569,719.742952438587,1877.78031586706,2933.26636816069,-35.9757959140869,649.90372262297,0,-143.716665614884,293.771539792686,-577.101018230765,-240.120595569517,-681.225152781288,-398.965258687706,-316.135684725832,-574.458078812889,-465.342555862677,-592.652853172858,-494.156791136393,-415.236294940441,-532.281386027295,-444.218418636599,-330.284587659454,-219.643174929702,0,-469.024257638653,-350.083699544931,-202.395868746589,8.71546560924152,-463.395107406886,-356.168926696923,-200.430927492194,-28.1110938392115,-133.837435029813,15.214676476175,323.292760795934,1111.70268507721,1345.0321648162,1139.84237057216,1261.94010917881,1000.57901579,1045.9401684889,1011.11627998805,1019.82578298592,1109.44357740535,923.578440488403,1023.51476168797,952.843987908558,775.72185497255,791.588983472923,847.156730196188,669.49216387398,1165.77127431617,658.546263613913,911.273144395035
1342.87939689525,2040.53710323066,911.904249215572,1736.74203532238,2317.57243377874,499.338875800781,1333.29070118857,2277.00218291562,1070.36859808586,2238.74622248169,2977.72079816132,534.187583380589,1901.70518953648,3182.23370964627,-190.500952514319,767.069423370827,0,-109.292027917787,564.879547426333,-600.714446844079,-55.5895590636399,-713.663948230342,-258.679447851624,-53.6945575612591,-489.970672521047,-290.607956921555,-508.098881075179,-329.910431409785,-164.390940307742,-385.216506858689,-234.417940580076,-62.4672601091296,72.9493788761292,0,-265.181303763397,-106.98877613884,85.0480701567317,323.465643182906,-299.988904718588,-129.417918041578,75.8951299228736,273.640329719524,126.174680092325,322.225780078871,623.336043803385,1359.23077821612,1712.23723231852,1506.01249989156,1683.15667858085,1201.21098173143,1175.15537277235,1395.16395541829,919.717280078234,1262.35293451416,1365.04028936615,1438.86914648589,881.364451049511,1331.67340408922,677.79728524298,827.864494243859,1018.31416371612,1632.64879013368,638.433389998529,1355.85288522832
1407.40163364745,2072.43869281226,947.181553489528,1836.03635309608,2342.9819841881,446.950357843367,1392.70575970122,2299.63922015673,1057.65724614036,2264.4128053036,2801.28157129537,399.31148378724,1886.89925162471,3074.1847724964,-240.72001610618,893.801682803649,0,-8.74644109264522,751.485746797412,-573.206753397284,110.000154254679,-744.053292827091,-160.161555616607,98.2435775009404,-463.76097728287,-212.721160433236,-505.567136348626,-280.330480506858,-86.4435672287461,-344.079060131604,-164.632553772868,11.1376599914097,148.553798243099,0,-194.92547560418,-32.5367986754883,174.847145020612,391.411236336868,-240.943161164275,-53.4424986720497,161.849928476987,347.395844557446,213.926141099769,412.881008206333,666.207878403961,1128.66563647988,1923.74606460253,1490.53897447828,1901.27247573187,1489.63506911893,1053.12216872386,1727.60301885911,672.896238014877,1220.1945594901,1697.32752432864,1868.30192446384,698.240135552854,1789.16566911329,480.601534678737,761.795782345985,1346.81808335161,2020.8949523856,587.759137179697,1736.791378106
1179.91935266881,1698.815884204,778.268263925169,1597.21850331103,1928.7893998454,278.338495740746,1227.58463898263,1978.73729965582,890.619519083469,2039.33757605225,2307.15570652785,172.968859425821,1674.01350944822,2741.23102551714,-237.593916867039,897.565260715215,0,88.2812183898383,831.899756863477,-495.156900450627,215.010438500885,-749.522696250502,-119.977840465358,173.400274366033,-467.012959924574,-200.9216752545,-546.835308192541,-301.554935314706,-112.247855406882,-371.419181880001,-184.509453810539,-30.824405851427,87.9040708704221,0,-219.617112597702,-66.4718935920426,129.797323909468,292.339749326697,-259.357142175879,-78.5233574992044,119.056450798164,266.7487403676,183.405918704412,343.906975883338,521.77587643525,645.10595694199,1850.35049896753,1175.20059866472,1834.05954044434,1662.2655133848,729.500349991893,1877.94693297078,339.805007425612,982.813226506404,1760.35573611214,2107.42620186492,399.895709722372,1907.71762614466,171.442173023437,537.069915897788,1364.21284178325,2085.7362230189,363.362670321163,1752.64057388794
605.713126236134,980.762445434385,291.694164655145,1028.42866289282,1246.67505929637,-151.355192573788,730.897584117896,1442.27801293246,371.802252904069,1511.55154527645,1807.66150104481,-301.094229837287,1035.44457488089,2299.54650063022,-371.294496608558,600.128264892561,0,20.4881014121572,732.365697984497,-462.467343757474,194.621055015764,-755.665223373188,-155.475436810842,186.261388517804,-475.790179860073,-216.907803789949,-575.744698429765,-325.624067418483,-135.331923570353,-397.346501381343,-204.769534234993,-52.8182577294237,55.0088995780002,0,-245.343350081812,-93.1694784349146,94.261861164983,213.083104615441,-278.757094907202,-98.3075029426285,88.5820764273227,203.466859333266,159.070428114181,282.137090858367,398.121207681515,287.592255261874,1444.42372478905,810.577954137577,1496.52092631233,1422.89853920665,344.026269905401,1699.49349794397,-32.300999216154,591.349525521956,1505.9533107631,1943.02958619407,-34.6297143668719,1607.58839660798,-295.833182360463,46.450329102103,964.477324496501,1686.31269455849,-137.139662311535,1267.8011981321
-33.0868604129305,261.71991872312,-278.986232868153,414.505187344325,615.832166439812,-661.508867342149,113.408755610461,914.535932793832,-309.577363398367,856.408409967938,1442.13161267249,-865.162121876219,154.354132061605,1802.93686262046,-629.104247954144,130.561359064439,0,-159.648745367289,518.61790223584,-465.661023929685,120.553662117216,-740.333952753692,-196.532381259411,166.042964968188,-456.739493174888,-217.415978248693,-552.55273518172,-316.939451402356,-127.491305172457,-386.256379068097,-197.266580504948,-38.6817708244935,72.2422821905918,0,-239.702584923461,-94.3250339766015,89.8707749396684,191.443279974556,-268.691529549002,-99.918308778015,78.6193121137317,183.278803403543,143.323515748901,249.335684466435,339.202334408235,129.631054588464,909.527013437912,539.234717859012,1065.94601547871,891.186163441894,41.467981429506,1299.36905894363,-327.411098523193,219.341806629493,1133.87735130814,1520.80891367784,-414.234296351149,1160.92760119464,-707.834400271998,-430.492873311676,498.716534834973,1108.43035736675,-609.815177212824,645.652825795246
-354.982778857801,-92.0498192673152,-563.900705721592,91.5931686387334,290.263973907421,-927.418173530544,-265.446775007129,598.289341426903,-746.734668449819,380.325208277996,1195.34405954882,-1207.99415002073,-473.8108381891,1328.45091234527,-794.539341131534,-184.354772437928,0,-241.919455496944,383.872174376935,-395.779736394431,133.06096853342,-645.652687258919,-130.844310258012,201.590469928611,-370.052963929957,-146.225387586957,-469.195593308919,-256.238044589115,-80.2906752496677,-332.112793720254,-162.219949336803,-16.9378110108916,91.7792731162058,0,-212.318660742179,-91.6528386622696,81.5508785184693,176.23118594605,-244.477946783826,-109.829436874884,49.4745391702807,158.779181035896,94.8485657806253,191.324317529439,271.639043861778,66.6438647142782,601.139313829244,425.554537187132,805.792811886781,521.488442248448,-36.2841217801541,981.719647297598,-369.027117354772,116.653349877277,907.949858607383,1176.50239406819,-425.244714373856,903.972027990566,-725.626372323599,-463.202270333778,335.51684277125,735.785561253659,-626.488159769623,324.056561631279
-211.861225254248,51.8305184398766,-419.628416085692,197.51526129695,351.513566508884,-824.941217974276,-223.727350893497,603.309459767395,-735.05650028897,285.25605662007,1104.74537612594,-1195.4025592393,-547.342809923802,1059.08142152286,-731.699256457598,-151.666544830938,0,-110.815500988149,483.834817182269,-204.955218374535,302.96575597329,-454.130974503157,76.3656728983289,397.822200571883,-201.633487407678,37.8390799088441,-335.277321129094,-118.049298409319,65.8094567328821,-219.215124318438,-56.4834200650658,76.8331328910864,180.356906008597,0,-134.75028484698,-26.8883519511537,140.403785445622,217.117448934243,-190.557931848168,-71.3131630118468,81.2901332905382,194.902967746268,90.0890909602942,174.118676466601,240.987456354055,148.330875930152,647.212121215005,549.612395202421,830.481899319447,509.837157925914,192.421028106598,917.164989344216,-78.0669929886916,386.357960920754,922.769090452864,1014.68938903403,12.5042218072945,897.501983924683,-275.772481458159,-2.67405044069035,478.470392315166,617.021201484654,-155.006968433409,345.252726339038
263.812225983162,511.158945606988,37.5053088861518,628.633493824623,678.714748014716,-444.110671104267,162.287188347767,886.408622366397,-355.015871756565,553.220334377667,1224.88912991259,-884.588701310626,-149.395075410332,1137.32446942699,-484.160641103756,216.480797736951,0,200.280457501879,867.769627346107,60.8616090150791,637.237070178335,-191.078707460785,371.067217206287,791.21057065643,33.885806633065,330.813114560295,-141.533547505113,113.840951947606,354.578344191975,-18.7656496902549,170.592814374381,322.888077178289,430.758955778911,0,49.0645531013028,180.629061537169,359.121718753639,398.183613721473,-44.5481186939585,102.219247431188,268.397369508615,380.668379046607,235.555192857684,300.82505476026,343.470066563025,439.270622324953,826.48947761861,866.511862344976,1004.85690863437,606.603204056917,621.658656287938,1005.80718531123,395.526293292519,877.323357561241,1102.20276615493,891.254454217422,651.360645151581,1016.61030457769,390.972608313103,658.711908928501,771.615380478058,611.865092601212,502.793556956094,529.985110552015
790.469933231863,914.336894337597,575.966585692709,1104.2321608629,979.404847091818,53.3856300590714,647.790006654709,1215.69937365023,172.730536846044,956.201587787928,1421.4771189437,-401.284952628785,430.47367150362,1431.36257771938,-163.088139774011,771.670850688941,0,578.56276171787,1442.20178614722,326.829813623799,1070.39489810122,89.3919640762693,665.006899406664,1285.08503630081,295.563988335258,661.272669804269,106.435926554931,397.590420849016,709.833784557948,247.290333195575,469.241014937438,653.280617275009,759.973073097662,0,316.400988668437,478.071587506275,661.186214488865,661.124292681095,189.934818794107,372.090376156294,544.143861568529,643.043702274961,481.468576234112,520.151786528468,522.916099581374,704.654472178782,863.586699648218,1083.17481097095,1078.65952543171,511.101743346652,927.099549115786,1007.07623130287,725.818397566934,1273.14843370862,1263.11554516501,665.846921451081,1137.63674854556,1139.29161707606,945.49139579202,1249.64662717168,1107.14346001914,661.722377411843,1085.30160111746,774.279920110896
1124.42666579045,1027.7832437417,987.410662667595,1363.13762837051,1035.1357434903,520.189827168412,1001.21812427673,1359.56017227799,651.494368220255,1239.51319494556,1491.39020204287,131.919713135716,945.12790199566,1651.87768497097,195.994946441892,1324.746917282,0,953.322056758406,2007.54684126867,593.632397038433,1493.5954379658,369.623129379813,927.628672160493,1726.27352451001,567.494851521685,962.527415545601,382.833807580937,674.880972679314,1013.07590467101,526.23343087378,743.849893254379,929.584376283232,1003.52672684965,0,582.168826300232,737.111327084491,890.968452367836,864.555274981005,431.113034067744,620.623219995787,779.05972118702,836.171804127798,694.14893599359,700.045253665703,643.481482899247,567.196314437283,625.20774165879,883.203474000754,848.759278953868,149.058756511729,801.895278025556,712.407124876297,677.615845041912,1293.01378746163,1163.24368336764,282.081994664309,1254.1322668355,1109.4974563305,1191.99683484156,1587.53741973239,1318.1015259922,677.439192978633,1451.54161507521,976.090129240503
1193.63991416114,895.217829729478,1189.89721655301,1356.93769685687,896.374889096579,872.763219223548,1167.42732095186,1302.44775269505,1010.19291156901,1329.82842605279,1408.18477423565,627.470814736841,1310.30178531213,1663.01668302326,629.418159469743,1772.88730033853,0,1350.10845888737,2434.16479937703,947.39851258481,1871.46562798321,711.2821956507,1220.25816216108,2057.75329634979,892.60156223498,1259.65011988082,696.059868784388,952.617959944306,1252.01520188753,815.863315288836,993.534145658795,1131.35796086245,1139.32921847491,0,827.234551557852,940.01470896717,1031.59083630512,961.465850420074,653.465563611031,822.49982631473,949.048277244232,934.856625562055,839.473460801546,802.938754618974,668.560431183426,-47.5216537951859,66.0213248005148,250.295762654913,246.661643617452,-416.801476383264,260.968601995242,64.6402624795055,323.160589692719,869.12596520493,632.096327251148,-289.561733219727,1012.92600750556,718.797544752526,1135.55512725158,1511.22786763737,1145.44105937186,420.86377436924,1500.60335643823,913.837622513772
1014.13724009982,596.255436489464,1165.3350360692,1147.72717352362,687.439014528381,1042.10350217218,1170.08110225921,1123.46618402467,1201.55487157446,1253.46039882723,1217.05844880227,968.846714215025,1474.87705835964,1475.38052473235,1053.41108663289,2057.30940875537,0,1720.11140022046,2681.26812911266,1348.79370035064,2186.1422861306,1089.71455668155,1533.28207147468,2277.22373528107,1234.73647077012,1554.42606281114,1011.7918065357,1214.75594853084,1443.09023728418,1089.32204995524,1223.27513449251,1284.93196277541,1214.3091993238,0,1050.00877380089,1110.96788875525,1122.41474262301,972.772547595231,858.998727821304,991.646235319489,1059.52395548745,969.080800113718,925.929663267411,831.067255961561,615.975929052568,-813.944792469614,-750.146832548401,-549.293605573841,-617.117945375145,-1104.92918735329,-409.522330558579,-814.909145569736,-100.83861122296,135.817588908225,-275.156788027085,-1048.55367523803,551.585859338233,-99.8561787210135,875.921324158384,964.340550252502,461.001116205484,-242.049676004438,1191.13692963135,410.126206405688
583.121556348211,116.723489163726,878.918295557938,744.344038455211,393.046315307268,938.971943284581,956.202270728827,814.594680946325,1114.58259441657,979.962852281458,889.054211220781,1020.47662361462,1325.9901838663,1091.28249863073,1266.10969230932,2083.88789014292,0,1892.81204740748,2680.77639003433,1582.31659973839,2331.07484318253,1317.47413068345,1708.85281971809,2319.02167253995,1420.76470277489,1718.02316761907,1196.66964985089,1345.03284878402,1503.05921998438,1230.12167808246,1321.19531934097,1312.84349041711,1169.61428484506,0,1157.80491918344,1161.98890935342,1088.13653317571,863.485000749754,967.893962227055,1045.77638991229,1031.31952518104,880.612281687074,881.47240070685,715.086753497764,438.716597374197,-1327.08690393408,-1583.36762572896,-1220.77445480318,-1478.71511900774,-1818.69850200437,-953.880816799296,-1690.76159419401,-453.521566136534,-686.927536772103,-1257.76537714517,-1866.47271335918,4.17926248809436,-1085.92686696857,477.165454718718,130.302666419363,-519.465550166993,-1085.23234498905,605.38427325023,-416.0877711147
21.8881506024991,-450.743432451321,430.812704580947,234.33823867274,5.86766405606359,623.273934461118,550.485423114127,406.681684914266,782.127260131087,552.700188673581,461.582043798011,832.717099628779,908.471260332022,591.732083907338,1234.45104163969,1868.88147835929,0,1829.52378871623,2437.18814006069,1561.75321655694,2251.0742004029,1311.98926726095,1664.79128913787,2159.45906159126,1378.32144983162,1664.45440310619,1199.48361758331,1289.25032485837,1379.26424007476,1191.85403509883,1224.72016411707,1157.80490173467,960.379037525419,0,1092.30021560497,1028.15764603969,877.49881266437,613.474680173091,931.735393467184,925.550448601387,821.293133633628,628.962639142016,666.068991609461,424.148818698385,109.192878527562,-1394.52914977014,-2168.1693159272,-1581.23865893098,-2067.66893075598,-2437.05824626722,-1248.64493242303,-2325.56451807944,-674.612885227143,-1341.15711140486,-1975.76627787028,-2466.89455425801,-471.069961606124,-1822.55135695132,39.2134412924986,-604.295150695647,-1351.29752086745,-1730.94962035421,-22.3975883063202,-1197.79395037973
-370.724336572293,-856.483940329441,95.6133184562513,-136.082097199091,-339.239441382792,346.9315643808,181.661461887195,63.8924481552142,460.392417971614,178.338876119887,82.334800531427,630.152518917908,487.415755341422,172.875898132456,1110.11546845154,1569.70419679267,0,1654.39578048599,2104.77075172116,1415.54708166048,2030.44830734416,1198.34127564785,1491.5503554253,1907.97460848019,1226.0090674655,1474.76248897919,1112.65767891243,1134.47097531879,1169.9922487653,1060.45227689739,1038.27309854532,919.911271642163,709.718347300933,0,931.003560155097,805.187594354868,608.221419093776,336.376626970491,815.231183187733,713.959558900769,543.045974506598,330.633495561688,383.159995992698,80.647036779343,-249.955020503887,-1087.48296416893,-2413.83876641319,-1584.27031915367,-2266.736705628,-2801.35568032415,-1245.18084107063,-2591.13695062044,-690.385085340843,-1613.88782812576,-2299.46716627602,-2661.04983542121,-691.688457306827,-2151.13734405087,-250.125783801182,-938.657367829108,-1741.36501235479,-2064.97944405172,-426.541843134754,-1669.90394733149
-401.256103446694,-933.83254553898,39.214407473032,-189.910321824317,-491.07629226035,271.644189671558,57.2604471923916,-69.8443016946104,322.425558032049,24.7427438008258,-139.709393851661,507.383900668707,237.29000778625,-42.3208457898237,963.29938580155,1273.37421133172,0,1423.40679421378,1805.80281015218,1227.57610127451,1752.55644684778,1055.99663279833,1275.03111917709,1665.26141486615,1049.20067090145,1259.47585643194,982.355737042108,963.049644550096,1000.62524458677,899.654435981338,873.835560637748,747.563328312214,593.790553884017,0,762.270637639883,625.879312783759,441.857772704939,216.386874509074,670.743857563662,522.436027733429,364.133786723381,176.186336057181,176.72075416138,-130.560202349464,-421.011208368567,-650.911156902852,-2340.96393396967,-1329.92525047381,-2110.64176967268,-2689.61287714486,-981.921206818459,-2456.47531278586,-475.2773214043,-1484.92769800437,-2263.08456225066,-2448.84913800747,-592.000498121329,-2163.95137607826,-277.750230491802,-878.453138810003,-1683.02650320597,-2154.33183843275,-512.147924764226,-1784.60409243232
-173.987230858864,-758.917089589915,178.733249857845,12.4920369570325,-425.08633185626,339.539863436658,168.383745217205,11.1548625582135,321.982424633565,83.6923614772501,-172.883678864647,408.234549112702,147.599787691528,-72.7038608029437,796.846613305969,993.245146010144,0,1153.92577726308,1556.1359957492,1008.11601614592,1467.42356846351,869.992327413969,1057.66890428125,1447.38506248333,852.278195650429,1074.92772143858,798.797681237457,811.9578463861,916.096627059251,732.368891645737,765.301596055497,713.28549503585,675.076560138245,0,628.965784402504,555.520815996996,455.353566711028,353.28706851667,522.536592555579,416.045173510121,364.343731690799,266.361095693141,126.627115464997,-97.821760489943,-263.125299709168,-350.093718087091,-1996.95213791779,-1032.11279452366,-1749.52062368982,-2025.55426739953,-618.812630844682,-1979.27959162471,-135.513042617918,-1167.33819321804,-1931.42793409625,-1857.65570858229,-335.395815756343,-1871.26260875132,-147.343273666449,-665.22179796043,-1306.38542670603,-1871.59558004433,-423.254018356529,-1528.36249511625
55.9259334329883,-581.152796005014,343.450822850974,249.683475966105,-279.900812166835,447.750851199203,355.287724329262,174.032587978222,385.270581499084,230.843462552004,-62.9076317515103,369.758329697327,200.731510978903,-4.79838973350478,707.789453898841,811.28209992722,0,959.815400947706,1365.87333868836,845.976160620315,1251.50298325002,702.264689356291,914.566232365109,1262.67976725249,696.781763242122,958.950356797782,629.781953306962,726.165627024171,900.555677720899,615.825668715598,724.567512660626,790.826091591882,873.079709933533,0,570.251395268781,597.337711949374,616.132448833466,660.040039688307,432.317548109453,426.586130982852,505.35579715666,529.778230171844,229.649934885691,148.70979783001,155.386322305038,-317.950503157578,-1519.52107459531,-894.683293914982,-1405.24258463503,-1150.78491800316,-396.451889289909,-1384.43122332202,84.4572625804358,-963.593859536418,-1469.03706478873,-1023.27496248851,-239.912062262032,-1279.42278642626,-125.864677431428,-576.218013368602,-827.816879103122,-1109.21481336688,-422.380139223157,-978.597294278333
196.972798074171,-512.739094467349,487.218948923995,405.958539826988,-159.355151168059,596.261811545958,518.947022210784,315.683929373655,533.945074570317,390.098168082897,129.803705065877,524.279325420894,414.900907062797,125.923208772084,801.071200053304,820.85113535609,0,935.244223949196,1263.61877118433,833.929502504171,1149.84633317586,656.627729340379,892.727557698513,1141.18600799594,657.056618133912,924.640126605747,562.0623665156,723.311962806778,921.531795017666,583.944596870714,742.680145298904,894.711216558127,1058.39739118034,0,586.403995662659,697.427607866137,811.896972067123,949.226592527928,431.463499328298,519.092485455127,689.776736312181,802.922584285668,407.83348093435,467.941141511633,623.182696569589,-417.56616691825,-970.953911664407,-846.520470751916,-1074.57022358921,-458.041063684498,-367.463744463177,-844.931322269864,48.973785583796,-900.598169670381,-1003.86188476125,-240.489618790837,-372.770084492822,-553.800504010003,-298.686298572785,-591.115503725012,-388.182647974722,-176.368267816507,-531.457400550707,-372.843355571322
417.502393407439,-352.566462828221,727.376818252985,626.696795840486,73.4795986129368,858.60594188585,748.75325512039,548.961481088653,833.763916836016,658.000788058472,465.348349300577,914.956647246741,803.930593599592,431.639753160179,1047.23052061269,1014.54384923781,0,1028.84125184106,1258.37619005844,924.480698469146,1121.23815749771,731.777027566369,939.737800652804,1089.67963377225,697.800643359156,937.93556703632,580.984508890969,766.629017924553,956.83249999342,599.590915137014,780.067401776324,966.026953247088,1167.40897841632,0,629.683380048472,787.839096364913,952.866221371744,1135.29232528535,476.203956398353,616.052496869298,845.197034432467,994.873308253865,576.272485230493,740.034172741681,997.544834165573,-286.674395873031,-194.183032787029,-511.400183975006,-443.193354426849,152.569065751815,-196.856766596746,-214.22088816121,34.4528777930247,-576.661855386348,-385.803939512901,352.057631876562,-284.090319809584,177.496718984201,-293.078092310919,-283.898373134566,146.181244335987,528.729826885802,-359.530666479852,156.652957231801
763.445614743997,-26.8737853682522,1072.89143070584,968.058185661588,468.719036354099,1209.37226938369,1089.68953541746,936.045799156907,1245.15759331568,1091.50301745542,939.128438780203,1419.29212383269,1325.43354333882,968.618097374327,1308.8157248469,1288.31375200776,0,1116.47380022203,1306.43687923405,980.531553981406,1080.11629701424,815.301485362958,949.735918000046,1048.00207527981,711.51668701045,928.042110652433,597.611512836767,798.328780000027,972.961022545522,609.807215234662,798.855475915103,994.127720766743,1204.22014564268,0,663.757283029756,840.523281032121,1025.01030671333,1244.35526118077,517.184511900153,683.77965929809,951.045223233698,1114.17030005766,710.812124028193,941.556291730309,1262.10778621221,185.43485703333,753.207079449428,175.303366146007,474.809500191691,878.799141991453,328.780892446631,565.001532694061,358.396181418337,186.506422424898,413.988562094384,769.585069920742,348.022327737714,808.207721762216,222.450473147513,502.196401916335,811.728127306857,910.353434265881,299.444158881867,593.558334718159
939.558625730223,112.710392674671,1285.74189577232,1134.31072459968,690.053723924181,1481.78124415056,1339.13191294225,1199.68744083639,1590.73378297048,1478.84820113813,1274.32585586898,1850.04781622434,1840.15404429053,1522.62772867879,1473.33364736292,1524.05556400195,0,1135.87011817456,1332.8674139731,933.171743109515,986.257193283308,803.193576824526,869.210728192151,950.374355993647,651.642829359209,853.168911205346,563.877743826054,786.602546446079,935.096512359574,602.916715326897,797.68013173795,986.678953809519,1188.27958572288,0,692.328316988189,874.6662789007,1056.61649763069,1291.87276781992,559.739753776555,754.554513790487,1028.27947051028,1192.74309554888,845.725210582308,1111.59632860944,1436.86221658925,609.889363972851,1376.54694656438,650.036856135581,1044.59227751875,1435.66805978279,813.897115674937,1040.87745616906,810.618770172323,816.879107146008,866.827458817366,846.414179444523,1056.73960563915,1040.24914752201,933.311360928901,1157.04609444494,1185.21684300669,927.607686666615,982.04515162186,770.238906025465
792.282431723765,-119.610792959666,1254.3428343203,956.433023776667,534.02648522372,1605.26894478902,1363.27865046349,1141.64922460068,1791.17822793658,1632.84494684749,1318.11938952843,2138.8684598215,2238.0873238113,1885.24313835887,1547.54468408396,1688.7726283832,0,1122.71605358633,1319.34903464023,829.108336317955,888.456625900277,700.080607308757,741.835858403998,830.009916913328,567.705937125956,753.1031903643,517.787762163178,749.199429546269,865.405288255785,607.966864018748,807.377784612754,969.053769523243,1147.3552928314,0,741.741676956149,927.844695852061,1088.31776839645,1293.12523334039,643.97146128637,873.382143678448,1124.06073476424,1261.82595829512,1033.95221041505,1309.37922837942,1567.20579515555,715.629382956126,1413.79929151108,567.963312677802,887.773120583708,1518.44009971431,871.856708128309,798.473944764166,1035.09366273718,784.009744083123,522.769205571452,442.441564113309,1264.26933720752,679.162153927062,1355.93890745416,1137.69832396531,937.388248370111,553.651315682359,1225.70240059089,587.255100476758
642.279526648876,-315.999735924168,1211.73181373168,765.953609770488,392.927799443681,1692.61519432665,1344.5094441911,1060.65603172592,1950.6551668883,1693.15031128325,1406.47354678757,2330.80381177992,2520.98106077793,2133.07522144649,1566.68535317431,1786.26420336171,0,1085.46293939499,1269.41400294243,695.01160150891,801.22460762938,551.889183467667,594.103027156433,720.976850868007,477.790655749059,645.118703244953,475.298331120376,682.441943022593,773.757647365269,611.425906525802,802.885712806814,926.336442492755,1069.25552405354,0,789.506607853152,970.986680915387,1101.67658108241,1259.48811569021,744.040876549363,1000.92315103394,1223.50286485191,1304.24401357426,1258.49197738271,1527.25896677902,1684.91561002177,695.282319318362,1181.80672592687,335.359931882278,430.255210653941,1312.78144038345,720.263551582594,80.2713352996308,1091.55020405617,407.02562241134,-230.458138858469,-137.007263486578,1109.31178477696,28.3005206803661,1504.55414128663,790.991874336895,399.260871133356,138.803470997383,1229.40001278533,328.900321470004
822.003806373945,-60.4837533657192,1361.62695591821,931.934197988813,726.231370195135,1801.97602568349,1471.22624891873,1338.33015314009,2097.97076539473,1867.36801935212,1917.03787824296,2397.54094389212,2668.82471148612,2415.48372670233,1470.21664082843,1733.16279735213,0,921.187199328815,1104.34135089535,465.010158811101,610.425145225331,342.767781881311,362.816062272873,526.956140780159,311.404830778173,448.606415175421,367.676182939676,524.507820692205,588.685368936943,530.424235367799,688.184802840342,776.976412978135,880.746127163475,0,746.947237278139,901.168108626853,1000.5377979239,1130.51882103489,753.195100599938,1018.79367543317,1222.06769350353,1236.16905325572,1403.51740873042,1646.83914544322,1722.41412689986,645.215782584315,1031.71666335148,313.191051368926,218.613644237349,1149.25439503309,621.442584632922,-470.694504554999,1084.3346247878,215.127347209449,-618.508870394348,-372.633919056576,932.042156696946,-375.799171394146,1539.47884446882,666.106328997073,105.481191346763,146.815044141284,1327.50855665671,320.899807211916
1251.05612777425,516.637782561999,1615.10633342395,1391.35740028213,1444.61913577334,1859.29795265371,1696.7607808173,1920.31568050473,2137.39643489277,2147.26801463805,2723.26554513986,2273.1943759249,2644.81512383505,2720.89379314866,1229.30447467584,1484.19641150868,0,605.55106274904,797.477567315911,158.763258766164,280.060247769783,99.8491747081403,73.3378616183114,211.844937730205,92.0378198885743,175.430385529695,211.247508924173,319.868152923639,341.553035309833,386.887542276704,496.317951020264,561.74853422353,634.820652244003,0,633.06564136946,747.728649432567,819.5374065816,933.472952559083,676.647309164329,938.729526792185,1125.98656141296,1094.35005789875,1440.27318156362,1641.57571087551,1667.00738184621,491.524041941833,1198.5394171722,405.071813101136,489.251996893228,1341.9161172636,468.928234179743,-273.563511628176,841.29645679077,232.654829096274,-262.609046249914,56.5621615338221,681.423256816636,-167.214334806572,1371.60510939883,734.972199618129,251.418288257277,655.921998648667,1455.34970786848,667.775881346312
1647.27908176282,1033.39794646187,1789.48618323452,1833.58274755108,2127.74135436496,1817.80883339266,1881.82362022864,2453.86838753876,2052.14350040741,2382.8683464858,3366.08741692088,2021.7824778075,2507.7895817801,2906.55376911643,968.712725199012,1166.28644756928,0,306.150330092876,479.662686197305,-63.191080924551,-29.6664083460953,-51.9209649181763,-111.219258984627,-70.7406210813982,-27.1054282551538,-7.57358406597895,148.364784199468,234.857521931877,213.575047893212,333.360243339418,408.817165050122,471.56471420701,538.95379693383,0,603.454260906873,699.313528892693,764.175740678427,866.142122598257,662.975186351382,929.427702897339,1105.98153114703,1071.02555676429,1499.87974159082,1671.5767926599,1676.47870662003,473.342532181738,1963.04869856301,625.906010105862,1351.23136255762,2205.69988448364,234.178503452398,837.913629447581,336.277215157205,330.443087010499,694.417540632272,1118.72518864923,328.032996620792,660.329425645916,1023.71485903622,814.858988484034,765.316533531533,1520.38971656921,1511.99672122316,1431.92340902796
1853.62114792483,1324.80142991563,1809.52391013641,2058.54269108957,2530.11722626656,1704.61030324515,1931.54307013416,2699.89538240039,1900.36680819509,2435.44731186942,3572.59955112978,1783.43037531051,2327.38485903554,2838.54254258308,835.528843638865,930.907017044029,0,180.656938335692,271.124918957642,-103.075179418761,-180.826389803753,-54.340071165855,-123.918305503096,-202.67736105985,4.62192285472996,-25.1587132969148,215.855289403562,299.715202421976,252.308229337213,404.13846670644,470.570273539129,549.180023261559,637.678664904933,0,691.88613102773,800.179389052409,888.385351346375,990.245134750659,752.48186454193,1035.64204515462,1220.02131133724,1206.85863896064,1632.98620012331,1806.37683122885,1815.03906567241,824.623748962691,3119.3540617178,1070.48586090893,2508.98448607942,3467.43851667038,84.3070972581637,2263.90468596045,-150.223952885455,490.050975012171,1684.28509206168,2333.96335775328,102.378771952688,1562.33486000442,778.309201601582,940.1733252745,1323.07141023,2555.311380214,1613.02896140592,2462.16941333691
1885.6884496097,1466.9232980134,1721.40322624775,2083.76637393976,2710.03722124534,1577.26659612744,1855.963462076,2710.95544555738,1739.31445340662,2320.59433094259,3470.33298773328,1659.53652536604,2150.05823611236,2590.03725133368,901.143297039071,870.141460303299,0,271.611976134544,240.71798632458,36.0009915531398,-141.513837435497,63.752960883724,-13.6566301043225,-182.798260675382,125.343018261765,67.7277175809102,330.546990208993,406.993018305965,345.800968697313,504.418693336854,570.665049942733,659.900282824593,766.474496218304,0,789.429468376057,910.734020217266,1034.66901590722,1134.41506126081,848.423919935572,1142.38732648861,1332.42173598329,1333.16955615382,1727.49995042872,1910.49091650731,1921.34598184075,1266.75316836752,3833.02272269883,1452.37616252176,3197.70535240046,4227.3219282902,49.4734381232368,3081.24835526143,-405.125828545458,580.835820691501,2068.90745985385,3133.02490288224,79.8155139066889,1920.79007134556,761.496674614394,1047.2373765688,1505.20777715192,3486.62151895544,1791.33456590273,3277.4429891195
1787.96522181906,1508.41087007859,1588.72696608719,2001.45610252955,2778.9216189891,1458.67042727868,1740.07537200707,2643.55234826235,1606.8159434055,2186.02319872426,3295.35165461111,1640.27868746199,2029.2822199915,2363.60870805305,1121.42554965577,1000.11896811459,0,527.05824823137,414.759920678982,306.813309658449,63.0492311267541,265.341718971894,182.527065226677,-36.9361424543446,291.531886485795,222.700433264137,447.478024768588,503.917605216041,433.804292357327,588.173713482668,645.738441359388,721.896348752758,809.940602562651,0,841.087007882831,948.805847047381,1087.51368593837,1155.81659965772,894.594943440679,1178.66009553781,1328.3118571927,1331.06098799199,1692.86730086328,1863.12483165663,1844.32114390011,1431.9355255277,3617.18054073838,1461.91171082512,3015.84037214542,3977.46568900681,81.5079487685664,3009.67575741568,-425.269031102839,486.40402535361,1802.60988661936,3380.87955006777,103.871396006613,1875.03315343727,824.64706627974,966.254371555476,1346.29443286826,4093.24061466298,1904.00909308989,3581.26617696157
1561.61056961977,1394.55081834967,1413.67183740487,1824.77236811662,2700.77506288123,1297.16446457253,1602.34528004262,2509.3149214796,1455.32665092203,2070.74807453115,3048.30096307259,1575.03460349114,1908.10028103516,2157.66235077195,1303.95389075556,1153.06543350199,0,767.42191409109,620.859001784309,570.496029348953,284.631581754796,462.198955854478,375.249186412497,133.882059182301,431.705525681679,361.065445672801,532.138270470349,562.363688735021,485.938964420194,633.966054636552,668.768431663779,709.709987872381,742.377586508865,0,837.296700742446,912.55268429077,1025.53143094261,1028.87616182316,882.040807121195,1132.75647744295,1204.87870587196,1196.56445147089,1539.95602821842,1668.50131141983,1585.91887554152,1363.66478895296,2800.46974811049,1251.95697657938,2291.40991528353,3019.93461885274,248.595688629883,2407.09056682722,-232.517119338856,378.742109344939,1363.22015944663,3135.67562753116,168.078550829979,1896.9906632762,903.795860283096,792.291808877315,1233.24868470815,4271.94356006391,1917.74923308412,3523.57842795203
