-2.02990026174023,-18.7765774210971,14.6442804596973,45.3827701374779,0.797460817112231,-16.6741807214376,15.4417412768096,66.1167513823959,-6.59717585065573,-1.95740382382093,19.2115560486128,5.58222571978562,18.5590881073392,0.0724964379192937,1.44992875838588,6.88716160233291,-1033.00174391202,-25.4462497096721,-33.4208578807944,-24.7212853304792,-47.7751525888146,-26.5336962784615,-67.2766943891046,-97.2177232497729,-54.7348106290668,-63.7968653689785,80.7610318420933,-30.5210003640227,-64.3768368723328,51.4724709226986,-28.128617912686,-44.8752950720428,-35.9582332079697,0,57.4171788320807,-12.6868766358764,-41.0329838623203,-106.569763741362,48.5726134059268,62.2019437347541,-81.8484784108826,-63.0719009897855,2.02990026174023,-45.9627416408322,-125.636326914136,14.4267911459395,4.92975777851198,9.42453692950819,3.98730408556116,13.4118410150693,4.85726134059268,4.42228271307692,-0.57997150335435,7.61212598152584,-10.8744656878941,5.72721859562421,8.84456542615384,16.3841949697604,-4.78476490267339,-3.11734683052963,-6.08970078522068,2.39238245133669,1.30493588254729,5.7997150335435
-17.2439564158691,-95.2566287408149,64.3395296126349,208.090565204459,-1.58080302110718,-83.0334147868899,70.0808668213765,308.720222787891,-34.2033064283873,-13.0576512620628,87.4610768482931,23.8776619293493,85.38008148241,-2.48336713476877,4.41499999241776,31.7369709949995,-4923.536129938,-120.524385059616,-157.783747405467,-117.809409997972,-223.719655196459,-122.71194026618,-319.878848050935,-457.526064244421,-263.847724744584,-303.947110238273,373.422234590123,-158.088298598463,-304.596665091283,221.326825916921,-139.269365338014,-196.620552855961,-131.762905540767,0,272.370707276361,-59.6914651492102,-131.556174923662,-518.575463752655,221.486384234078,281.734963008734,-365.02530986047,-268.971220302543,7.23944798300654,-206.275241168213,-618.68789728993,57.0003576814053,12.4446260718774,34.7147042980168,8.26269055046661,53.2718890330231,13.5505608861796,11.2691079079195,-12.3214813580163,26.5498343234404,-60.8786356662227,16.6635380843137,33.4851779416525,69.2605481263559,-29.0832868464212,-22.3313691392051,-37.1600852258292,3.08720623196218,-0.332788419230069,20.0523824210077
-35.1621997718311,-183.212714512004,126.381995199876,397.065679739252,1.37529677100083,-150.299964373558,146.261478229408,598.871441164695,-54.2918292306553,-14.9658748169408,179.100896180971,55.6680430026697,176.167010126992,9.57284909578635,20.1299911645665,82.994313906539,-9497.04383003794,-206.747409133812,-269.458910614895,-208.520005994085,-390.269154467539,-212.471319959939,-587.758212409738,-828.432857400525,-498.404679436528,-547.969616550946,682.025614575029,-309.587845017066,-562.918007135909,365.346761321704,-266.08786435824,-274.704638982645,-66.6416675281702,0,531.498394986379,-84.8401843246508,26.7029079292924,-998.308781329568,401.887850318937,498.840005695251,-553.938016643992,-363.969014792374,34.016259318711,-307.595332126592,-1211.61900742703,89.5456341783606,8.6489239135715,52.8629244062263,1.15868347142937,87.9344817261644,14.0716319422253,9.87885071164042,-36.6930683878843,39.4490873039066,-127.473492514133,18.2596837247352,54.8816133826414,125.086378751264,-59.603027617089,-49.2086355173587,-78.8267291753785,-1.35066922250408,-3.9329187960614,33.1496500983998
17.8630796352305,-131.997272626245,182.644379758784,449.634751896925,67.4384204521075,-79.2901381849081,226.174532909831,674.003031891261,18.6435791448863,62.7991665431543,263.291138411054,121.218625451937,255.647389671219,99.660237979255,92.8499763531037,192.56931895314,-9618.35400195298,-96.8951054422069,-123.717754042535,-126.206330100544,-236.728447989429,-143.436609866775,-457.786306214168,-630.795033716075,-427.298476989395,-363.584260993284,611.653936982688,-223.383371127999,-463.271768862294,289.987283404934,-222.228764657228,49.8294437910429,429.672880496994,0,542.092798278872,29.1407837138066,732.897855716549,-913.054988289839,363.264278339829,401.949124111907,-93.6987744098999,65.6762646660701,131.570550485986,-10.5851149330235,-1124.85811394461,95.3040913058659,30.8632079872172,73.325582484986,22.5747953114032,109.654395674126,37.5088614400087,37.5877512080155,-16.7090869242427,66.269292777259,-99.6487741811951,43.6268258434329,80.4133387888949,159.244174811347,-25.0584599973798,-16.6529002214147,-45.837999036012,33.1623797675939,33.2128093241015,71.3273648896815
165.427000840172,67.7662826319789,263.744142951002,434.96896013264,218.082856696719,122.119543139584,329.993355223512,613.668814642841,181.02064993657,231.091220194723,371.020934767764,230.162988406315,348.863189714855,277.028513346531,228.807719341162,368.342269368483,-6239.06049152116,182.401974643518,242.741501673436,104.595726076401,180.228703356127,22.9096585899191,31.3488331674124,43.7999160043475,-79.3760576541911,231.266035906446,287.140651011117,126.264332601086,-14.3629356850256,141.297191754587,-17.6081907830269,642.066596082388,1046.62110906728,0,274.460727176332,200.516667038395,1525.22135398051,-354.165151084075,167.988882953384,57.0077137642886,786.974129566617,771.652357694044,265.244894110092,557.989216339246,-349.936898409882,138.338268770806,128.511557197099,145.585406200223,118.657487297508,173.143529100199,123.885417214488,137.442224143137,86.0169506651205,150.130679817464,48.6040801817856,139.348196366574,147.318995086845,217.48177668628,93.3327565884859,100.378626586017,85.7772345405094,138.14113249173,132.834326073795,169.062431593224
270.825927884373,209.480351327517,332.636243761658,455.082540141469,332.398309939169,251.739812971992,404.584673519751,609.451667685321,285.798044780078,352.439356003236,460.996834863896,307.27004582745,425.139759562404,404.0533954844,326.814046099506,499.497930906864,-4511.71486585863,366.475038125442,481.530071090285,259.509768142568,449.75801726403,89.7217811015565,391.156520608247,500.829374518963,151.247182944135,695.088008190288,115.566239082691,357.247197604927,435.262990697975,71.6316669215841,152.808290906103,1003.50328904607,1171.19902390547,0,-18.6928824761249,167.844867028607,1634.98224611342,-145.839791693545,43.5286983284828,-211.042964229881,1251.45846475354,1048.67026644194,290.192081230055,858.111776322618,231.936343557728,211.073841604907,221.702537122101,225.039479684486,206.151151702804,243.360162731629,202.228938262992,224.401901958246,177.577847888862,224.968733974417,160.917057183827,223.081904759307,208.198561048735,275.702068188421,184.11787760533,191.025937681902,182.543607779283,219.790512511533,206.827725759876,251.535045554931
233.095324895951,186.818103073189,309.278452750407,421.152847577384,309.245605390589,224.983510194152,363.372085547724,574.229902764141,260.449574879559,327.291561803158,433.95335725551,285.760098975576,396.345917664023,376.739526978801,313.403789746292,477.813940431668,-4655.19114244211,342.105031562922,446.520442314377,263.047924672947,422.031405336764,71.2868683513655,420.699817108038,516.669003603245,115.960683117213,733.99768142513,28.1869244092303,230.686576462426,727.420477003479,-129.837763149621,257.359709517764,1051.03469311178,817.455406493666,0,-143.55058506299,-27.9577277255067,1093.37798971587,-465.122951242884,9.01055871579418,-304.106167455229,1151.28625905371,795.390663751737,203.657888330167,749.807725542309,278.440630892313,223.703102221714,211.927388284156,225.046734041976,188.013112299682,224.903337617285,189.894427103766,198.782320281338,170.389520183016,200.167960698423,139.623187329231,194.030523913503,190.159758304388,247.132214629301,171.507114402269,170.167406337033,154.43771782278,190.906373923302,183.367743139781,228.391380654337
160.195833262421,131.845150789921,240.725718408993,316.66664383117,240.209455501713,171.986675976478,264.234017657452,447.883489479012,210.128447751115,250.931338809108,343.098072417635,228.270061816919,301.736345884453,292.962515019559,259.263427815185,368.557910391072,-3945.38602771414,248.536257379454,327.949692862133,237.474993039503,297.832378411373,110.209311533534,321.018942220439,402.704482184169,11.0693360189311,540.695219279879,-250.734512334188,-35.8896918779291,808.674419774882,-612.045099615698,351.124645171706,1076.06327252927,460.115849514272,0,-114.940333804897,9.7187390170021,436.407265020353,-618.094054490102,-58.6041449087147,-350.35743678651,944.797333961923,470.203464231338,154.047105051866,535.194939901763,268.532379525635,183.858086451806,168.362947664933,181.969424150103,140.595358108469,168.958479298543,149.089728269969,139.72301315082,136.713270863963,141.849810152017,95.272790609524,133.522649279209,147.522552042668,178.215191142993,132.882431585917,122.30105184097,104.456189706951,137.883582643979,139.099130667535,168.448429172946
163.652027159108,149.563318438018,216.805177811159,249.614070224608,234.465418192407,176.198577513576,212.076960124379,346.431655889084,211.8979581861,229.008425323302,304.258449457749,208.817828249072,243.882850662685,264.162850543158,236.956557740929,283.326528012494,-2446.07959176406,196.984377145246,270.157741357288,249.032433058398,220.407753972385,203.403246537416,270.750028904367,317.364145052535,16.90220496043,364.321900203849,-614.155836756275,-151.564341021342,502.925966431293,-1085.74235959939,295.006869186461,1066.2678053905,160.271923574734,0,-150.149476821607,394.74889839463,-174.619319821916,-205.202249431169,-240.733439511368,-493.946238860681,687.380784382058,237.970984426662,120.966998436358,310.340459659429,511.511971497713,158.896776971849,181.877874445431,163.994913431034,162.600904800636,180.231120578427,156.561697479237,157.276245621146,155.421357378467,145.931469360217,128.569648141581,154.395423836423,155.804847965654,173.363998424619,141.713224189007,138.491117738165,130.600908142696,160.121303735709,152.293905950547,172.096871875131
168.411708919219,157.424708127897,193.285789282409,197.750938480369,225.498892366098,158.932384761273,165.102281428852,264.43215306289,189.709736012181,197.538337905967,264.266405160993,177.256144138246,184.85178767287,219.983231266194,188.455730498619,185.164954551234,-1536.5700653329,123.790165234158,178.519752926565,214.205095806539,112.775220397575,233.934232656505,231.374475882379,124.64696515232,111.384838864641,230.792610781458,-766.804534563981,-93.1622499189478,-197.026059699432,-1152.92387999654,-61.8373258930325,678.175700714814,-351.125358927726,0,-512.533528534001,680.035324225813,-718.898609807296,400.209599984928,-537.6010902659,-751.650668124397,138.85296113861,-54.5823180288685,-41.4663652146689,-43.4294755887448,794.377376917114,134.522683796843,191.78805894963,136.348883732518,186.560412539828,205.64472448648,158.473743776712,186.680987969902,165.763187992092,157.333041006891,165.642711414629,190.309948915769,159.586127300925,187.607072193237,143.337547651302,155.801724555338,157.523742818543,186.481096745553,158.478916096665,182.018111967616
53.8853595756505,42.8811715136336,69.031953557028,35.0309644013182,84.9639975274635,35.7338048312781,15.2129613978169,63.06791451466,50.6557827526553,38.7234127572733,81.9680343335396,42.9810239693355,6.04967446118125,32.3146098465537,15.7315950927429,-50.4149188091189,-1232.78566480192,-94.6025020603132,-95.8596428479634,5.95520904124209,-174.231016883284,106.004424963822,19.3912330482275,-292.575378372275,85.3819138646743,-9.02575910240581,-704.240132095465,-83.1389930121691,-934.876118911248,-906.732738807494,-589.466446860849,-287.432685781982,-1014.49860712365,0,-1268.89375535017,359.051347066264,-949.391532653003,745.913330146919,-894.709778120155,-1004.82607222156,-600.706142078284,-381.723777402448,-338.510831944245,-443.387358836866,820.194126034853,50.4686496233179,95.6654406524695,33.8574428654672,96.0121305063897,114.846900153245,69.1672228986585,98.152796660444,81.9996428548904,69.9114590259018,88.897366234216,103.352304499477,65.1667020302781,91.9683950153591,55.212792103473,67.1948368063894,68.2202720747331,91.3881618153408,62.0271483349653,78.6382415137746
-179.694237407537,-190.368418360664,-160.99343775201,-258.096509140265,-202.456706788153,-178.613368915631,-250.182872151626,-284.787020136898,-192.53681599214,-257.405384991941,-263.616949276866,-194.042274618572,-307.115060085433,-309.349120293134,-279.674234292876,-447.448636411726,-1106.75312258291,-479.390676168974,-556.573566013607,-387.465596350067,-655.757913167985,-182.671650078976,-449.554598110776,-856.112109337859,-229.316999859744,-437.944276298107,-641.978937409406,-310.455900303946,-1372.56757654583,-834.681031308364,-1014.40551788901,-1664.18498231762,-1588.4095181567,0,-2106.07364521937,-624.858314272221,-998.767878237763,799.532090229583,-1234.75176217689,-1184.83538797721,-1293.21107624511,-703.333606372237,-726.250076927417,-773.364105349156,499.572883861532,-114.522097564952,-126.788028405232,-157.191011972253,-127.863779399812,-128.031522711444,-120.526209275502,-133.395853039932,-94.1664755340331,-130.26685613137,-123.028642291059,-137.082272510184,-132.434534685743,-149.584612300781,-127.619128418548,-137.620935054809,-150.817992499007,-147.167977336033,-135.729470536069,-158.182325371463
-436.596421868081,-445.541894659442,-409.263455791696,-573.820137063339,-530.864815745886,-407.449758479911,-548.073955493801,-657.158714111675,-446.507617120654,-585.201073688979,-650.504364235543,-438.612243937831,-637.26436716926,-691.481937636631,-573.119280573764,-855.954041574839,-1176.35288902375,-873.149533572401,-1025.30447440377,-763.731527327285,-1103.93687386014,-466.700567895051,-929.544423084101,-1304.35765210805,-643.805637592554,-845.811276211707,-597.540726508758,-608.285040761295,-1451.1521560391,-970.819044537078,-1175.40598582169,-2906.14999079817,-2152.64772950491,0,-2398.29396512227,-1806.38297849875,-1558.05170005391,681.708458463291,-1383.22047248675,-1307.17577542167,-1922.8694449411,-1264.30231811149,-1195.5504585017,-1190.96713908948,-48.3930913075736,-329.367846269058,-424.318349318417,-400.514947749274,-419.973521497672,-449.656667532294,-355.306392778908,-432.99797672528,-305.134364180259,-379.016484058544,-402.025577962197,-447.477780434682,-363.837218368037,-455.677111809641,-343.117501724926,-386.658115666804,-425.683868519104,-451.42557828474,-362.222704792174,-450.757013147135
-619.623988629982,-618.742677782801,-587.336087693629,-800.022030403743,-770.977401082935,-570.762400468376,-777.79319905651,-923.707939593852,-613.899536992433,-811.011749193779,-930.684759185573,-591.485420397414,-848.848539484765,-962.761742104411,-725.782236185455,-1079.57526505293,-1153.04062540668,-1060.4807306976,-1270.93366092351,-880.880035365554,-1239.85632953799,-539.603209686235,-1086.4726907393,-1364.53682642546,-801.176292422069,-957.282424521591,-404.407612987805,-690.015524730778,-1202.22673040332,-827.368123740423,-1071.12698245692,-3365.53607309011,-2876.14719283392,0,-1809.86410749552,-2481.7494745788,-2855.38525988815,351.24255481638,-1132.66611216119,-1278.46518789456,-2435.88843383849,-2193.08106365968,-1564.58065454203,-1803.98332801391,-592.214648321241,-524.593550436292,-697.404300230139,-614.155874268125,-676.453947073288,-730.31603627931,-553.765069957195,-691.77723928908,-484.118401248542,-592.437557224877,-642.758875802491,-712.144821205777,-549.191938801602,-709.431602292295,-511.502644601961,-591.725192750943,-653.691020553924,-708.826321826039,-541.64642497866,-694.965416738601
-666.499312340866,-649.3281227526,-639.782369784439,-871.792678120724,-837.726816716782,-604.247217923361,-852.186424522626,-1007.52207721667,-637.029299391098,-851.054481608625,-1010.34320559479,-606.824981132,-876.152299326582,-1016.9111017508,-698.911602639201,-1049.01590780248,-490.711892423814,-982.958850033307,-1205.66464431055,-743.146631662288,-1048.81974868962,-421.778864032598,-937.922374526328,-1038.36042281229,-681.935918993857,-834.359270169815,-111.38239894267,-603.673632400336,-723.36623509239,-300.18672599338,-780.070308160631,-2847.03939638695,-3402.05190940925,0,-733.723015334092,-2208.38600861049,-4060.1780756633,-204.015261713084,-537.770772672683,-890.587326388634,-2528.30944149081,-3058.97599526721,-1487.27065294515,-2313.13062933105,-931.995833815241,-609.733687354344,-817.834075844331,-692.370788306268,-782.241454134693,-849.409677450591,-631.199519690546,-800.612128744954,-556.24021634846,-681.983624561638,-736.516793011725,-826.024940054655,-621.373458941983,-812.068703970267,-562.140335257192,-669.602609271388,-736.264527075789,-813.354634812139,-608.193530797343,-791.445904630912
-544.217995697048,-514.786501649378,-530.967280081665,-753.251952108899,-695.121047959864,-470.064531586331,-714.670257865355,-867.075979555411,-503.142929776855,-688.858892164756,-856.312458920084,-480.227601282924,-718.226197313358,-832.894203745354,-541.579953389304,-826.681189407745,696.654737524876,-745.622044455853,-915.982184076002,-546.060766668396,-741.627002131779,-325.963850445162,-749.352042786592,-612.217214415499,-555.217795818869,-736.013958654229,-7.32249320619595,-527.391110047573,-272.818872178468,208.89359959009,-375.763847040595,-1715.35186258687,-2968.39495352266,0,225.519010596712,-1145.81526980283,-4094.39886860882,-588.184585267377,88.8248439894227,-102.893581366702,-1959.41429670693,-3148.76435360643,-822.740175526546,-2282.41369799962,-930.221579454489,-516.196101150454,-694.291756896772,-570.809320926362,-658.909056830911,-727.26925158504,-525.700267096453,-682.439813548652,-456.837389458529,-576.237108146103,-611.307949778503,-708.149665182199,-526.874130578584,-697.011667894392,-451.535846651685,-556.799576632228,-609.55225205066,-694.212916065334,-505.720970724417,-670.313549953792
-293.072454908637,-250.574585033457,-297.784150816355,-484.937866376146,-392.244628086378,-218.721368295123,-414.093791232842,-551.081878638209,-267.705854246348,-390.006629349504,-526.539188186757,-268.80934215768,-440.904665982641,-491.440696048355,-336.108728645227,-515.843176047518,1812.05152957216,-460.204811074537,-529.066506338143,-404.324773923953,-453.346131394166,-371.627214454309,-618.751264839213,-281.418789581319,-540.171940580973,-696.960678750137,-193.956762099836,-407.826500097184,26.7803762786946,529.30132063892,91.5763299167058,-464.755593716298,-1446.82768568989,0,860.555594058746,116.158590838871,-2795.8665883125,-293.16115487018,534.847256620052,806.222679594331,-914.040685736217,-2214.51839700818,140.604056635668,-1638.77643589441,-506.456887904774,-272.47176162578,-364.732561135616,-293.740648799906,-343.735221290625,-401.479855952706,-266.059327875042,-369.63660173013,-215.242972537162,-302.677394082456,-308.736163702093,-382.382192917961,-285.056349214655,-394.270143388173,-217.580923590151,-284.647116212112,-309.920269562408,-382.580380286093,-258.405148168189,-369.019878237643
-31.8451668726261,36.9276546253299,-61.4833440312661,-195.674189609791,-64.5081034209042,18.6635432970303,-99.6009530965009,-214.379285727274,-34.0745318807165,-77.0080626393964,-161.952160119486,-78.1161754524444,-158.890138430014,-128.550568963712,-155.280360771456,-197.391268897077,2682.81558077152,-161.552679864024,-111.878874607499,-270.869500616269,-125.071946703814,-459.541249302774,-399.513768960386,84.1452696409517,-485.129184534819,-479.880934774504,-392.837035487849,-84.3558194665102,454.593540006404,856.062582200644,644.867417238309,622.322426673715,262.313014676211,0,1292.72194760113,1109.97231006558,-986.841355691916,522.691044900772,838.337788046459,1539.05663729684,153.198906201394,-796.457769371961,963.796584084306,-726.905483539086,221.347091364672,0.736113475080444,15.1195322713592,13.067138748106,16.8127613536153,-27.0007170104403,19.1747097318008,-12.2313641145391,42.274476260286,2.36932783581546,27.1611612693757,-5.1873161913925,-12.1151963811472,-47.851049550915,28.0664932908658,12.7290071452228,23.8372228519255,-23.2906127658168,10.2263983867683,-34.1168165395596
129.605140564886,226.367372266181,72.6504720618519,-10.6571611974932,154.270567220455,140.430334230629,99.0530978306288,-4.01138080767616,112.886954878205,141.509764775565,97.9770797019234,18.4432388781853,32.2636727828083,136.628155666587,-38.697261877941,67.9134277850335,3451.67275024219,123.969040550175,271.630786940646,-96.5902454624961,282.442654283146,-451.166365691396,-5.3813397265859,588.78769811876,-250.10820329984,22.6043979469968,-329.399277980161,411.714494624873,1188.06955375627,1216.22105241332,1288.10078458453,1385.61922985694,1253.92405233293,0,1646.88496888645,1720.24700839983,416.654119640932,1098.29825933079,1059.65434545737,2026.31647307992,885.919275744325,308.134712693992,1420.51938019655,33.9072671867454,845.456124642293,181.336101641546,277.315089084253,224.656158305424,266.707790667282,228.425966523498,198.416743282478,226.768171642529,198.392354689595,198.381463157353,255.943484406646,247.14507674551,162.677425284265,184.665662107983,182.49582572619,203.118367001464,244.923371233718,220.499125667528,173.743496338096,186.202664439127
157.111914913214,264.95122939043,86.0906836487709,30.314021174046,214.930882579423,134.515381864607,149.550079519139,43.636154660751,143.545703394444,220.420593326159,194.43845758918,17.4622682674395,103.462305582284,248.601282207166,5.26531015116262,228.833365068812,3933.3731461422,325.317697127116,519.083936510858,63.4028034424513,635.545003831153,-366.27188668253,413.430954697447,1016.99045883931,68.524671944055,572.881307528783,-89.0658064610918,851.523196843135,1851.10485615261,1374.94870245423,1820.39008204595,1658.73715371965,1416.56494473507,0,1911.57733058314,1929.41266468607,1037.65040366943,1010.10415319207,1152.655434741,2245.88101239153,1094.46754453424,761.352720138377,1477.33833779914,430.125268567367,965.224620228744,218.621138283081,339.987458928066,279.492383152795,327.162726682734,289.077754227406,226.196420609539,281.384405725258,211.171351117633,232.924439646749,317.637374009738,303.984338963911,187.678461098505,241.540161687895,203.698356449085,240.923601790403,293.814398070198,278.720714210683,188.550628066765,234.818718301988
155.78192498173,270.516404917863,87.9953774800412,48.902534930399,241.046852372289,114.080674367099,176.637154130414,66.8335860632937,157.061790881276,269.324795026434,251.794015238977,23.4377402879544,163.22546388222,323.521627715108,66.8424140981444,363.850594472786,4008.80000776218,490.094669201756,698.175222014076,229.093482345623,908.732780687295,-224.755267645899,766.805897071369,1298.69817784919,380.187877360556,1000.39403629285,155.353468753892,1130.65552307995,2190.76880981404,1337.45159056467,2120.46420744438,1604.87048227478,1249.72751256516,0,2119.38931703359,1849.22333321666,1198.93856564658,683.915063085141,1191.10376795213,2220.93924554409,921.578015301435,941.852803875815,1282.03003150734,660.639742593455,736.034133221552,211.226420503241,328.467033961628,277.425516085648,316.126477327843,286.964712962704,213.980702218179,286.990867550085,178.279245557481,222.830463572966,327.990958824421,305.983226493673,171.238656229292,255.24990378072,184.93224960971,241.719092809055,298.262008331353,285.901522531451,169.260626192731,240.228297568287
349.705133722413,492.74340676923,280.652527714286,281.468462907111,491.706580388152,286.262546282405,419.443992107677,314.289917663666,369.079297682768,532.86798678291,540.784082261656,225.644167229106,432.61148208115,628.262163104424,335.436100057751,704.612252558161,4189.66677864486,849.157773860442,1105.911316693,600.520349804927,1347.91260644424,138.588510755295,1235.69593521492,1776.71915318185,850.502762978881,1456.72673447056,472.069415766879,1390.43579657905,2520.62405019039,1421.79773400685,2428.30064754242,1784.30565323433,1496.29555636557,0,2480.05046171297,1917.42932639637,1678.54777853123,887.00585992208,1400.54262844077,2207.90730918126,992.757676064626,1578.04064157074,1245.41455671647,1267.67105816101,848.329001918511,379.465987054531,535.194630219984,460.715715232724,524.734331706243,513.707923170936,387.036133708756,520.336503773597,321.31825972707,414.106287236089,549.42478547325,544.033198058943,345.830206527212,492.433753214684,342.803179764997,442.803479369723,522.859480499861,524.109020915282,347.830503934888,468.874183061314
844.702503781233,1028.81868897127,750.716781616871,815.371173296455,1070.69542110102,743.033451256741,969.092739329285,878.181363163097,869.229060210316,1105.70184137271,1163.74243567352,699.23952896521,993.727982036831,1262.41586288951,874.942576236238,1338.6419121109,4884.02944739754,1495.96218866819,1848.67760577829,1253.22117669144,2049.82753354565,799.887692491174,1930.25148798168,2550.33509964282,1590.67288142971,2040.68406162551,933.457530423969,1801.82383821614,2871.54420058156,1730.63340280248,2887.15366661104,2402.43581997214,2562.11138898698,0,3037.15823622851,2463.89936015366,2864.80481747735,1808.09269543552,1787.25189452498,2398.20296115592,1782.47082985,2921.78786987049,1671.40668455706,2484.52875113393,1685.86088703123,823.505327683169,1088.43142923406,939.980484698257,1080.08413893984,1089.15395929561,844.489622892083,1084.24694788895,751.563777902469,911.632145474831,1091.69663739894,1131.19916228448,814.790380968342,1051.26611121328,778.792991316169,940.369711210583,1066.56608757942,1100.00876151011,817.042095077375,1020.42061310563
1401.16918786035,1601.35748912724,1280.26618112793,1393.14016305568,1686.81374742074,1271.6313241816,1561.61405142957,1485.88077435578,1419.36624355562,1707.87942287083,1812.29469482034,1229.86625609326,1586.64673868826,1912.96778948461,1437.88041470455,1960.23661741948,5576.8632373529,2112.11032917364,2525.62840113031,1867.67063862584,2614.95228515147,1449.00782709824,2528.40605110679,3056.14830138486,2274.248451397,2463.4719562854,1293.45529562794,2278.15650698207,2638.62044122378,1932.91673148333,3055.36516829568,2941.6700648967,3896.50464677939,0,3251.12598264005,3100.92548030059,4183.62664844992,2749.75377905662,1960.39766463922,2481.43836780852,2866.72290825935,4306.32012003231,2239.15316139442,3741.90642984952,2747.77218263399,1314.9876956147,1695.71501044296,1461.58433180127,1679.75985319097,1712.62363289846,1360.26297775001,1684.21734544797,1254.27348823838,1457.82862037185,1675.96522494977,1758.57157487239,1341.75730390742,1643.98238551108,1274.4048768006,1481.61915935941,1646.26242931827,1714.33341590684,1336.67862842204,1607.45403664294
1594.87355835802,1760.22547443177,1485.09919453883,1589.01233305488,1860.25703764276,1494.48439113332,1764.63378520719,1677.79243503333,1625.42307410926,1893.8668451384,1994.87224813996,1456.5899711677,1789.77755822722,2090.30437708492,1649.63370938773,2106.9830153049,5548.86218573413,2239.96738081324,2589.93683621911,2022.41654536221,2544.54074199615,1681.8284884285,2563.34242450237,2735.19960810961,2434.89763661719,2307.74837699406,1242.40184178545,2407.98502555691,1594.7116108802,1707.79494322269,2365.15191608834,2837.55081553749,4394.12658870947,0,2419.8515745427,3043.70291185749,4686.65120595961,2773.35892937444,1530.21750435176,1996.03446087132,3318.0582915075,4729.02215395891,2267.31742926725,4153.67825111314,3121.38694345908,1456.71469858675,1857.86048128111,1595.55867229122,1830.19283113279,1880.75292643549,1532.00007103173,1844.46629790282,1437.72776647773,1617.32258114856,1838.86253739843,1923.25088289951,1518.32475702816,1803.16788221838,1449.37846319009,1645.74235362037,1808.42162992883,1882.75857525544,1512.88701478568,1770.79177132366
1265.62091766241,1350.64792688747,1202.94948362334,1229.8020131522,1420.05943296304,1251.4234756317,1413.50675881693,1267.31308716978,1336.7262498091,1507.11536262579,1538.25767622069,1233.29312860272,1440.969539254,1633.00254239671,1390.39888458819,1654.34590139997,4915.21388283675,1799.95101366898,1958.10271330251,1689.23278709091,1869.94323331313,1483.28685115425,2027.9236907658,1759.66096471491,2080.1697151104,1599.12534189841,910.476725015092,1951.68125801211,344.077541743145,1212.11022034035,1001.42789929916,1989.29240227758,3553.1615433473,0,757.844705754818,2030.4991116691,4025.60793319631,1598.70417339537,655.83927022828,1049.6803460936,2740.53871878,3848.35682153946,1537.4050044303,3449.37853509,2386.62730865273,1106.22213861904,1390.56290158377,1196.90296843864,1366.34830237071,1403.84496395848,1193.24991406109,1391.95579180472,1142.77078002821,1232.46604830158,1410.64266868156,1446.96956824751,1186.76446852374,1357.48987005675,1154.70692791672,1276.45656219584,1390.62956777872,1425.22131567936,1198.23392619978,1344.57130859865
632.896815566433,621.361816370214,615.892916242716,529.421394251595,628.978023859192,710.223657577616,727.254906917929,489.099324841731,740.552664241957,777.707101457745,705.447552336764,720.087336794725,749.751169341547,811.109381939427,845.434870851735,875.086422343188,4145.47903963519,1080.21599997469,997.497737029302,1146.35994598945,1003.39777492695,1132.2943002147,1279.0493816305,671.144144052741,1566.54013733981,743.719497077877,697.443225143151,1173.61826111383,-609.785582885167,800.76657038261,-267.805916758631,516.863936694446,1833.94445890374,0,-640.73250479402,439.61402940961,2576.06509523434,-175.111707333603,-107.459381555723,90.9589823175424,1478.20538007361,2209.77081898558,415.787742828856,2137.20540036965,915.603164620215,485.095648287519,568.004815010941,506.36042501676,561.071519502227,555.059765211623,547.015700473588,586.318234925175,560.49922486244,540.252821366372,641.60659057393,605.173801575181,555.269714252791,560.248406762316,576.511220169921,598.264165749359,635.936059039241,600.097709075157,590.270651132522,573.082384533178
-27.9285013213869,-118.288297794992,-14.7121782945505,-201.739100741988,-175.848630433119,110.806094195446,2.75921100698045,-318.924439317644,89.9338210629581,6.06490034526642,-158.362166737405,141.014198998178,11.3368486795851,-38.2720054135227,235.395387459776,66.9414667883826,3266.79225736957,327.553537201094,46.2351290818003,564.518468351479,168.07544775375,788.526744981033,497.918228047693,-267.536328834475,1031.11740287826,-44.5791086610282,691.689044010234,395.034891177258,-1308.84656931982,496.696940770619,-1044.82738916973,-1209.52603184625,-11.3692958735989,0,-1158.44150876235,-1217.1652212808,930.197763115883,-1699.71150371405,-471.457217146152,-790.152630275564,52.4480743662268,568.506461094433,-719.270795894662,819.086836888426,-612.37127478316,-140.234264795171,-262.300701355898,-190.212763382044,-250.635628275715,-303.067684856299,-124.315560921002,-234.028220118507,-52.7833257347323,-162.459946000208,-144.469447246351,-250.540106162516,-100.450074696577,-254.894579919759,-35.7582786551538,-97.2747153976393,-139.865197212931,-245.048338203697,-48.6915660458128,-219.009846953564
-564.81857716395,-693.307804461592,-530.81240057675,-775.476822892452,-801.051688116221,-389.078022753229,-581.558136929791,-945.390721252199,-451.893165391099,-614.823180599372,-838.149359474103,-354.037523154385,-581.23300483522,-711.408015068347,-294.628327021447,-589.980819139534,2399.59439027218,-317.186321181409,-698.163261552953,17.4344968319074,-546.249868424837,459.003554374688,-231.313466590928,-913.797202967322,459.330600660056,-704.345327895897,676.655463334148,-278.933105152236,-1678.4588566265,131.878157930591,-1438.70112416747,-2337.92937349775,-1439.12054586374,0,-1173.69238746615,-2400.45779179945,-349.587928775285,-2505.71681869198,-582.599579816587,-1683.35967832861,-1080.36389975676,-622.363421628323,-1644.83539839516,-200.349248568378,-1717.73016494747,-644.502988648687,-915.764643111681,-741.286836715671,-887.131802238698,-970.604442075881,-660.642941890698,-880.726592514454,-554.665450302834,-723.694075556848,-767.663568080473,-922.946546198095,-630.068964906796,-896.041366697545,-534.93189899501,-653.10676604508,-756.04645595116,-909.976572597667,-569.379814587325,-841.59831379333
-867.186540291457,-989.506965919191,-836.851971252083,-1089.85343008493,-1123.70586178758,-678.482797501661,-912.513939520643,-1272.2394667088,-770.381422577374,-950.458884552979,-1187.97218604071,-659.629582545917,-909.332539479296,-1063.02218838882,-627.777969774379,-947.775137691954,2146.37383134996,-693.135618501749,-1044.39565703821,-360.685170163512,-921.430048151088,179.493077895408,-664.717984393959,-1041.44934059653,3.95950582178396,-1011.6419389604,520.411755512624,-720.224177494051,-1464.25402826917,-288.180114693803,-1552.72299254129,-2264.05578752159,-2089.21492742034,0,-1250.46145156802,-2705.97027493381,-859.723334243102,-2477.48820878331,-694.0230522135,-2401.72436876545,-1534.18264379779,-1146.24908292034,-2131.08736077256,-733.006653851547,-2160.3051527637,-950.376525346466,-1273.26057154596,-1049.19967638796,-1237.86014859456,-1332.08233355402,-971.661848551316,-1236.89569323513,-854.908735397576,-1053.2227626373,-1116.10564080013,-1289.78226952974,-945.628187432011,-1249.48608817172,-825.142804782806,-974.810260571136,-1101.19047705534,-1278.18045439492,-879.369932669671,-1183.28966077999
-889.890617852764,-979.177091548088,-902.8494124697,-1123.99719340295,-1114.02623348278,-731.684129128895,-959.197905915424,-1283.97443346321,-838.950732531629,-976.090812133377,-1176.61748086072,-751.992551908563,-958.347506989204,-1061.21256672243,-737.240223983621,-985.370499030702,2595.47902372774,-766.896752300211,-972.759389142531,-526.064038700564,-889.247758654223,-18.9234967879579,-712.993024702086,-723.267169866255,-210.092109586117,-887.480476481286,276.688242952005,-842.01830246523,-874.73046828076,-627.872641062554,-1428.40217361232,-1421.90480353256,-1898.85420948547,0,-1515.15633454578,-2316.48139120489,-689.118605472271,-1703.11216179956,-907.688217081832,-2691.92704528724,-1297.93532035746,-1025.74948524731,-2086.23283134666,-737.370432843459,-1916.78992732457,-1014.29788681156,-1292.12224770769,-1088.4088225858,-1269.59019557413,-1350.7992834134,-1031.46160588749,-1265.49996644652,-919.263592554563,-1114.73721726088,-1157.59278557298,-1318.76759220375,-1012.99143636321,-1286.37052712075,-879.73997241531,-1027.45637735034,-1144.19956117055,-1315.63900602976,-941.629122310366,-1216.08613537397
-740.775864264848,-795.374739279673,-814.17173871596,-979.801004471774,-917.887275899858,-652.378556282721,-838.910902017948,-1106.01470738826,-766.145801435982,-842.003430593226,-971.578175950755,-719.358592081554,-854.906038264954,-882.956372460428,-728.820339631521,-884.538934247314,2894.53464135859,-725.365638834012,-766.384516821223,-605.213192279293,-746.20293994926,-187.166265657413,-653.609944301964,-424.898714300905,-321.778307074461,-697.173133987127,49.7434898126249,-878.424416036604,-456.048917251903,-819.167104199507,-1250.49904265983,-661.283729019123,-1290.17317229279,0,-1780.44873448718,-1836.3400800135,-386.159104144648,-609.480612819231,-1122.4643867043,-2569.2643099646,-825.024116479444,-644.986733653395,-1718.43063520905,-508.279667968204,-1296.76491221174,-910.84247311126,-1108.26581914046,-967.895167434904,-1105.33785287107,-1154.38170755817,-930.835339961695,-1100.5457276313,-828.838860059379,-1001.18233304119,-1018.16899934885,-1154.22379018828,-914.710284229739,-1130.11100841944,-789.855994907089,-908.076784498399,-1002.11456257961,-1137.92044758329,-838.124335695433,-1052.77074581238
-589.840091676024,-612.891618302725,-703.888724705982,-815.531998328056,-731.716092546065,-564.879872029041,-714.623876439884,-918.1932274569,-681.433442566522,-726.629733723257,-793.230419821244,-663.208636341361,-753.075233560948,-744.889438282748,-711.166789297292,-830.166248353637,2674.39422858774,-734.363692783422,-706.049825332152,-677.631812771292,-778.145981091695,-335.340161306625,-732.932781468448,-466.912897082865,-477.32684440888,-805.684642960367,-91.1968930490986,-1122.5048416088,-441.452775598041,-915.352321201727,-1247.79359712477,-310.455651210024,-778.091241261892,0,-1900.13860492555,-1615.03248130468,-360.477618962074,237.144018630249,-1200.85182831397,-2255.07479098127,-533.651011916719,-433.43894689223,-1337.41306444216,-426.550196033985,-736.633270896275,-781.095883901434,-932.104729660751,-838.283835814222,-936.874027806701,-957.018078223059,-804.61394501315,-944.641883017322,-706.816162601243,-862.689764332735,-875.848012760234,-1002.61895043807,-784.677821734797,-964.066662395995,-676.237884427788,-766.673910223231,-841.831964359126,-924.869467038574,-706.106470652447,-859.099037353141
-531.662829946972,-502.79459118446,-655.583683739843,-760.244040912797,-644.005704004464,-515.392300135529,-668.850503589336,-864.350453805565,-637.823369567438,-690.373882369387,-743.92257955537,-633.578125640881,-731.7690606259,-717.998117970625,-713.065047320224,-862.755371096284,2985.38989303859,-789.171358149123,-797.874574242702,-699.955013349638,-950.919980106068,-374.506633335016,-875.349007267435,-728.469850095635,-570.223428688299,-1113.42760960736,-126.313152171876,-1471.99319970386,-715.550434900197,-1018.33078067965,-1482.3559841032,-288.675612895586,-476.057665248398,0,-1930.56748456932,-1586.58208930746,-599.40537513469,698.907150269312,-1174.39658563159,-1998.96353699931,-487.60497497742,-455.902056967359,-1124.7031233173,-616.642736662066,-374.099471689062,-714.268056450105,-876.066190596985,-781.742824256983,-875.584259709523,-903.070350014074,-731.830156394616,-899.500613642085,-626.956512641783,-790.219218693793,-810.981131025637,-951.602029943212,-706.980229745153,-893.701789229961,-604.603770643239,-687.441295627793,-751.827705663827,-791.447207178951,-630.400540780281,-742.005328268424
-573.730469013084,-465.9104551114,-697.810818943835,-869.578394073285,-661.987717344708,-512.40435623403,-727.883247489002,-1008.35531563332,-655.216778763964,-732.418018872926,-829.538941774527,-665.427369711997,-814.182175715641,-788.734335856205,-751.978676733209,-969.153131593828,4752.65721596982,-858.954533075643,-931.295466091867,-688.442346079885,-1104.88969641873,-317.235193326657,-927.845877365324,-946.759216086837,-493.429191513168,-1296.85011220155,-132.674053502446,-1625.6428963115,-1098.98045035108,-1192.14014908161,-1795.87519322623,-512.418304768732,-347.237398619733,0,-1985.52355070117,-1629.47492499383,-1034.50489461122,964.595187549909,-1169.50398490388,-1946.47158830335,-641.091690649949,-622.118208513963,-1123.04733041376,-1019.86355587284,-115.551493246049,-731.214791378642,-928.824371310161,-810.856788785384,-912.750677474934,-988.97842381154,-734.046741125819,-940.224012218671,-617.052396992123,-804.374108031396,-807.872284239523,-961.554397578766,-712.303661145872,-921.540443948479,-601.400222553126,-689.194592088195,-743.15867878266,-765.49615113046,-636.022735506711,-737.627911724846
-662.554128101431,-483.736632595802,-799.50669048521,-1055.82187026566,-744.599774824485,-556.036395788041,-868.095704025548,-1245.87528076703,-731.047868740103,-833.359702631444,-985.889436157828,-758.691686282713,-959.128876266391,-916.842523567663,-839.510807423887,-1115.53202559921,6991.48588430131,-950.068121594799,-1061.33369732901,-731.380046161932,-1172.39998027824,-329.951126585008,-893.712143846798,-1012.44605886936,-398.98157327715,-1239.09923534036,-215.701544749076,-1542.66705347366,-1332.08739190926,-1378.99407372999,-1924.7059173994,-815.429253874555,-506.852279746522,0,-2003.33136209819,-1682.36861484474,-1658.29084846022,928.278674285662,-1164.91075251603,-1963.26714901819,-957.964546280545,-999.299870802503,-1224.70770685338,-1517.02256343863,-38.1543129481366,-782.156819287649,-974.236337108417,-861.827532623852,-936.044988493698,-1055.04082485571,-767.694595211023,-954.16411265958,-646.289824978344,-846.96063931513,-796.749697628085,-941.131419447194,-761.153610372952,-957.231797014587,-641.055827034426,-728.400667443544,-761.212824080864,-784.587263553936,-689.386598809871,-790.390879034347
-713.936934117194,-492.2252257398,-863.374070945001,-1125.17569162186,-782.135867981498,-611.203445008412,-975.511098925083,-1340.60457949715,-802.975406120596,-907.310940043625,-1066.62221258025,-839.883316961009,-1046.35450275412,-997.587621764103,-920.600479732,-1201.07279698218,7788.96284496514,-1023.7487682774,-1149.81648762559,-826.612966547074,-1162.89302479258,-477.929121914812,-864.638050208232,-979.355206880759,-481.400260728566,-1101.88117706455,-333.423617584425,-1433.2265861269,-1241.99765242011,-1411.72713072076,-1829.46423593962,-955.449936454773,-865.546621491121,0,-1809.97670751882,-1602.03135332859,-2208.23708034064,393.919476950794,-1007.32804998857,-1707.14294485366,-1293.30007306536,-1555.13621009609,-1206.24795001484,-1920.87991132056,-318.680984118898,-753.784909274759,-862.009993099932,-811.846699880491,-816.467703543477,-921.959519249955,-732.795560898468,-824.641035187298,-630.210749395176,-803.313149180979,-692.767037843605,-806.644090931482,-746.941606867567,-874.004970064924,-640.856104926619,-706.376791293277,-704.695573926648,-722.605292014676,-698.207077817259,-766.004321957043
-672.760102812137,-418.105029923177,-813.486306934765,-988.028738365748,-686.168055261577,-625.772371811104,-943.057099117893,-1181.15025481418,-796.593266620716,-864.033609556208,-967.829505072539,-834.746372256607,-988.325191287765,-939.097398458963,-926.828477628144,-1153.69136000444,6806.88634855008,-1031.66418077044,-1149.63202274139,-906.275616224386,-1126.47615392007,-655.231266156605,-921.830569629669,-978.853948251586,-751.347542640772,-1126.25139127624,-425.763736327363,-1477.9133464615,-1078.34365381338,-1276.40895454089,-1775.99956093596,-917.186507170655,-1037.58056884002,0,-1425.08282672512,-1200.7250127682,-2316.99166753828,-282.921402626067,-712.616326939494,-1053.69873955333,-1506.29761441447,-1999.61753743809,-958.60902159792,-2144.65571735077,-815.04352097385,-598.744692471185,-580.61448359382,-621.320334225498,-554.289708850238,-597.586999822107,-586.276871866311,-555.605534045643,-525.11130811724,-632.264613276185,-482.590062932255,-550.198428067973,-616.85138204872,-640.809957485428,-553.633698477494,-574.298961856962,-529.089335294474,-518.209141047707,-600.736449979489,-592.104841994417
-545.768936534361,-267.00221762068,-678.082102725598,-753.801043390113,-498.871129255982,-572.617222159708,-798.444865945014,-906.693757570287,-700.346117073543,-723.650616410329,-759.152643109256,-746.942367518104,-831.639483514693,-780.205290270174,-860.08940690132,-1025.998594989,5604.13750398788,-984.744170820269,-1079.73804184681,-946.471088088046,-1106.67177739699,-764.535288607044,-1065.57149879683,-1065.09041577805,-1071.08257961408,-1343.12595233385,-573.510882032286,-1625.54438187333,-1118.51776390457,-1187.73627966925,-1823.56357395811,-847.382782832,-902.682898473486,0,-1079.77102211729,-455.945110970282,-1946.33914282936,-576.924335097734,-517.45354358695,-252.270973204806,-1545.38134462173,-2152.92286809181,-579.688107670315,-2256.634269983,-1138.43088566185,-409.322615573551,-279.043087703478,-396.441667002503,-273.841686244355,-253.879060562813,-397.921808520003,-263.681546413952,-376.190618031049,-415.984182815146,-244.728342228435,-255.758547617073,-433.21662140271,-356.271447333416,-419.978157676253,-390.873935608561,-300.379231115422,-246.839902433251,-436.697020223403,-345.022376186077
-408.224551795628,-133.49172808732,-555.643519847383,-583.339604226744,-349.360673891541,-480.070856390238,-659.6948271918,-715.651042354293,-582.419058717006,-592.280594256965,-601.882729498881,-641.535052261879,-696.108926217581,-645.97844604535,-768.927202931856,-912.106262251725,5300.77387208207,-906.540525461895,-995.229063460691,-935.656185846161,-1074.95187089352,-763.689761386494,-1171.00177007604,-1124.46195072343,-1220.74315053958,-1498.93453020048,-728.588832834034,-1601.2818713393,-1132.66743865556,-1164.02981983019,-1652.48604305786,-765.45603397189,-680.993466009813,0,-867.121107228826,316.942617663248,-1262.58464389656,-509.9110411706,-510.347335056192,416.762190808218,-1336.87183105199,-2035.84587441813,-201.713677969441,-2188.59400055588,-1148.66364129204,-301.469093066564,-94.0435857673637,-259.326044945176,-92.1135293398795,-37.9831237590895,-274.329126607242,-67.1808660839867,-274.305448355335,-267.006065599281,-78.915911745046,-44.5220964649552,-299.681209196819,-152.984043500608,-319.929779435417,-257.27306330875,-133.748988466342,-47.1586010638517,-309.098176223462,-165.925501304739
-331.878123232973,-82.1756408240071,-491.933616040669,-501.764634321526,-290.26630010952,-396.151326374473,-568.143466642886,-624.995918621658,-506.344063557435,-514.973248225004,-538.04203430356,-555.61208036389,-617.201969553756,-574.651566941264,-667.349339219292,-809.071679711843,5215.49612344682,-775.705029176308,-881.732541239709,-839.658416793572,-943.430320840871,-660.001026616409,-1081.70736678609,-1005.02171509003,-1065.68530561543,-1314.57336367534,-676.027380021252,-1181.65279259368,-777.142484411976,-914.873642256561,-1049.20766304762,-613.996234301418,-349.211112730821,0,-566.736756530029,679.009141161796,-327.295722779772,-358.52997380887,-462.996974536323,941.688892984791,-822.77143432315,-1537.73217073621,155.610430175754,-1703.84444218843,-989.813804742416,-285.095984551436,-34.1782491521083,-218.058422634869,-33.2461248023822,32.6888771326793,-248.466995311605,1.26198198766984,-258.706838887813,-217.353689594754,-21.0908242653653,31.420737806221,-256.933948363821,-78.1431500827886,-286.747241865392,-211.419475015024,-78.4343109850307,17.96355158385,-268.382451528169,-105.792633482455
-282.884661935593,-55.7707683843053,-426.82178052753,-405.211469273385,-241.31729451322,-312.379252615483,-448.510522183454,-501.547607207548,-436.29049576687,-426.752843318914,-458.654662474514,-456.782386945421,-511.35600096626,-476.102975070689,-527.775711815253,-635.413033418692,4435.7232305336,-565.262593288652,-671.567199413934,-670.150957066651,-654.776378799124,-577.545731753766,-771.823590889734,-667.905897148416,-769.372883286998,-754.239146452269,-495.205153540667,-476.686379672019,-73.4977193032308,-408.837101830911,-117.932843563291,-334.387117150806,335.825099220126,0,78.4128661264648,626.418507453403,748.525961229837,-207.858079565254,-167.300328015038,1457.58287221747,-56.117413349162,-563.08317333193,557.922357590863,-787.649040658728,-730.61591030579,-279.679211905533,-12.5793246338894,-186.805397638615,-25.5579791346672,48.9304529223097,-246.406825259208,15.8264227595799,-262.765363976024,-195.046963681276,-12.0584002811591,46.3061346830437,-243.653190706847,-55.2990946037071,-267.226281004868,-190.618604448541,-66.4499883143383,23.8949503793586,-250.96169889238,-82.0622288132904
-186.644393316351,23.3912297029563,-305.542765937284,-240.62671405349,-133.304745724515,-191.465767657439,-263.019376184661,-295.67832234107,-307.668110788184,-280.494288128525,-297.828741312872,-319.421094567267,-328.510501563752,-297.894585704113,-352.148998882759,-381.531599090987,3372.25852953797,-314.924969026759,-375.086087927421,-506.498512374672,-278.444793657125,-641.976943089808,-412.869152384439,-209.123748423576,-669.17129936735,-112.90421397557,-572.646067991878,84.5030274012077,748.733598293091,-62.2119837876324,801.72218972551,181.61227388626,1251.00555626171,0,991.555992309409,614.026147362167,1642.09522020224,-100.121613607597,295.358700456643,1909.60667496636,840.64702227246,557.786514044064,1006.51376652386,231.937859805387,-356.7168026919,-229.415621511736,43.7224277011656,-107.961783197024,11.5286100469742,94.087420694064,-194.178215874943,60.2312940134897,-215.873717257129,-130.23902401416,22.4740655242523,88.7005007145714,-186.333962960532,0.247949970575264,-203.285001385049,-129.566801124725,-17.0569146496221,67.0258407653213,-183.95456648182,-15.0128460130898
-11.7188874279495,177.306935716293,-120.208681870576,-22.4244683135021,48.2612624314654,-6.90154037359523,-31.6793994987125,-45.3831502403424,-99.0640801133649,-66.9534417071825,-60.8581637778014,-129.71292680431,-83.2408954274742,-48.606555683066,-138.783709803882,-84.1345851644529,2828.21636144021,-57.0360745281331,-33.7824326968652,-365.103400206705,78.8751711692287,-773.30391624028,-179.201667026328,246.823106829677,-870.769774375627,232.399761252363,-1052.42950440751,164.402802787911,1397.54549556891,-114.63286523175,1294.08527271922,958.036466815699,2075.796380114,0,1812.7323689054,957.835805035619,2140.38122654637,74.4612040067661,739.788172699538,2070.91506176979,1705.33643387132,1437.40063049623,1393.97059297337,1057.44755368386,111.006131076779,-118.01536315739,166.266332087884,28.1051607559637,125.641074021741,205.516032418103,-66.8366017409803,175.316170428749,-97.0218686523134,2.03653156719089,129.617279683771,198.311191909055,-54.6720744782849,120.727908748396,-72.9497749704799,-2.95342188999059,106.000267557849,185.078863039864,-46.4280581391794,115.900596121244
257.569704521026,423.221180592666,155.762349713707,280.793323199363,341.44576044398,259.580807309022,273.852926472769,282.135065077066,202.715084496549,260.093896156898,290.198700844161,157.193836282222,252.449079518387,310.743508616843,169.710010789061,298.464730494469,2694.67655596274,270.613786811216,396.796380233486,-138.058872588878,442.213138381755,-784.557916078878,12.0993071664461,641.193635304395,-1077.51982615618,273.439895042573,-1658.43000843856,-60.2657406381884,1492.27535077372,-264.427618760752,1304.54526883144,1764.74797737072,2787.27492707644,0,2301.75680397107,1567.48095221697,2278.55516426078,587.666243668279,1102.00806163021,1952.5800943642,2297.9132896201,2113.03399383997,1651.01127710198,1657.09628023091,687.217464408746,95.6723981103304,388.960609678467,251.165337369939,360.685841448713,428.484981486275,170.110583458443,405.136245959705,125.419874184894,238.275856804707,355.264110119527,421.323297433403,180.198273212332,347.330298370285,154.362286054944,227.830226145365,339.764884674325,410.230653805643,183.966784346739,345.766392978532
583.685158484028,725.613251038043,501.410672548862,656.481625619703,718.117336105383,559.81093426446,640.93541796611,692.372330113388,554.276402191734,670.03299588559,727.172360378919,513.82688194967,665.395257477193,752.871742512809,553.173915720454,752.82928518312,2375.25268758304,665.121503925313,874.286339217712,214.042723788622,814.971789959746,-624.027817006278,308.246958801178,854.269943583515,-935.170982366397,251.177831703254,-1999.88896589728,-174.003157119526,765.338460748047,-146.804918767079,1104.66506430889,2182.05602196469,3352.35425043986,0,2468.39296866658,2086.0981245778,2082.37850544947,1169.92365232523,1355.25137323574,1815.12706795307,2398.80816003813,2647.55528173648,1790.71004101434,2064.38488482437,1254.48747868717,415.573808889014,691.57924395148,553.233151028159,685.893510708941,744.544605947134,501.457354623349,729.375803236172,438.930766147648,564.788632613781,671.674728423945,739.893717650889,499.584113172711,669.03236111004,461.792934443762,549.873986170079,658.191562305878,722.200820794525,487.026459551091,665.588784329712
844.540445741758,948.176964107854,787.250753313665,957.028888565985,1013.73621707326,787.071987541492,933.171221320541,1028.76505576184,825.147590014428,983.72908867977,1062.94158101891,800.030435937324,996.585943411815,1088.18367904092,855.059701272212,1088.42579716641,1675.14564913326,958.388028069184,1163.6785511299,543.975059441229,1010.55024693367,-360.175191106744,592.547152082604,706.672635619834,-448.037365061398,197.016944087392,-1823.06290154783,-74.7190278333428,-513.896448841694,208.292547773236,723.172672032619,1913.45574925808,3445.45230693851,0,2309.06507438599,2063.58574667742,1771.24250556516,1089.43053129101,1409.19691819194,1680.50511853899,2058.34811983863,2861.89880754643,1775.69115657756,2257.93415938122,1400.14782707318,722.550557917283,937.554279667687,814.160206854392,946.23940126414,996.57158524404,795.42996316959,994.376877898124,727.512999725582,852.067476864407,932.568388525969,999.647529917834,787.151108311772,939.057319881703,735.328839311052,833.610658421434,918.270423597771,978.116419964946,753.048715961406,938.655696127887
907.602914639243,947.470737841395,871.051829669898,1024.6065490229,1057.67862713801,854.684780477713,1004.07429845901,1100.74820923941,898.856041824785,1038.26954103651,1113.73722920985,894.250153705205,1076.62409108409,1137.35345997575,954.637764889167,1138.22349953193,767.38619999015,1023.83394457024,1112.36994727682,717.367566783219,919.882488309474,-39.2306836170324,705.030853705885,290.335353618506,124.004369730735,119.077201879202,-1151.60982216452,149.640110162497,-1504.58203636961,574.66192873262,88.3185507565094,1039.24899802203,2756.24836306583,0,1700.3571202202,1315.93120898902,1758.85763637338,187.986362755327,1188.74491077871,1249.84392803004,1471.82398606923,2664.88471873508,1446.85774095035,2227.8685230493,825.079607435393,835.344900459495,944.971202247606,872.233768691336,962.442941850803,988.164866838019,885.950099820556,1011.34172155489,841.22101308466,934.927378954764,965.029573004096,1008.1409965303,895.531527257131,967.779209816168,835.231534950646,913.409479607858,951.727053282203,991.953556890808,846.117100784943,978.581382555291
687.997549063087,652.4538930813,684.604113420815,797.187638149335,774.179724464933,692.660848537273,780.028614473322,836.744015343026,723.731948131011,794.17181072525,825.125542811961,756.911586727281,861.484135882028,858.613187277288,852.880917876353,913.578462694248,-298.632532594381,888.74696408894,793.004825643096,759.603807205019,680.471063829849,322.842645973313,722.552469523445,-77.1105042996559,604.772969170189,223.044167122801,-271.299210180921,466.459528210699,-1635.90316453866,807.504561892235,-493.45098234754,-140.426492558657,1119.83380396634,0,623.149748191051,112.397677820122,1748.6169141295,-1089.41174343484,686.808677435592,343.428994532031,553.611992088782,1963.89246403134,612.714783671231,1868.32633394697,-260.590558455557,650.946748189611,609.699986281047,636.705464714498,640.909406972375,621.396548476833,675.855925677249,681.083884247838,673.452613273993,712.00278091144,666.560947050795,660.252642689599,721.654349752283,655.048716780957,666.635142223594,686.440431340174,661.276767549127,655.144890125266,662.8298978118,673.012483896249
241.08839071144,136.843597225239,295.055700104561,356.632750472173,248.190091440619,313.718357004761,322.818944234329,343.924208350941,349.562795279759,342.72956369256,305.939610839557,440.800571450838,452.354560427698,361.489705145541,612.310751453903,539.459961760798,-1578.8868385271,633.942791519739,364.043908872615,742.187588451916,444.315314839699,677.310050115816,757.290919918507,-259.325873074512,946.381731933696,536.824565613762,548.399580196591,744.188720264622,-1214.87945502133,820.064356939954,-640.4953658777,-1328.95638626193,-1186.38668979895,0,-567.392140719278,-1166.51070812978,944.926762963749,-2383.88471813496,25.0686242298762,-811.4278526671,-731.180281682659,595.019872272102,-630.789533122932,1069.40080346828,-1357.39305131112,267.792402934371,36.9585439053993,196.569372403997,84.6918358370964,15.9234396471285,247.42857010516,107.51108368301,277.237237258354,257.4662978874,125.156459845652,58.805057277373,316.608723007465,100.306389290599,281.320093525512,225.902644064007,127.366090533678,63.6862899738505,241.954345755392,114.05044934973
-170.973845590096,-330.07591374648,-68.6739343926619,-42.0894881761727,-224.296371254859,-68.4698766202646,-108.636135251126,-86.1393948106234,-15.7309486604875,-70.5941286174414,-147.11566488605,118.254928795169,83.5433735695088,-71.4187498551154,344.151056642169,212.83777197162,-2727.39554275496,375.391065815585,40.4178788764736,679.784966501672,288.489008000968,896.500762879118,786.017784152277,-241.513194328295,1092.17671274151,857.137105269879,1083.4774189003,843.377918692952,-697.065173519534,548.105141445949,-355.923016509875,-2086.19167972824,-2950.15105099775,0,-1247.23602552734,-2178.92844414805,-364.996795716739,-3260.51808001626,-527.591937514778,-1703.48759387926,-1630.084242794,-993.83094322283,-1644.15290363445,178.355818491263,-1988.09999153447,-55.9997601239667,-442.702453138295,-171.617720178309,-382.937072861028,-482.943415030189,-119.086713925781,-377.097501832649,-84.949901439134,-142.749512100771,-338.198422457201,-454.68162539656,-59.0954628673755,-373.775730663877,-71.2139766345769,-182.719498397101,-340.952068588281,-444.549462036606,-156.214646476111,-367.941203344137
-260.58146169681,-445.090510176913,-155.654404510947,-120.664665945461,-319.652932926671,-169.330084626997,-214.093557346357,-144.613955485423,-123.425122132909,-164.156613229645,-211.368298280163,-1.58037178272236,0.167909612927231,-131.548632774317,202.134579611293,146.725041327887,-3101.54673155518,263.941161799137,64.1875859922454,568.483459442081,310.383079445422,837.200623667742,770.537292866741,95.9852042903928,963.840617992329,1110.80783176299,985.055304935246,826.274749562552,19.0121071701392,-22.2643186153503,137.115365019975,-1827.92567060949,-2895.19544944932,0,-1139.05230121162,-2408.7987932984,-930.979676404791,-3014.68134698925,-810.94053093163,-1941.43977596932,-1162.8140603519,-1698.41064486766,-1694.55539282236,-106.056079272221,-1763.96050675708,-122.345969689132,-512.593087749455,-216.000843428786,-454.021632698101,-548.976153152349,-174.675794259436,-448.971945388049,-155.900598141887,-207.073270229483,-410.641545308646,-535.329734161139,-138.753773006465,-445.53200680644,-138.943321521994,-258.448264807466,-419.795277336836,-526.298616170912,-245.413673230145,-443.36367350636
32.430231625536,-134.370785634999,105.114348951245,185.108105018078,19.3754854847605,95.0783944265092,79.6389952088985,231.15321907111,103.850397342353,133.296409452097,169.689559076941,173.779732693207,265.593459642053,231.938173140549,294.104549108051,398.419459374672,-2586.29539162521,369.382608058686,466.506924966672,463.62894282628,531.841254060045,573.690789366639,727.816400180302,721.495657547302,639.151121997775,1301.30284899146,256.640736178608,800.27827875348,980.653298924439,-680.041164799965,670.783849070803,-439.515435076923,-1250.15754159607,0,-568.617592982804,-1464.57841327476,-352.099869032372,-1490.42608388769,-882.74349349254,-1528.82151250583,519.101992650342,-1045.4098718482,-731.63710795903,399.65337706589,-638.462445666895,87.8755874754853,-133.029082386304,83.0594480243233,-90.4491300730569,-145.246597637565,94.2097156790174,-73.7280507147022,95.8991660198379,98.2421408719105,-61.7765190306697,-133.641851645847,119.196852001858,-74.3663309727565,113.751303428722,36.6796737817576,-63.7573544375325,-136.876941037609,25.4824309912239,-72.0155083275964
471.755727881211,337.541182526959,509.717363048475,633.555011896847,503.739762105269,503.895398575028,522.10884085051,752.241793214274,477.513056752888,567.542115721904,680.134270691275,508.300176506146,664.05748468618,712.779124465539,542.678219234317,753.744935197233,-1777.45195886658,574.413501373128,924.246693500197,434.191296381874,753.979464247102,388.57202380353,645.031973864053,1220.52213258236,368.350037530144,1266.50163978232,-405.710332339393,747.454132918509,1603.81958850916,-936.955496206936,1000.89671522487,1296.16046517933,503.654873906128,0,-30.2672884479696,272.944413528887,518.797363557676,391.80394293088,-835.582032985427,-791.221142910957,2161.72469160977,76.0993440619089,554.280089233053,999.166535431996,769.272790034311,424.010237925494,405.591490694322,492.617735579119,433.648106642982,422.81607536807,476.491710030305,450.179868784505,467.345952036982,528.776023269697,427.187811955448,428.633207466151,505.71911489568,441.989391972892,483.753765417312,464.249048510055,429.862098707177,405.183783295096,429.692841077858,443.363335036277
659.07932283825,518.703150445355,679.672393666832,814.034368291733,688.330385132591,674.242638507097,696.919256670563,956.346295521041,635.811285325139,720.722430905658,850.155962712704,668.262738972088,808.395606108985,860.901556794367,661.573627579573,843.785001774786,-1264.11029188443,604.942952281808,984.375374299277,400.321563537542,674.371982253412,351.557950977841,429.24932984479,1141.6819634521,233.57230368255,853.272161060373,-490.665032001098,572.477589037102,1381.81283383294,-629.457597194604,772.525677412571,2279.69334884736,1180.66198507862,0,-23.6523711079829,1757.8563497713,747.491978202747,1410.19540683513,-839.173622876018,-225.657737911773,2717.51976747299,403.968952798929,1335.39638428791,863.05556198135,1529.44163678196,588.845284671982,649.462352244201,652.992727853849,673.260977371018,683.497889721341,641.440397388076,677.132398667732,629.042653931062,708.83500081574,635.943860271563,662.918123046982,673.099160172362,656.737569014478,641.260287226316,641.807017200502,623.241529830184,630.381634845946,603.591923030866,654.570604268226
371.91447889501,170.372985014357,401.742457965149,504.952436561817,342.081358260001,396.322680462892,383.156329588428,613.57400247271,356.344300026349,382.008718784807,469.647531050812,422.471674868975,480.202881502352,473.37454994081,422.40336935792,474.99434711146,-1232.96525755603,271.602916223533,483.990136617817,197.650340665031,202.286354923815,257.126823549643,37.1043530199431,482.628168816993,79.1862727014494,235.297165505515,-220.044587836448,254.695407684829,666.408038947283,-239.214950458407,19.9452871077726,2063.53028474825,539.001843801115,0,-878.955886764779,2159.51256836829,55.5954718323245,1083.9677206472,-1058.33026770799,-169.704265851948,2031.55641840168,-421.634003792144,1206.61178137575,-147.052080289088,1249.70247158311,375.740158839328,367.46184221018,379.382709417191,382.439792887992,393.422393743634,392.427643274644,381.506794214928,386.991531614995,439.732362467745,346.787084674778,336.836213550034,415.68473472053,351.586833606481,394.179849437081,360.205046965435,313.248133050259,316.153789445407,346.681883362772,347.278167024358
-182.546501380863,-466.12231448248,-124.169129697134,-68.9110480383403,-308.221082977008,-145.433807649516,-204.21910025015,-23.5688683808582,-183.481838394978,-226.528284365384,-198.023147078464,-75.6831443866219,-116.217185939566,-198.065550779087,-50.9662133370061,-140.516346732732,-1703.62150880198,-274.255910255835,-272.400696977505,-133.033209850971,-394.019382413457,91.3553138188692,-388.458688584517,-296.90015492136,-112.362316717399,-206.915801080892,176.441720305269,-46.4682980728542,233.369923349156,-83.7283251588356,-572.808690775056,1063.57003213349,-912.997836867936,0,-1937.24044498805,1500.74957672411,-1242.67285797875,-17.1779725269565,-1206.68470585994,-343.49725171639,540.816890952575,-1778.68076324539,413.376508945721,-1529.90607396141,350.813344186278,-40.3482786169771,-182.996993098185,-107.009613664965,-186.979013984374,-190.806048650648,-85.8811937031402,-192.437061461471,-77.7748449615746,-69.7919992422737,-210.214323624784,-276.876394562732,-76.0181848845352,-223.020578605634,-82.3196135480179,-165.828061405855,-254.149228605961,-280.902012037123,-146.627691869633,-229.775891410038
-600.384311292185,-948.410119130251,-520.230074477459,-482.603281177484,-819.791294755395,-583.474616494875,-653.157394580639,-503.228343925651,-601.569188236826,-692.63347864819,-703.810785014009,-471.755532205576,-575.841976569973,-713.410365867385,-425.24696828985,-603.561929245272,-2531.25969179681,-686.543953961275,-824.954081256063,-369.062918953383,-754.322526535442,53.5358469179781,-646.752408070123,-728.619080741203,-199.875385817761,-308.904658937171,721.288391751011,-166.855004218513,361.76688200106,99.9265189956766,-405.008211935947,-41.0918237208285,-2273.50994292217,0,-1850.56547695094,483.970782553931,-2549.52096028275,-853.702058092421,-781.521531094521,-188.872620608839,-1124.06534964348,-2839.35440572462,-417.348130941493,-2684.57136924847,-489.018183000205,-310.741518666539,-561.505560652086,-432.682618259963,-578.976935112641,-609.076859239757,-426.555087942973,-609.733997282181,-414.188417093603,-432.598539287823,-616.363107612801,-719.960741471229,-428.223324500586,-631.553279246706,-436.098874115599,-537.874816241225,-660.610078271069,-716.929480456722,-504.613051855919,-644.941061392658
-714.843669172838,-1098.78175187684,-634.143483450944,-569.545790598651,-984.50394263014,-742.755638864789,-782.468994042358,-642.618895466859,-725.764722622971,-832.286403705718,-856.461575822033,-606.725475456769,-720.440697069587,-876.271790029166,-554.076412771791,-748.0571380621,-3230.43759106331,-822.354424590884,-996.48366167698,-446.2131424761,-806.929439200759,98.7507456212115,-719.267429208367,-755.642219962484,-248.293543371398,-253.761398908183,1128.6787499681,-210.363236165174,656.517348744764,347.967177790034,208.08998341613,-798.539048971161,-2911.67815376016,0,-545.435274941495,-178.408600084283,-3377.03750701476,-947.519780826109,60.1039949891138,213.684373112382,-2364.22299985379,-3171.41836986786,-881.761915045235,-3227.26898561216,-884.799003619338,-361.606638127699,-636.406817841106,-501.473886551642,-654.480427946749,-698.65590095232,-505.95758380859,-718.970942225243,-515.498267165489,-510.520689743145,-723.195599205689,-829.779077670702,-519.578862077817,-718.489758256558,-539.072103935519,-616.177084464349,-750.222935966832,-818.334660937991,-590.843152240213,-733.613671330223
-628.269901584654,-1028.17511366301,-557.606791883167,-457.863841086996,-888.389355709028,-693.442682332053,-685.378083921327,-549.856359597553,-646.191782245379,-735.886453466215,-751.573580155394,-562.609533077843,-644.637815833423,-779.840209133266,-531.022431602161,-681.180182007803,-3442.37182541312,-791.084894967024,-909.694641682533,-497.010586023975,-736.677968251676,-12.1081426120759,-743.583485593701,-639.712676945207,-459.07378217649,-283.48534653945,970.383423803229,-392.278425081297,662.754538445797,224.303024489432,496.029351140489,-994.449552647989,-2831.90133067645,0,447.784824268015,-292.736665855588,-3565.07064722049,-644.754868655958,576.200608072209,291.047261819162,-2855.67824386839,-2796.97506440004,-1025.28550220526,-3068.506875549,-746.91143572705,-346.460320923759,-547.621745082253,-453.400022391171,-560.692522953103,-590.584857287986,-454.213811796,-639.431159728416,-511.482556557128,-429.104043924504,-649.756283293766,-721.118449239528,-482.528166311588,-607.050015964711,-514.643253480147,-533.599404555355,-640.23030549164,-689.914301381695,-525.224354482634,-609.360051302417
-429.318649933436,-839.725571330027,-370.487261616548,-253.626387713021,-639.765556817388,-526.537029581885,-459.117778455793,-317.218159794923,-452.211978861171,-505.512653796441,-489.38665281949,-417.900695455125,-439.281310362908,-533.60501987269,-420.311798648021,-494.293060732034,-3447.71137308051,-665.256250936689,-684.751196958118,-545.50972596573,-632.321820621595,-253.226872766358,-750.260428840966,-530.59336341772,-747.354658123943,-384.303014767129,382.3706996373,-626.489512438059,400.35219471258,-308.266109258614,339.986957391544,-677.071358430762,-2257.66928436544,0,261.691050810293,-163.074562147911,-3157.00548015911,-321.614704392829,465.263278309378,4.93328582847521,-2676.29060028258,-1950.20409382394,-995.693939198631,-2389.0094009522,-131.511068802141,-281.239234640326,-348.097320682183,-324.972900984596,-356.67026047038,-359.075887454051,-332.785044942873,-424.769441550686,-444.676932082426,-263.388244222005,-455.782369576341,-461.707484263298,-373.449416940112,-374.036571189808,-434.247108386827,-381.206159999901,-419.620109975409,-417.788128200026,-391.528449524522,-360.455615597091
-110.104807354111,-538.565971638865,-68.3949867562498,60.6749095976289,-264.14913483753,-249.068052500243,-110.126293296613,54.9421678645912,-145.290570361558,-156.018877624926,-88.1400938452615,-160.982389605763,-104.886278675527,-157.39012199302,-182.699920254805,-174.287935520054,-3600.25624236909,-394.974479804008,-330.732662504296,-446.753543515835,-399.865079885842,-351.192187069664,-598.986782629199,-344.073934828065,-783.891355811269,-329.553929899882,-72.2789668570034,-588.661523463323,228.833689068788,-695.348173780351,253.763441404837,-172.501279453517,-1301.61775903699,0,-259.731491929869,-85.3101898386499,-2207.24978528334,136.515835901078,145.646070227965,-96.3730625606582,-2068.77047358466,-824.787078750898,-768.160076367112,-1425.48119932848,773.329442472412,-43.2834110528384,28.8311309467909,-26.098044832429,24.5069020576622,45.7488799576682,-60.6602569763609,-21.017358219781,-218.428862683892,48.6313940919662,-86.3660380348205,-24.5638089970174,-111.086428339729,20.1253604010558,-221.953931937674,-106.387951005547,-56.1757203029882,6.35951033124987,-138.868602341095,30.6500839802644
250.957785605838,-200.639408113852,277.154788972574,421.687047069896,143.873805618578,82.0247493418991,283.024357321142,468.123764542252,198.358377476268,230.484388687848,347.900683825285,152.732414548512,274.221959318301,259.943555292202,133.208741236053,208.171075352117,-3639.32951425557,-19.1157236103671,78.3664580022604,-170.490604102091,-37.3520340370517,-205.890144739562,-252.155494675241,-52.3906652971431,-467.827493609233,-30.6971927797362,-146.239651914169,-185.030670880135,350.679880120514,-595.794819004608,488.183617536242,246.990012496976,-163.97703932117,0,-152.684338482904,-4.09935000322712,-866.425839903436,889.02434221157,51.8270184915885,227.919216372975,-1193.0311378801,421.688251818563,-315.908864360859,-327.60366027791,1696.08804315107,325.78324380376,512.551534557078,391.616131447331,512.760688305002,553.164176607815,331.345482950975,486.51375893269,137.380732881493,470.894821171451,390.819947122026,495.57503338983,268.960357748623,506.640910282909,112.948751050471,276.148573925274,399.396636873086,499.78181904626,214.601876775368,490.31718021745
455.425662399724,-18.0821229596352,489.54119417512,639.16278280644,380.339475271979,303.403749704906,530.518228089701,713.02878830173,405.165246808446,467.16277219144,602.781442715106,359.683510078395,508.923171932532,514.621876340087,358.711665756945,462.667782864885,-3277.0740395443,275.053436645689,346.315216791695,107.739624164622,264.269215526121,16.8798986150817,97.2256261444044,181.200294503845,-40.2630767998674,315.460360328203,-24.6791917648557,334.025227789084,591.847312260045,-168.375317849059,783.384108387643,546.072814411678,756.768697799577,0,457.196525491157,201.384084940513,391.934664013112,1630.98412139361,221.498741641905,648.435097791601,-297.363938647351,1440.89067314912,154.859024305699,659.090976217201,2321.21825096808,591.674065710427,850.548518319541,690.782496946187,850.260391933479,902.599978375101,608.415588290634,831.399335595954,392.707271496663,768.111326735208,723.190504410103,848.276775301854,542.137262543882,844.192971117688,372.394762388819,568.41625196566,718.795821588316,834.40697441821,480.492827210436,795.665409268751
434.104457390675,-79.199891976787,510.560868040815,645.320087968485,364.203808368775,341.290132022498,553.756110946111,724.827515743688,424.040862615758,484.654756617542,597.677835129516,397.541220574646,539.259003113371,522.460453634292,426.008395900059,517.902431193107,-2927.98121136847,383.782970853364,387.957763225473,260.4833849272,389.194699398791,169.432354608472,294.501760827693,255.442247743264,272.566660037938,522.530002624769,138.409838417077,722.626818317591,685.288906309812,334.669697436208,887.500282234364,694.411891142623,1113.83294103696,0,990.209234718015,405.110721837642,1018.41822699271,1858.3614758925,482.631409007336,830.909145574355,225.30676280751,1816.59887368348,368.622499778941,1185.65352375875,2373.79283060646,626.534253301078,889.644615239212,730.660767495505,885.068669653435,934.426406361915,619.853178635833,866.978297227109,413.260813599012,780.807581505682,754.453804714589,902.194348688421,575.047388658842,893.759334047853,427.963004012358,619.150142970527,751.848033267907,878.86172613106,534.443944475903,825.35589349268
334.005744351365,-253.756900601951,472.110922838105,569.666196566684,240.636561828736,302.239903674183,475.232579220215,647.673231001481,380.271369680225,415.011889965435,487.219943088221,374.762759681376,493.84929793846,429.396419956037,431.193954072622,499.742521932774,-3007.64215115267,392.872080254576,341.323020454269,333.456405718453,442.030043035938,254.821764236952,401.9900197214,286.117159621375,449.987857866418,646.63197679987,325.276374138627,960.278458769197,636.018834341535,728.104846639325,890.250423929681,601.933145408664,873.751458957556,0,1246.10199161794,466.278931346371,983.788202033376,1448.47800601736,651.35024112841,804.516080170123,287.566478875814,1551.13203817384,339.88145797484,1211.40073584844,1855.84474723807,534.621860742848,751.021681485935,622.90177438322,749.403251560307,785.70663222328,496.320844383862,734.687426565421,330.287715071825,636.589851000239,613.973776415778,794.21700019312,493.769869694665,787.111240920572,392.094457789671,526.985200832358,624.793975333479,750.112887330695,480.845697028068,705.654534540543
289.162110725378,-374.367675183777,473.387792057895,517.608212474273,163.029066919089,298.232932760496,424.093213770253,592.561625059703,374.51588768364,389.425444382673,425.751574864657,386.332942783306,477.703564360741,395.025599250228,459.294692604837,519.42575964214,-2950.16048410187,418.133714468746,359.984083836638,401.71665631047,551.161853050884,321.988808838737,529.588349815717,412.947141729408,543.129724984105,801.535107682668,441.805635491111,1114.04679782271,640.158689721137,879.359966514545,978.67532417894,326.341859159771,321.337530862389,0,1336.2645112509,466.102317359814,763.335254054425,757.770651179563,648.6907606678,755.581208904234,247.678194179755,1091.06140392211,319.670655727247,1100.09686142581,1108.30841272351,463.670736103729,642.454851842814,544.386998896996,649.16124099928,676.805399883751,442.393861030334,640.056253079762,320.392724510671,552.117181545127,519.22822170711,709.967132925424,476.281797239331,707.919861355775,413.972921488355,480.639467893442,542.850808678191,629.909520971634,467.61497875656,610.917892409101
291.551440022419,-407.233124417124,475.405580580392,468.839037334024,142.817855245705,328.395241974993,405.208433413521,523.343366447387,392.904764236726,406.698780687452,408.394481331047,417.784134278926,472.08289799184,420.364388304469,495.586152124904,550.253401477599,-1876.90339177406,471.891439992231,436.186491888467,459.085458788849,679.43044060021,385.457858015184,652.177320169517,591.08866938512,558.683538236822,910.619003374429,375.176614820785,1148.25630555841,691.038565403358,822.139536788753,1074.62139341336,56.1062199811013,-181.227751579567,0,1289.38677498444,488.277503374315,688.211278777442,197.693641393684,551.329200941309,722.396945790561,367.926164155905,766.502164483704,390.474234430412,1106.52433994463,530.967938149228,447.978845491723,621.239988567273,533.957501515341,626.11908627103,655.20603799046,487.551792596062,624.050285870699,392.475932289958,572.276316424618,524.877831255886,674.580187058413,527.686363630658,672.015138990867,481.298982400587,520.402426319742,547.867175779562,569.62552980304,497.606817683898,571.955321856721
285.244695775832,-433.686507301061,428.160647071114,380.721111758522,118.919516140504,334.337175947485,364.646067064238,391.092672570436,383.678128203793,395.120910740316,358.547155342389,412.64217971663,421.707711971664,411.066027690364,479.64749781659,506.6935885729,-98.3542138746522,468.365362028096,439.066188434343,439.527554115191,663.310822962844,415.88869466094,634.18611476216,598.820889752513,472.130245072816,771.676188013925,183.011119720868,963.567315672592,501.601877900355,698.143241880605,938.369677392342,-154.448415636128,-487.877012612887,0,1052.98964378653,445.915586203973,648.930261913606,-181.740255686097,448.104839561522,624.347861769613,515.710074968611,480.875163707286,407.021998441869,1072.72130093152,237.004211433106,440.103036693462,602.009756779028,517.355144813965,588.819019335948,621.00228190905,518.331246290556,599.281236617137,445.250312623136,590.194191305978,527.874221070902,611.327245953777,538.39290308343,598.319601077426,497.801242803612,545.402215140841,546.37775383851,513.615361773862,487.875601530679,521.948503115819
224.987841475964,-546.396668270607,327.070218512915,246.583454873571,25.5110487817784,267.20109527162,263.120009618735,214.618654783375,303.093461010018,292.43134347973,226.570669707669,332.385869441867,295.291137774648,291.614828914461,368.857144017528,338.150061342463,965.197119318515,313.675129275008,252.109008625843,296.53195281465,397.514698719244,369.295669871179,391.777234405108,243.620789136054,296.155364923501,333.666693268748,38.8447498071898,594.385023530314,-95.7873177772811,578.198194372734,560.891370106508,-473.690767127258,-687.902780594329,0,729.933025254075,257.733181277509,395.432010529295,-576.624032457453,341.97356037268,456.458072728806,468.35011337287,34.0971278669506,300.717863316591,765.609296882215,-8.07023673252743,380.969843774909,490.333821252471,420.966461898837,458.750590305762,484.444352913493,446.175626076547,482.089971731623,403.042509729378,509.368023603953,420.898026575262,467.192651715484,449.025972805016,451.450846106038,417.926070857468,465.88036046052,451.21275995554,399.214744278993,390.881246531846,406.928060711589
62.7053341626496,-770.003955089055,157.775276957931,63.288649179282,-181.841149610453,103.684084842183,83.5770916626202,12.1914125174245,124.320660476807,77.8912749910998,3.19808269673127,165.693301538042,84.5544925014487,52.5263087466058,166.601716690718,58.8974580485614,506.643203648541,11.0083790716659,-107.945418388946,52.0697810449491,-39.9734958212218,233.882091408133,0.656980968563808,-401.880641674192,93.4525535726844,-209.27126085503,9.38119919865538,229.758370993189,-874.66122764143,446.159253238895,174.73459615567,-1039.55812618035,-834.499368945369,0,493.287029684326,-68.7913117885361,-143.01572670453,-961.960746043694,230.698487236985,253.619262560456,155.055977437856,-483.247175373246,136.369166314383,240.370147152108,-438.875742430548,231.188120745803,262.427776096462,226.353125465583,233.730656856895,242.293349585207,271.638962391007,257.417341224546,253.193547509955,314.118447068825,191.112566008702,239.892757871441,272.21562137222,244.920371442577,247.874078143787,271.82824777278,247.070037882003,202.369662502647,209.363967683621,211.332003844777
-182.306414448304,-1025.48776445424,-63.0854561122435,-149.01723312451,-452.877964261324,-117.512368217697,-135.720564687703,-211.547136411027,-110.996441459933,-191.609702950221,-259.581966408232,-44.0090696238409,-164.439358817018,-231.562071308401,-65.2258755338312,-241.189210077481,-704.816503617581,-313.770608703309,-481.228529130576,-213.864118178006,-445.218808237454,51.352731627081,-357.670414751983,-1014.71907046418,-71.9961954467609,-607.131063941623,3.10236203980072,34.7792779838206,-1460.39619650478,317.560798208061,-64.9866527892434,-1668.84620015824,-854.89244827544,0,362.665068463956,-511.413456324727,-784.128541636031,-1062.41167841221,151.840831089964,-35.1020437107807,-348.347196873221,-791.833199396863,-72.705333635667,-246.116468317685,-947.070190522613,13.3176434566367,-20.0690906139648,-14.5895872639696,-29.2596947529671,-41.8689810533633,51.2330766262965,-14.9695905733418,42.0277923408005,57.7435809663259,-80.5397096328111,-26.077365924919,50.5696554914182,8.3260488653645,27.9061646486464,21.9051340794235,-9.17195241508606,-45.2284349926423,-13.8368730556922,-37.8601806318774
-375.077518742846,-1155.1913074652,-231.979723875777,-303.504123257411,-633.029143511068,-283.004580307842,-285.607289944229,-396.051243725708,-282.864108375964,-386.640441121201,-448.507888136579,-190.935213119202,-341.843218468689,-429.642687689824,-223.821811343741,-428.964878567412,-1419.52553340784,-506.120656351518,-693.484225852405,-391.632132052828,-654.801153923427,-102.273066289776,-529.096683506026,-1315.65507461235,-148.566935362965,-746.691838877131,-27.3435010469602,24.9673680972944,-1723.07060381495,293.648165647154,-228.316917518839,-2022.30338545131,-781.406050516645,0,220.765340744628,-992.498981103906,-1270.31552938917,-837.395100147454,112.204138610821,-458.682490892478,-870.953166953319,-840.498432351088,-374.809971342973,-552.296715861517,-1251.4982556648,-187.899299089813,-257.578651544615,-210.515235400104,-251.265385725168,-280.198930797399,-135.326816058015,-234.518639334878,-137.324957567332,-158.297710406731,-280.058567237957,-237.836218966007,-138.324625411622,-192.207269337768,-151.662487752635,-176.183816520111,-216.172404735261,-257.150555402099,-187.417656760579,-252.918381498213
-428.721635084458,-1073.41221916038,-286.169006017666,-344.208463135605,-637.63133857198,-338.108310721946,-315.114726650901,-473.293359913584,-332.620109941842,-442.671788561362,-507.268410668289,-229.135940101034,-395.032129471848,-489.57938542464,-272.151203853466,-462.687413289188,-1524.26544664492,-540.599954724821,-725.044908445103,-434.814089250841,-685.678934236344,-182.366098566683,-522.047714771491,-1315.18316859171,-139.582593302834,-720.336917182004,21.682898898203,31.8304706218008,-1809.68930584763,401.889090538814,-523.854909892821,-2075.30203446082,-843.668415621944,0,-106.715322993934,-1408.02733066075,-1574.65264804416,-668.862624850062,34.2791019929542,-944.642299430645,-1299.27817383034,-928.204758547538,-754.926141636438,-795.747895084425,-1351.01968104116,-313.816627077834,-403.728451705124,-320.794493770828,-388.782656778831,-421.080831278521,-243.096502126678,-351.653622891448,-237.573065077213,-266.290272469433,-365.165644784156,-334.864376931611,-241.89017194059,-299.318741567077,-241.366636456405,-262.683413248203,-315.518990007534,-373.096023485106,-258.037204709121,-366.194828264741
-427.206220382911,-874.617866133026,-302.251149826101,-341.572465192111,-563.881156140138,-368.837255728263,-317.085395433854,-477.373362582302,-348.696964607936,-450.31642220449,-521.677957017817,-243.877900174495,-405.668282761753,-511.203555325931,-290.995327288861,-453.837941340725,-1893.55481208295,-543.495260223784,-719.265979674266,-428.434542263203,-701.370050430403,-201.086580812743,-511.707491331152,-1245.50650278172,-133.68957981511,-752.741493658329,248.880504688766,-153.719441916631,-1865.75474827248,493.217109938376,-1040.77971257568,-2113.82079895515,-1231.01612789308,0,-670.689244180875,-1767.71252432403,-1912.848477667,-957.910052324576,-131.210098830027,-1342.87613943348,-1679.17834501021,-1346.63449673629,-1124.27813328387,-1161.85728270959,-1567.74011745317,-372.639067187551,-487.417831513696,-383.826648519037,-468.284314210332,-494.437481433139,-307.69889259774,-417.835037365874,-315.94105532365,-314.70990742088,-403.469050894811,-372.483874339977,-304.883714401944,-343.98762218993,-310.832053516261,-300.5115232143,-356.085641924892,-431.692150472276,-290.424082381219,-421.102426299965
-461.535853255004,-681.945413749322,-355.778342882476,-375.582645856179,-523.784091702426,-443.655675866197,-377.540563311966,-494.126368181747,-415.10592938545,-508.733066925471,-588.633729256087,-301.891198876895,-454.283814498276,-590.378355174028,-341.720184704672,-502.461116056241,-2782.8769908576,-604.296390001262,-785.793694188355,-449.88447298642,-800.145860525034,-159.693120528424,-605.694452795367,-1273.13656934272,-158.266545986461,-936.745926315008,612.648794145564,-472.985866742735,-1874.65239557666,461.794523303001,-1517.22108992167,-2243.91035470251,-1862.73678266559,0,-1152.61102653935,-2115.58981935893,-2438.99008550484,-1706.32581735585,-269.152258849258,-1521.22136849471,-2070.59634199434,-2047.05588944801,-1404.58318123778,-1644.65966381823,-2091.04353609448,-389.982743489317,-549.629672097605,-437.687446037475,-532.639659718445,-554.434520891727,-373.987028876195,-492.060981472309,-416.074487754984,-387.926425821677,-459.595345573884,-431.356846348277,-384.260564076908,-387.229211506415,-413.51325153285,-366.555666971113,-411.895374032567,-493.899502563676,-354.397771676876,-480.958367558693
-501.875920530411,-492.771586363999,-420.779331534699,-429.216975888488,-498.039426065923,-520.167950313606,-456.985665094219,-541.723278314594,-498.129920761135,-592.709562192368,-678.494858585559,-368.135338522097,-516.523305367733,-686.203445709856,-393.202435513238,-570.535947033969,-3431.18400784272,-668.292089625289,-869.21634406262,-447.787420875762,-902.131429113683,-49.5469989109551,-685.463525413416,-1325.92829275915,-98.2683438555768,-1088.94662914285,977.664722069855,-633.571559571344,-1753.1332846322,391.641208238916,-1603.06579455461,-2227.31181763107,-2477.55852655288,0,-1146.8315214271,-2345.15613391143,-3044.04795433191,-2535.73389299097,-248.346590592231,-1450.52610290433,-2368.54302739662,-2725.12064960444,-1546.77340117771,-2056.22498430527,-2689.96370079022,-387.712193003352,-605.045907660018,-477.752118836279,-585.965999004079,-610.131304430425,-426.743983486858,-560.824209874482,-485.193624716217,-485.807178669003,-518.698918713046,-503.364004170071,-459.048947981286,-434.408610477105,-488.078679314262,-450.862694009816,-486.010819212647,-554.745931332091,-421.708087478644,-531.460877521638
-469.205251724124,-233.424907582954,-428.754953851869,-424.965880591308,-392.061363670872,-530.060755933894,-451.379056120855,-533.874348726931,-513.533138724395,-602.239153556798,-670.160954990178,-383.831180673002,-512.618998571893,-678.44484716681,-391.128207639428,-543.888710288009,-3386.7299145047,-622.480297086824,-816.194690049153,-345.679848425234,-846.586986327263,84.2859574308629,-584.244514025246,-1181.49856560118,96.1367010678935,-993.222209210211,1223.39298276013,-541.268865841452,-1416.17172547401,368.560421292054,-1328.31660093246,-1811.17351894023,-2876.54493244089,0,-718.167558813282,-2238.00831748375,-3293.38989117787,-2983.27865223704,-123.178800094011,-1207.88407260384,-2333.23633156831,-3031.72343756544,-1458.82714357958,-2172.0008509394,-2922.44721932725,-356.894122006511,-604.586380432786,-459.185114870303,-579.104975982613,-605.564118192827,-413.082371401517,-557.140920758985,-444.6713747274,-524.838677944178,-515.53271314054,-504.850049749614,-460.882603148098,-429.350773899476,-452.862233999778,-479.181041205817,-505.060991896862,-547.559555934012,-417.420645632756,-508.401782105897
-307.987967601387,139.983087873548,-318.018532124499,-280.730108445114,-129.712174382048,-418.776612951356,-283.998045658124,-354.48001907146,-402.135812532647,-454.216700552921,-466.718764690409,-300.522361491836,-371.293547468983,-479.732414054485,-294.768942646691,-341.699547144178,-3098.24039773071,-413.905334889031,-526.529167738019,-174.791835450225,-568.634469055671,143.137057253606,-343.426023188476,-700.984235017824,214.058844013995,-699.450183306662,1233.99132123193,-452.561483754674,-739.641249375136,296.510947557932,-966.987992002671,-1017.27423831769,-2903.03888051823,0,-312.367195339791,-1676.50337536813,-2621.38116729762,-2757.62774519969,-39.3312349840883,-874.540929028034,-1834.83357221366,-2685.69339874427,-1058.35279172765,-1843.70440370945,-2522.1275604684,-249.383667656646,-450.356457392784,-323.254023675053,-434.061005934006,-444.79360953632,-289.672939527934,-410.977344414451,-267.040376948197,-423.862330317679,-378.281224300258,-351.066115800807,-340.933828560914,-292.973399070967,-290.212943287796,-374.285057668118,-379.647248427486,-399.864277990898,-293.393739720849,-353.727858282724
-80.3753626747667,549.990624005621,-127.723233854372,-35.2334652575923,223.285676998268,-218.897416340029,-22.8353248171424,-46.1676145430019,-220.328112938773,-201.816573847246,-140.919111825016,-153.297505685938,-141.529901268611,-166.660849810857,-161.004879537883,-53.9784924375546,-3011.69544632996,-169.955021339731,-114.518434913909,-93.6975619438633,-250.631734321995,-8.80612673307679,-223.013768312963,-52.3591883029351,-45.5847938480144,-497.465330687706,847.349168954476,-642.288170589031,216.60508322423,-40.7841924740381,-656.762433191471,-133.962940850255,-2297.50322629818,0,-238.72946235365,-842.391606718502,-1018.21174399202,-1821.088848011,-104.341221283473,-535.476403047411,-1045.01742053301,-1671.29936012934,-475.023080406887,-1148.15421650142,-1618.56067007583,-98.6750819137917,-172.730829318605,-118.189437635151,-179.816032600042,-149.532680135219,-109.917091521612,-164.665933654928,-47.2971091175486,-232.650670766285,-144.230458520847,-90.5857034034903,-162.315759132041,-61.0880043332604,-90.2989891777126,-177.70273842737,-152.986277383799,-168.224528241282,-111.488100079786,-126.545504913846
52.4375745175928,845.593531095479,-8.37693226765425,138.773027832074,482.027996933046,-79.0706675439769,152.012683120707,195.160220753264,-116.289677439206,-18.0698033358603,109.733331315745,-79.9907717204536,10.1818092908563,61.1291752413488,-138.983509414952,106.655846335108,-3006.15628342685,-101.939618781909,174.082161832819,-227.128375983767,-155.57968792939,-400.748602424645,-382.476496353612,390.623479851267,-635.314516419927,-574.313403059176,87.2633501027752,-1046.98773533904,970.370976977165,-707.163581647528,-460.518272024768,546.041841041081,-892.494457261403,0,-433.696408233838,-116.974750174337,711.537652927778,-321.628228449809,-341.590602606512,-293.550266460409,-233.575052171166,-321.531648955026,26.0498811842638,-357.185186858056,-560.976003245824,-15.9020216323171,56.6665984496697,15.9439396479534,33.0442701756671,109.603337934798,0.223735131965711,34.5762038542784,53.9083396006272,-94.1185083350757,36.952844447065,109.477194552664,-61.2208936332149,103.803297378165,4.93533593166114,-35.1678725084994,9.84069128289892,-20.7076552508913,-7.92819086819403,16.7550103349502
60.0464288466976,1006.2165642817,-7.26600710738448,179.849934410869,594.140942393474,-64.0132503071409,194.738719942589,296.090525676467,-120.484887708131,38.8580604105928,227.956655939009,-124.680961029792,31.1108742279913,143.000150236247,-249.546092794112,94.9987944560139,-2909.94251443616,-207.116140667623,274.327690851207,-480.50260281223,-259.696601590393,-810.817340505928,-649.367602784786,474.516739721712,-1124.2303344372,-775.499821121742,-672.16417099163,-1349.7299786852,1060.38468150798,-1443.6870124009,-418.954410788226,959.478395810904,1013.09216518471,0,-585.670637863171,327.068284855859,1808.16408163076,1383.87880573445,-611.731181928547,-141.619396849789,514.413644344299,939.714101627752,350.096903598029,309.940266908736,400.549803869869,-6.15524860802939,175.309340450917,50.6874988529848,141.718269933096,250.672949993104,13.3977833439446,136.420951375595,11.256715853611,-41.7847992322599,110.46928730988,197.099394836052,-66.3704741775555,140.581817826465,-25.9991793043436,7.16561382523887,55.7970227860498,7.30426205228445,-6.07078820702467,50.2301836110849
59.2452445682716,1117.2895963783,-22.9344022662098,182.744178889097,651.942064297645,-85.2134530584007,199.423580837855,334.310996466563,-139.119445619294,50.205621092313,294.912007453148,-188.298796856612,13.2813106542931,168.584120867664,-368.016387688289,40.160375402266,-2882.13865021618,-316.026255623736,291.816215831526,-663.878997875463,-338.897695184687,-995.457055695055,-777.204766695676,400.12911809052,-1227.71548337922,-807.341180715534,-1081.53276439551,-1349.04307764161,657.389259133098,-1872.95445491873,-400.06735449582,1137.79543847433,2603.2520951067,0,-480.125281935459,631.782773926482,2180.17933215996,2633.7671639841,-710.790334199803,18.5058375144708,1128.47918880299,1766.61381178795,548.194117639232,712.584171599999,1040.86407855654,-8.40604733591126,237.047160835772,48.2396806300926,183.044544257228,313.525684800462,-20.6426220336894,180.385574283451,-80.9531561933854,-29.5466375510529,123.967496045365,235.55944418941,-118.6802365066,115.178113241404,-99.3600050782104,-0.263077401433229,46.861107626266,13.8296541829468,-31.4819683684723,68.288659699237
78.3895838589074,1168.52369030215,-23.6112626605535,162.924906180086,652.572133620731,-95.0453300847762,162.112261823067,314.484226626269,-152.128223100666,23.2895708578564,290.897381771657,-219.595191014816,-22.4833261613485,141.254299814391,-437.080001868503,-26.31180172122,-3058.88367349431,-381.311652166611,233.418390405946,-710.794816206528,-346.562362472756,-936.811179240928,-735.560215584901,369.859430616883,-1017.06933051631,-574.316177608869,-1092.46730317501,-1047.72533523797,278.280648287781,-1775.57732924702,-271.229530634591,1021.09210048628,3034.20917305879,0,-228.142582778218,895.020005651194,1984.30753362205,2771.86561338781,-576.283626923215,199.219608377013,1329.99394797057,1849.07737197851,595.70091699693,680.234279259837,1005.72184900062,-69.378187121218,194.056470732158,-26.7827853890159,111.346112206976,256.787804946551,-124.0053303594,109.229380610247,-190.49042325534,-98.2832492034263,31.8807182807484,177.267783566463,-215.229116354905,16.8721327963636,-189.552811577986,-74.8693552388861,-37.2409290239515,-15.8173349527285,-88.8498139839102,50.2119113393378
30.2953642573145,1085.78245166512,-89.9345841467745,55.6878435781895,515.690543565599,-142.100100919723,4.67319543204177,179.907592558075,-213.767532374668,-97.5447932228171,138.572525264002,-256.5946863636,-129.442872430541,-1.09492091087731,-481.44848460938,-164.971899992838,-3341.8025316298,-454.99946911636,37.6694379413286,-638.205482243422,-409.086871985182,-708.014920607993,-632.958383187579,311.966101109767,-628.603018362587,-281.179264210477,-752.479166978795,-574.43138422066,53.8035706769157,-1176.53509253044,-139.492633757996,614.065611390669,2217.78193060988,0,-64.7294112561044,1000.78539857644,1350.81429266741,1784.92177141928,-270.712939618299,344.398277173145,927.623635393872,1136.04512551265,439.697744097691,198.385110500636,175.213359991674,-259.558529191177,-45.2782839620719,-251.142219549989,-146.177313713022,1.91773719950977,-333.592267405462,-162.95370116401,-340.935413631688,-307.52897441572,-254.204392928146,-86.0222053992591,-373.49289015383,-225.777594701837,-321.356086839816,-258.337527068025,-259.358257429275,-183.194706468789,-229.628821874454,-107.04737505106
-109.665991976911,892.097503883185,-247.415536831792,-97.5647099698134,279.122913615962,-242.947101150503,-223.534230678486,-26.8280815037423,-321.697324643785,-273.22108438062,-100.444175137341,-311.243761589069,-281.280340653833,-208.599705701659,-495.70477034469,-335.258069525859,-3668.02894952748,-510.888966659875,-229.523727058226,-451.222926665071,-543.03158588252,-353.278221416097,-532.095739778682,77.447480608414,-172.989005814881,-183.108599526672,-145.12098032279,-158.543666172437,-230.651024268462,-347.641404360054,-149.320805947419,88.2601592000014,981.3038566893,0,-38.8050205704945,830.000774053722,606.907231343707,403.038974133482,123.643765786014,447.764888594478,172.275642092092,98.9486737401031,153.121590116811,-418.661104609249,-960.573463081446,-506.207658867515,-398.32569501086,-560.130109980361,-504.306406341713,-368.752872466625,-580.4212368779,-555.456892113261,-508.054424867253,-593.573097767329,-652.819240369775,-485.662085597355,-549.167502291563,-566.217073227568,-474.212377389778,-492.524841850139,-564.157953466276,-453.931350748882,-414.795897604423,-377.903950494434
-274.481497287151,676.285839423953,-432.638789110151,-217.088765142859,51.2381388094477,-360.452354778621,-411.81172415629,-218.105651179195,-433.926428480027,-429.45403772191,-311.511174973654,-368.35381759078,-416.132853644695,-391.203690457217,-483.139330204764,-450.886079476276,-4100.88445909679,-502.363721545847,-451.92196170015,-210.6808889799,-628.910955713966,3.62173329188119,-415.400143218119,-272.841334213793,151.186611668328,-244.079221892704,443.473553459273,42.4136750078498,-590.763475242104,287.627160870764,-278.966038480621,-447.379343618568,156.775555504049,0,-65.9076116213396,351.612439579476,111.785469679939,-657.8636583462,476.558762111762,482.468364318658,-481.011770075766,-659.351548274546,-140.69848473351,-825.185055855047,-1758.83504728757,-687.432486285431,-689.018482918584,-803.332455886536,-799.666769923584,-688.627080606494,-765.492824562862,-893.452237037836,-647.77885178785,-836.905098153904,-975.357183613224,-831.054617730823,-695.796755143795,-871.207069187479,-611.668354011517,-691.734298290588,-840.654539050137,-699.920266347556,-567.30261628286,-642.683361624255
-437.285680324712,454.708507028597,-617.363816097076,-353.177187726469,-172.748482768893,-490.987886792035,-585.457369614609,-416.022950098299,-564.6024347997,-595.607016788974,-518.982071244951,-463.624153033435,-567.291595151779,-584.00292746795,-529.908290700512,-567.174675984583,-4642.28143626903,-520.540872787733,-666.905604714952,-97.441454547583,-682.935616767061,146.466857518719,-345.806970041288,-620.56468809233,130.241606158598,-316.787341574732,636.856586594922,-5.6926951432999,-873.397312456488,393.706151121011,-527.422832006741,-1015.37101011153,-177.856225154051,0,-176.057757491227,-443.039881213811,-144.460769883404,-1296.7528482823,595.337254318682,304.681872041102,-850.301222344069,-1004.77780506056,-431.068151436879,-1007.77180102909,-2153.28887606613,-821.02781477163,-902.021988478569,-958.377284891394,-1014.54399417188,-935.754042148634,-904.262791697577,-1129.78580390593,-782.060917271101,-1023.70832046109,-1177.9580938492,-1066.52511101483,-842.881810520418,-1095.47501068293,-755.461702237499,-874.565703084877,-1080.39765294961,-894.972053879803,-709.477765894023,-870.583800598121
-599.731601599549,221.763452356296,-802.374853736526,-550.057824433123,-427.997070300863,-634.46651558856,-798.518683434975,-657.596681500739,-726.16231705333,-799.892291005611,-767.264141137874,-620.612290278569,-767.668983316672,-828.25043759561,-689.348643697607,-776.370425220135,-5132.77036516345,-678.810789880132,-948.085762259585,-245.806666798275,-850.335502491362,-27.7803966513655,-459.184447974123,-964.7817946918,-218.529862473513,-449.197273120417,332.151852029842,-298.639170078744,-1036.28001532674,17.9449201337744,-950.136059996761,-1459.24807466474,-288.453092380828,0,-445.284270986837,-1364.96808814495,-362.369717130558,-1588.59811933364,385.205476375808,-161.118357859162,-1012.19045418914,-1102.46205855438,-735.940685380048,-1114.37230327591,-2393.96271218077,-974.56636948819,-1113.06153495054,-1093.89100222786,-1206.13576133213,-1159.73858574303,-1045.82502897172,-1302.28163597175,-930.334116425974,-1190.37931863786,-1317.72857804298,-1232.48598964293,-1004.20752005684,-1240.84082775911,-912.247345741134,-1063.90732507851,-1283.02049855697,-1050.45321101904,-879.822828325296,-1062.33490594322
-667.086590632014,92.5160463898637,-891.978119387292,-660.1703630007,-577.195615510854,-701.885690284154,-925.975045739763,-804.003506258727,-811.723946553265,-907.321915197549,-906.441026242864,-734.208203768699,-888.328828359806,-971.302926371115,-829.266460385762,-945.780376549734,-5326.91742375461,-845.68275318963,-1126.9130814274,-492.715185378296,-1020.92810750553,-345.717188968449,-629.089204209986,-1168.01515248309,-557.197252981391,-586.195272658566,-162.701461433167,-633.886384170283,-980.019658935328,-378.908929075146,-1306.18900954066,-1413.21455460742,-213.073507358343,0,-689.966176358748,-1916.47704729025,-505.016855551282,-1314.28708008854,16.1850844975367,-670.127463307809,-957.93085799453,-927.668458989922,-904.714388497133,-1077.72360294603,-2328.16824030065,-1063.52653450563,-1227.30424414733,-1149.05912546099,-1277.08907643836,-1250.0161591756,-1100.138144828,-1330.33819254776,-992.830383473347,-1246.37415395688,-1321.5487759584,-1245.03681700652,-1066.30912032108,-1211.66333847564,-974.168384513729,-1132.73560335838,-1300.97986054606,-1059.9343523553,-968.630676139852,-1098.95824495928
-513.029511039722,223.57235005225,-741.258341381442,-503.334149985049,-421.005327785105,-584.453408777185,-788.024199447676,-657.781283475395,-675.201068824589,-738.690133417299,-724.979076633024,-648.911303356816,-747.273632479433,-799.282880934215,-737.636525723523,-809.16687873442,-5062.57628562293,-725.588320737195,-914.700638240129,-480.994820842435,-831.862259652848,-503.055650929767,-478.197180271148,-919.003101569067,-543.117216644981,-407.725838772456,-462.450095393091,-656.752025622565,-494.952548048554,-395.713468256889,-1088.19035582141,-752.504433213744,100.038409457124,0,-526.648577016252,-1688.04428446253,-371.598624709274,-425.009628899291,-180.364963317939,-786.912734133683,-540.347723384168,-386.959486020505,-688.028680836666,-690.315910404027,-1638.94034665439,-933.851115286352,-1052.73874272758,-975.180735748206,-1060.90662730268,-1031.55008678747,-929.205481086543,-1078.91853146712,-845.718057538468,-1053.30237470989,-1055.83164745615,-971.834070864581,-897.400248761712,-910.038442230095,-820.873094780728,-937.463010060351,-1004.35680349867,-804.467110649192,-823.387082450299,-856.596788500581
-99.4863854004891,673.745531801436,-306.989336226644,-47.335124282931,87.2682308171705,-243.325164885266,-344.216667170954,-173.749402597201,-261.508585463735,-246.055610154344,-174.803940550848,-298.714381518886,-288.425266546332,-258.380443553271,-333.040116700406,-267.620347517396,-4265.30102923393,-188.827087569258,-238.573319632325,-51.8130331076791,-136.712899609719,-373.155528710562,151.643807285142,-150.164744050531,-166.567098667056,219.910343424456,-513.767956706739,-255.31680759157,394.435057727534,-79.3934181977288,-124.341317825106,354.642792356302,712.429611109242,0,198.710848491292,-684.617669252199,207.939894783838,744.134897535207,6.77801058623009,-268.622570053025,341.483871672777,470.628637222649,34.0954035419775,112.711616832345,-427.988468221596,-524.183139251292,-527.100328920627,-509.376300609694,-518.135261084362,-471.340153040771,-493.278065942482,-520.530448512899,-445.996117969931,-581.544831330521,-498.410148368454,-397.024192725424,-460.861359531336,-344.505948629078,-418.964412450996,-465.940589666234,-430.284116228617,-269.027434840551,-407.369767264494,-332.823608876855
523.250878195558,1387.18058452689,315.393594681148,637.08883907668,842.100136182806,290.904385493357,323.337386800414,548.738451722056,372.996384618381,486.717814614385,633.53877292105,261.014382071336,404.976003804173,543.197429084465,281.042170153289,533.221957785863,-2928.55717447295,606.018793493465,712.561091523319,588.211491008026,806.740014236458,-120.004701745467,1002.89001692994,811.082880638751,313.092395274312,1020.73071991533,-585.666988239109,385.129649320199,1306.90764918475,308.689715142126,1122.88244140147,1798.41805425331,1772.94338964844,0,1193.36903457097,826.247019782987,1371.41679434806,2056.51952940041,502.917778581646,726.9330949255,1596.85720348704,1622.97033977465,1133.69906164259,1220.12594747882,990.755262249182,137.671244242568,274.048765201698,206.356287716912,279.389348894502,344.375968787512,179.26072963031,277.739872617588,194.275595611989,115.306766996727,285.034864978364,408.023579479894,205.684419475929,426.827693947552,203.761211052274,224.191380994586,331.651595182565,496.908674178412,223.073898208743,408.597746435146
1183.7091783937,2143.98397042278,932.579121392264,1377.64607203543,1636.56764280313,869.389495512853,1024.40820425992,1306.37135963855,1039.84389787469,1250.75863094532,1465.58013869193,853.63703488456,1123.52664765943,1366.14808832659,882.338995683316,1306.13593509111,-1368.91076779895,1340.68910227286,1624.19356368084,1096.31960371304,1607.00320138385,21.8490414774884,1687.64470830049,1564.97450229358,673.548500944112,1644.43529692491,-828.896580632531,1063.05693263261,1822.88099108562,674.343278246044,1971.38614290558,3349.81377153778,3115.87967811824,0,1946.09121723344,2442.20839151148,2937.88957959544,3534.55713825494,1031.50369056457,1758.07478478747,2852.79000653597,2958.07731652,2247.26809726587,2373.69733746269,2381.84362653014,906.003069603492,1153.51649815695,1001.81333829972,1147.34380151458,1222.10837943753,949.412624351071,1133.3681336479,935.223589569315,880.597079113991,1118.76897505884,1260.69994682398,944.855467650342,1247.57234556891,906.319785157515,984.688461695025,1132.02758912543,1321.00408429924,916.384881417665,1199.378770141
1605.97791700047,2590.30882010104,1323.41889800916,1884.1656694165,2189.04821208209,1242.25975662461,1474.55025506007,1801.36609612248,1474.2329908189,1741.69197207497,1986.01219527331,1248.06808872768,1577.73256174622,1875.58624499189,1254.89516832757,1756.46703444712,-219.946506784702,1742.95530814128,2157.94674489987,1321.74340541089,2013.50619464266,78.4992532862295,2007.24372952574,1908.2403349372,933.205510923137,1953.79950558661,-920.917329068745,1625.13853991188,1828.77135030293,1062.83773095327,2087.40234514567,4289.23048891473,4051.64124881464,0,2104.14387197747,3502.05021756271,4176.93314310126,4613.58180937801,1342.414342113,2380.41180044196,3535.30329305029,3950.54104722835,2904.43976756755,3152.92216615824,3336.53647846856,1471.10125653571,1757.95395746213,1552.71043773646,1737.81189270009,1812.92182885878,1498.2989108664,1703.25996991968,1464.46128203534,1407.99779719269,1666.31707742804,1811.39671597176,1458.49420494917,1789.759423757,1405.2011894325,1513.24493133417,1662.1952129553,1855.16148435896,1407.12020448535,1712.47686857368
1596.98071603461,2495.49448058441,1346.9514975973,1912.71021861021,2230.53528906432,1244.79230934865,1475.02114004992,1790.5339757823,1514.13086615343,1738.54998579098,1939.9182928949,1303.22042822013,1568.0059504379,1830.20420745169,1294.07640926635,1711.32810114318,77.7628007188195,1699.8243029931,2076.84829456061,1316.29923235661,1919.88786651132,253.950098377093,1920.30705865494,1757.07490081673,1153.44633638195,1870.42369243937,-507.832253000589,1802.97082190574,1403.03268305107,1351.4152508758,1554.88022278557,3813.36707534967,3968.45604265677,0,1645.14637085162,3224.55092986898,4332.98476512686,4304.7278776233,1309.92461357105,2320.61556528294,3215.29305660553,3974.92378834819,2757.07601530523,3175.17532630677,3312.59551456232,1534.3056252126,1755.74487510866,1568.93801955503,1726.56651643349,1792.07098460768,1533.07912211101,1680.04083859077,1519.0882238539,1429.17971311328,1638.90901570916,1753.04683335461,1501.59367667923,1755.43843745425,1461.22896375956,1540.59224485325,1643.17117407079,1801.68888418075,1464.97722310568,1670.77356865289
1214.88438160079,1972.86463735734,1056.45371510023,1487.19672289031,1712.19192638921,948.043588089844,1106.45377137594,1318.51515549764,1222.73403240925,1306.47968769142,1397.96419254839,1071.40195941853,1163.41435506214,1310.7061560359,1058.14766628102,1248.85237125065,-346.550100824104,1300.35294825771,1458.10272418797,1152.26866941134,1391.44719266828,545.984971742105,1471.93519689658,1156.82981384612,1205.97171742764,1337.45278886349,157.994104544264,1390.94824153469,631.789202586649,1275.70155023855,678.607149153247,1999.76339547508,2900.61400157775,0,878.741948206403,1550.34887062877,3346.52097754252,2414.1164615113,958.650814646372,1604.29756697499,2042.34800583855,2992.69063081627,1872.32097255195,2452.42710738692,2279.71442366155,1112.82259428784,1180.13465121927,1091.63342659761,1158.2728480603,1201.49487445058,1105.61201686368,1118.86129070367,1151.35400365127,997.776426642213,1111.83070313866,1155.81755250915,1122.89854484977,1199.72955900953,1114.53437892761,1113.50193383603,1142.67005983913,1227.97655911466,1114.83696615635,1142.93782680938
705.054566664153,1350.95963346825,665.920969781411,889.865507767422,949.72703632215,568.11898788657,652.585456455804,707.286820044714,819.404808010698,753.683646699538,726.485139863548,745.175413827675,655.922258908086,673.578499945579,739.869947114579,693.56882968382,-970.232321269727,829.42946120915,730.440094772748,918.190974461234,785.148875550942,750.327186795297,940.847997712735,483.860002650922,1024.93404306838,663.240153445591,580.287636551075,678.878507030449,-145.990905975636,859.442725403019,-108.366570935129,18.3260969579835,1371.19343771313,0,246.918046409906,-384.48781633459,1843.75990412388,45.2396341646855,495.611454846519,590.40952670029,726.072604791282,1599.54768551088,735.783466446789,1394.5027286574,908.192881874168,540.441617363886,441.589026982107,477.71107887564,440.515674403904,452.687734956698,561.195466077235,420.226870418529,659.096389415344,448.176740724608,471.628833998819,428.359207755865,613.869836040835,507.579190904765,634.34074355464,549.782693367956,521.477290669143,516.238749634693,619.475735993268,489.284411132014
272.484589905772,857.79351638066,355.57640815302,372.71957433967,349.112340292274,245.059464361942,317.16444373477,237.662239056098,479.37397667446,336.815697985611,238.602553841732,464.267402559223,277.341636940683,211.38955813476,482.685766009127,324.449208576082,-1371.52889037495,528.364402358887,291.810384834261,696.908825619641,478.665706191373,725.69738628633,660.701303576431,194.250288618919,772.748014360945,352.390464475177,658.802843182694,227.028365521786,-431.893394123394,472.109048744436,-533.352240923613,-1012.85248376399,-28.5585794850755,0,-118.282910023762,-1356.99558667517,505.43842959569,-1450.05780791388,119.509239648879,-339.159300105353,-141.513376618426,412.83722110697,-203.426054411802,428.391417934815,-70.4333899959059,112.543710399116,-86.4100441486172,36.2255895292845,-74.2693751920534,-89.2994984204638,161.370680532632,-72.9132359488816,267.283274195206,49.9328841821985,20.8352058027949,-92.0503646990486,203.595762619342,5.65840207979466,231.82217004282,106.726815402924,57.0825907449835,-18.6450905930887,209.169536201143,-6.1311036127417
5.42460072382693,561.874594588232,196.113829109812,7.11769385606222,47.6665129171419,21.3665689700507,130.502783395292,-22.5201458184127,260.536298284709,119.33250600848,7.43865284500125,252.860113430949,65.6438990732173,-11.9290804401381,285.050619930385,159.083938200547,-1300.80010312541,382.684055657868,186.80587424656,469.23984867667,471.306027663646,477.590930650901,610.16229367331,327.171116575794,558.151271011695,454.975748712331,521.357772312003,183.51023283663,-172.263285504913,353.009033702094,-653.508408531561,-1022.73932533642,-852.672447688055,0,-428.743849013777,-1248.12821263378,-394.279478291398,-1644.56662689628,-156.583703146448,-982.09700482956,-512.608226305482,-315.319390897009,-759.387499185286,-167.549803566685,-333.568035164167,-85.9535284277924,-296.128944043056,-148.681992229593,-286.931293204995,-316.740629411048,-37.8108991403851,-267.883273587589,39.4779989428814,-125.783192375769,-168.530607307253,-313.303599090491,-41.4528532984924,-220.644267167939,-18.9717350238009,-133.633490817418,-176.947243052617,-280.803738088496,-30.8431388498011,-265.077045486029
-67.0254132827745,474.104950626967,180.311551185162,-175.979143199681,-34.8603952364287,-61.8075110923861,66.8550079646515,-109.625520249728,176.165562241622,72.5290263716039,-22.7684113037264,121.756729950941,-16.4522494619039,-39.3235101467037,127.254172633426,93.1000326347822,-429.089576948744,280.700860809784,250.660541121207,212.732957202753,523.178424780494,139.080090334124,531.659113632768,577.897753722375,328.996698978158,568.886082088435,174.053687481129,222.777685553952,219.100773050569,331.714959951697,-543.283579694915,-555.888993614113,-960.641679710676,0,-763.559719245036,-651.729573775018,-893.220943386184,-977.375960320647,-393.854133456777,-1184.03784329777,-535.326257521486,-559.530705305054,-854.478265078358,-223.816683530643,101.658853831368,-77.8522498557153,-237.084720554873,-114.505529664044,-227.739794442786,-265.89276638666,-49.0906986481565,-206.358439505878,-9.65353200918151,-105.820017722265,-123.584026714885,-272.624623182152,-104.846811728198,-211.027366755999,-82.2950102139465,-161.753243686002,-179.671496041238,-282.591696712034,-77.4089794116422,-286.4571750587
-4.66593436825554,517.85050700433,225.582315545234,-160.416471971058,-11.9792564497035,-15.1935853129402,82.923427700215,-92.9515705787082,200.700422766078,128.450920941754,44.3124285643513,80.5668759204375,-13.6576404689374,41.322829545744,37.2684483339281,69.5681981876931,1175.6392042059,216.732013381568,344.640040591423,21.4997362926192,518.255199002119,-86.7801307239813,355.237941759924,723.427303794073,104.025623982965,441.888941662442,-300.85877229066,92.5063668146831,442.104456288741,149.010183325935,-205.330375407354,-36.9307193297977,-652.555328448019,0,-954.555155259473,-74.2218091108665,-1122.04008700374,-64.3648411018939,-594.417239081082,-933.470148251748,-321.754421513314,-404.610631644297,-598.593705739022,153.25511651585,940.950981517411,42.5211555593519,-54.6606697378016,25.9606951364171,-30.0710114418435,-80.7707122034097,55.6940561628216,-26.4899468204049,71.7662996731726,5.15042525148558,43.5672457059012,-108.436720348016,-28.8575498404662,-83.4512105015782,2.43345656403698,-50.4644382889515,-34.9913591181809,-135.615361810501,19.074173982697,-151.10602170798
51.961318610229,532.157425528596,248.264069477009,-63.8103898739846,3.62224994008756,59.1010334255208,108.147799894621,-62.4684020398816,250.120106177721,186.500461807258,89.751340240697,88.6740912849412,10.3128928669098,104.155848831736,24.3022249910619,70.1155404599714,2468.91251793217,233.416221248637,393.159158942008,-1.47178432465331,491.28772519459,-68.4069509427828,222.918636786068,749.452896538316,36.4620225044553,217.690628271332,-536.167314028457,-77.6976298362252,560.950617491294,-99.078400066039,232.392432392947,266.718146176759,-476.826994044937,0,-876.279268636792,170.744647390108,-1300.57894897308,606.944428200538,-691.709928278759,-517.611702480876,-150.980148427909,-136.618995076247,-352.566579447101,546.752006820696,1686.33111984041,130.973778860076,51.8182557852772,119.122471194697,92.8240541050495,24.7480094584328,139.672693617428,71.6937680308375,155.002603149098,64.6599944584953,145.036692075811,-17.5530822518598,61.4953263434582,-4.19213231510358,97.7663605242879,43.9139219989774,75.3409281729347,-31.2557939123559,120.716813536562,-39.2889230462302
9.7345293112776,408.757001861923,219.733794935292,-42.1722593229284,-72.5332102951188,70.030300071912,96.2749956027574,-68.0142695662486,245.008515016662,176.321216273817,54.9876548672048,87.6715099755687,3.88484624596263,75.0869659236024,43.1040452501729,65.5747071406619,2422.8860877226,298.758543180897,372.341330931276,95.4863525779488,478.330667122333,118.50848505939,208.886919870402,726.839822724896,149.499404538728,145.127714681762,-304.374297094421,-60.0608786876755,784.200840048695,-123.523469996477,647.378841786338,296.399597187621,-614.0435604053,0,-530.321568651031,31.9747540853612,-1488.77043445806,853.074497768405,-616.856905048409,-230.390457102975,-223.89464214398,5.57060750520738,-323.637699494523,694.34166444059,2032.70517962701,100.046579534827,-20.9706544907994,83.5305722061437,25.8494934764309,-59.6033650246585,109.598431741662,-10.5994673525553,133.788713244191,7.75169357194894,72.1856095418579,-97.7025378915453,60.6413133072039,-64.0661791595896,90.4187117776879,13.5253961570637,28.778361014823,-88.1535712877165,114.211696987312,-78.0275833261906
-82.6050841355452,204.329541160485,158.628895897759,-77.8462427213844,-201.725484586323,41.0664958465717,78.9035369370051,-66.4659697077529,199.004558978788,128.128998566082,-4.98719926342676,73.9040631753188,-14.2706106922099,11.7252606743668,54.9173997865138,58.4441623147848,1498.07190205363,359.973525426374,354.408734157272,179.590799699051,515.399078976267,255.303837824643,261.83809870864,772.60312236004,240.597587767957,294.080091362981,85.4316855856556,123.249308877152,1231.48670022552,63.8359924594858,1105.270792226,415.345557322302,-558.841152854369,0,26.9572201530559,-136.065363741586,-1253.9303551425,1018.27817871991,-391.620287000017,-85.7403592468988,-167.568427461274,244.870851361094,-290.617465951381,827.797844866296,2170.65072994815,-0.603864319192338,-172.328154982583,-19.0645205932273,-130.595754940222,-228.687976749699,4.00436496361576,-164.088467300675,29.8454169970398,-99.8810990263098,-88.6233565736075,-256.987641745068,-14.4349894129912,-195.306926813489,6.21164243658676,-91.2539774848388,-104.754272693027,-237.072342068572,27.3966642941302,-202.201135743784
-74.3063142121717,101.847921867925,162.184718765221,-14.9250425666802,-219.705526687867,98.8308230797288,160.46516215813,64.2038314523856,224.376791048412,171.220779850274,52.3651083218649,117.762202415294,58.154296487877,69.7471387113757,105.876882097077,142.439732732142,1062.45268337604,468.470835636982,490.65029932916,236.414049092081,686.832894327413,239.928650864901,384.282947087568,1029.82376233819,219.119209695281,605.290822798993,189.142677042059,380.801363699654,1848.42844537606,215.938909441766,1691.89758813097,1041.18099803985,185.922250511865,0,682.521463101754,139.735601325238,-148.0034222512,1558.26745843098,-118.440213164735,60.8422019909534,585.039242023239,954.578012028347,72.4708801574247,1295.6533005044,2473.88493083927,-15.9270890613975,-178.110333231206,-25.5087763159962,-151.958393099299,-250.979234740993,-22.5257758473862,-164.843705095414,-5.37212127395819,-105.37619000294,-127.963282560219,-284.803098691553,-24.7377933505612,-213.36628982954,-4.31017677657725,-98.8198305593855,-122.290692302348,-267.212455796875,14.1735663043409,-209.60702442017
125.662094238672,210.905886221198,331.136597439606,223.235785652581,-19.3451518809878,332.941544511054,414.977971637144,405.88346282508,409.301549931037,400.468113639121,318.143570854981,287.687724876461,302.59545003533,345.401315535318,273.42947710018,405.050164791999,1662.529465357,707.078064753801,845.260344855263,354.668666188794,1022.78100756257,170.544997804961,631.51791284464,1501.94230691789,251.87742795315,1031.66958081915,-89.9671211699259,841.307036564521,2446.1492746406,249.3580449524,2334.98391455308,2124.52623454976,1398.794878885,0,1305.23605557424,1101.89930942118,1582.11072521822,2408.48426703677,119.835061050078,380.10404154726,1996.24563144947,2039.53771638504,824.262063655509,2070.62521155062,3000.26063227191,153.292641957626,74.0240670534629,170.540769517207,82.598613858535,-5.51765823731134,152.349516946534,87.8474495293321,155.193430722002,88.7279329971818,71.3751373152278,-60.1544765610891,149.020922633654,6.2137732804859,173.722439819434,100.35529025706,93.1689821350739,-40.2746229829812,186.698920558292,20.8876879134824
424.686189422707,412.842903292752,602.824481195335,538.042038435344,291.076273907018,661.451321784248,752.977280599425,835.903678730881,691.7034979968,731.328238098681,691.102378778473,544.881332479718,642.924913593368,731.243728389082,527.055150942745,764.187180659014,2785.36954171421,1012.31858440099,1262.92301786723,537.29975256017,1384.49342247665,159.647088541178,919.341683114133,1958.52541715087,423.075370561816,1465.6091273087,-569.325308779875,1540.86360089694,2846.76275479299,229.738272053155,2847.64485622991,3246.46480855631,2478.64953946077,0,1785.73014984278,2633.39324347741,3188.54359052521,3146.18935148955,291.300691862618,996.917097071024,3420.74860465068,3011.15712117261,1745.98194018412,2806.68586398022,3466.97551507409,420.860192990783,442.607232956966,479.140178975305,444.583363581802,367.033036159551,455.436408384435,444.016273360387,446.109047459168,394.30220115125,393.961521575847,293.846231845145,445.540055777875,359.15100607537,471.166832504351,409.615971338112,426.179172580647,327.355665997742,470.932702997231,375.409918349913
621.816514868575,467.843212954186,788.439982376055,747.184510486584,476.154660470265,887.291483464548,960.09258775762,1081.13259918863,896.607230768677,953.973552146772,935.076684479225,748.689611250146,879.322440879148,982.819388160934,728.151030685425,1004.48754327457,3755.27278461398,1212.38929501251,1485.46664732613,699.375003072792,1569.34208259293,253.274401907709,1066.8996035472,2135.92165841861,627.361510823471,1689.79369050476,-886.81071883023,2073.8680097741,2970.00713981097,262.783617566434,3006.44234640406,3934.05407894978,3021.48986901683,0,1930.22414555257,4121.40877854045,4075.87225741679,3423.12177378149,382.487808426251,1741.0571947791,4202.31414065638,3440.80949512515,2456.00431515761,3147.38575239891,3525.49993625215,598.754750873677,668.959873522276,684.484805174063,671.491752475928,598.201553396208,667.855026337717,655.851916323341,658.525954614593,601.641877765601,600.019066752338,521.898584610066,661.141687124566,590.498416140409,689.374772628213,615.889847802555,639.59048175292,567.850237935762,670.363138427543,607.877095137448
