-67.4941837028625,-15.1517555251324,-66.9142121995081,-52.2699317398108,-9.20704761575031,-76.3387491290163,-77.7161814494829,-52.1974353018915,-80.4710460904161,-77.7161814494829,-69.3790910887641,-82.6459392279949,-78.3686493907565,-73.4388916122446,-72.7864236709709,-82.7909321038335,-50.8200029814249,-72.6414307951324,-91.9254832816645,-56.764710890807,-92.795440536696,-11.6719265050063,-82.8634285417528,-122.953958711122,-46.0352380787515,-126.578780607087,0.144992875838587,-129.623630999697,-198.567743460946,-69.2340982129256,-150.285115806696,-198.277757709268,-72.2789486055359,0,-72.2064521676166,-177.54377646435,-137.018267667465,-80.6885354041739,-43.8603449411727,-79.8910745870617,-163.406971070088,-110.267082075246,-101.132530897415,-133.3934457715,-106.569763741362,-21.458945624111,-54.8798035049054,-13.9193160805044,-36.1757225217276,-60.8245114142875,-5.29223996810844,-35.8132403321311,-13.4118410150693,-8.55457967447666,-23.5613423237705,-55.4597750082597,-15.2242519630517,-51.2549816089407,-46.8326988958638,-43.7878485032534,-71.6264806642622,-92.5054547850188,-66.9867086374274,-99.9000914527868
-331.060331191888,-85.2340788906407,-327.728408135863,-260.779006758134,-57.2440647895362,-371.867649363389,-381.955859759024,-260.724998565728,-392.925232934545,-382.680824138217,-346.021378085365,-403.172554819136,-386.211748262486,-364.560074574858,-358.346782247576,-411.182682937152,-252.014220490559,-364.618452399661,-461.268088618191,-290.081239462445,-468.875844967321,-73.7246237910549,-424.141057079193,-626.476613289994,-246.854758157504,-637.659106146876,-14.1737818852878,-633.112785063537,-979.680071249494,-319.669651173767,-725.278847655925,-973.011855505051,-372.902991112105,0,-329.206127292283,-853.170641873006,-679.002136610048,-446.87961444788,-197.386863358575,-381.691198145318,-783.62694388743,-560.912936669321,-483.496373892708,-646.505691004892,-549.531442744193,-96.312478166905,-265.260677011944,-61.1170794855559,-169.985560025616,-294.700619871434,-23.2991469701268,-168.193093867278,-65.2338012897065,-39.9388174606014,-109.768131565458,-265.25776392368,-74.4861178330724,-245.233618728907,-227.729817159928,-213.064582194655,-345.230753160711,-452.710595855451,-326.694969759481,-487.073013772794
-673.56474214547,-211.106295211044,-663.215224292121,-544.530960408876,-159.346989981414,-744.050684269871,-776.485728604826,-546.044686966417,-790.70892833586,-781.883071869484,-724.125961778608,-807.836349455589,-788.144511347093,-755.237401897264,-727.548613938244,-848.466433468773,-515.360762666376,-761.137519884367,-967.713631754321,-621.532401974295,-987.719578788154,-202.523327687977,-906.008735820549,-1335.88750032099,-558.473767346929,-1324.08230266351,-73.0416496750631,-1245.27951585194,-1980.36837472929,-569.424238568355,-1401.59105540513,-1940.43857509711,-822.27430046149,0,-576.105667445844,-1645.73450397943,-1382.52911816617,-1097.30600880911,-332.989216036702,-727.4948257385,-1516.19722212856,-1203.89975403903,-929.593085562178,-1278.12083717584,-1215.15325804542,-164.273369537717,-525.63793470416,-98.5604702318274,-319.036057628503,-587.394465645995,-36.5866300644766,-315.248520629043,-128.091798216454,-72.4299527269344,-202.59903809807,-515.378966226987,-148.767941179689,-477.134272389854,-454.418619646373,-425.823809181839,-678.916485411113,-918.02332088198,-656.614085011245,-979.988897717824
-767.195132037756,-321.63398462742,-744.814447276449,-647.263662627077,-276.663139911278,-811.825353148141,-873.355910131558,-653.459197602369,-875.55063038261,-890.47328642552,-864.536191985432,-882.299700801081,-891.048200041206,-882.366517712813,-810.883315948312,-972.288949456193,-578.134709095703,-880.094973070008,-1136.61650594891,-747.776115786771,-1150.02581972257,-331.69163542743,-1065.66235300634,-1575.91200452837,-708.071026088139,-1465.90284279696,-157.875020631569,-1241.89686417442,-2115.34022802827,-460.263999929691,-1354.17580384953,-2001.30431123388,-1053.17571637753,0,-453.349998955604,-1616.4034092589,-1501.49250375439,-1616.98044295687,-233.66543831765,-697.242880559972,-1512.39869712024,-1456.19907855977,-919.428121956254,-1334.17925517871,-1580.71517591305,-127.905479183076,-570.929205981607,-64.8555676813922,-310.698930902701,-644.103480325263,-24.2700310046611,-305.170189819687,-136.542095135277,-69.2435354074093,-194.258499721335,-536.562310447756,-164.557306328836,-500.373916653645,-495.373218997926,-469.241309140243,-722.455415174432,-1040.34721634367,-728.487284203274,-1089.96004342679
-631.790325222415,-373.828952293523,-598.597539343224,-564.38731547313,-358.869800555598,-610.701074249932,-688.729208021696,-576.516570248044,-679.900480238124,-720.171390855135,-753.544545072867,-664.293426986251,-705.340057882196,-740.905262072331,-624.691919308308,-770.587514785195,-449.460046082004,-692.043366079572,-918.266192133981,-619.845584341151,-885.374786315189,-386.958021026335,-810.834234932485,-1204.22446132596,-590.697517208932,-963.765556899954,-189.876809169768,-658.70460843115,-1331.860370654,-125.188143244658,-667.634223857942,-1148.03360765272,-951.280149022369,0,-115.072554115296,-923.49088451883,-990.422595130946,-1640.78722749516,-27.9776862067406,-377.251655693833,-876.994618408793,-1176.25455023778,-544.812141936689,-839.999090536062,-1507.13617520228,-53.0344595245995,-439.657621815518,-14.5937720618785,-198.405605467219,-492.475865642692,-18.2596475976932,-185.119492675911,-109.747849191783,-60.2075992581111,-127.532693186663,-373.039269937787,-137.977404730456,-358.103590282321,-376.081234983345,-371.282684251935,-531.886238482846,-848.603464095914,-573.572828084794,-855.991219139313
-537.837759749458,-377.099269762665,-506.241879278347,-490.705322893581,-375.021332409969,-484.147956420197,-553.217508648794,-504.716095031638,-553.37633266604,-592.382423545911,-644.944198621998,-529.704795219143,-562.905920603067,-616.070987375395,-491.080200769972,-588.145756933774,-363.973553464171,-506.945754068975,-676.055575297002,-470.125337608356,-584.213123429848,-364.159169464732,-500.23359300556,-730.120465514851,-386.850603037253,-429.941566763991,-129.767675736299,-202.618068077214,-597.715855802651,40.7482244886798,-179.972033919068,-421.318163520137,-709.265094748243,0,54.9058854865829,-560.477037932847,-487.440356032148,-1210.3023228379,25.0734733128443,-212.946937489981,-417.924599385998,-753.957471676301,-323.93597352971,-406.44982006799,-1286.12980376889,-47.3285329636382,-355.155120196097,-14.4033665176617,-135.794419339792,-365.199018857174,-44.7003535713981,-95.5396065834751,-109.186163913294,-80.3175984742799,-80.8011537821152,-243.815453291341,-136.984911371908,-247.701493079494,-308.687506730303,-316.245711627977,-413.702366304558,-701.773468131559,-482.039585379306,-686.293424789094
-476.466324812525,-317.725055185341,-460.160531364729,-421.936138901578,-300.607888564427,-439.204007500522,-478.833734779928,-428.769769967955,-499.033010237265,-516.232325182447,-542.577429879287,-487.901291745457,-481.032324468273,-517.878942987875,-428.057929900185,-466.419580881059,-336.126456003811,-382.941757802427,-484.089420555329,-365.704799206299,-358.837181210727,-296.799585554926,-268.938792992507,-364.772361351653,-207.90031282799,-91.070188119067,-28.8448696550088,0.621645022056608,-194.675681303618,74.1540289818889,-21.6348657658237,-83.5206114556968,-379.927320627906,0,139.786171318997,-578.745568337623,-146.657160507737,-602.588411472354,6.84792027618134,-225.890199630236,-179.792292659992,-348.614561537263,-258.8413146725,-130.275872647467,-975.85688823891,-52.4031757697384,-277.282717138372,-2.74005513392621,-70.075796965693,-234.544163370355,-68.5355524241374,15.4400412675537,-129.584058114212,-94.884343926095,12.1784967942567,-110.40196308624,-165.883299848929,-123.029631263143,-318.433308504833,-301.407641700808,-326.055305731619,-571.209769452298,-467.092696343325,-560.288252740496
-312.538719918366,-188.147790828956,-315.153828507596,-264.370083967836,-151.946643977073,-296.456283556499,-303.689002543071,-255.804429709051,-339.19716934547,-333.501470786715,-333.055770367243,-343.255673064917,-303.078108257825,-315.886938822861,-286.004244373189,-263.175836505209,-248.310788204883,-201.987401466118,-214.754123562615,-241.367849348282,-90.1369202123726,-251.161903019617,-26.5929447827508,7.0006330855434,-63.2088836122496,225.237130078138,0.848796153706249,247.099788870696,210.551420956229,152.726522829226,192.854546471354,321.311538832742,83.521174608132,0,344.013258614486,-361.30238460596,275.070218439409,-102.842406218419,75.4511989059404,-166.130688597278,236.41772216334,115.072507039365,-54.9376831355052,215.692782181219,-513.677973622398,6.38052032809118,-87.131551972977,67.9538549189643,79.5934707664367,-3.02418436850295,-75.2699334074017,202.852370014864,-160.644473210063,-91.3649776341523,175.232224083619,108.724589310544,-212.743050152932,92.4675284798825,-324.459946526268,-261.185863747959,-114.465063943645,-294.843577830399,-396.819505666259,-284.142202367143
-70.659195419664,-1.79059969950087,-88.8203675837774,-36.5763014520929,42.2171175096312,-61.5784543435859,-43.4166689714415,-11.5256950155735,-92.3766327046261,-63.5882871252187,-52.0520350391544,-104.920943079582,-46.0292783895396,-34.8157796564425,-85.147733538245,-1.15075761659157,-109.230474146892,16.4883490289936,103.656778466303,-121.669062718183,187.554650123367,-300.312961993531,186.813899703179,352.38631339236,-19.3745811195325,484.518962169169,-167.6358436201,495.389887347567,618.519557146665,167.533463543916,463.010112888912,879.285518173579,631.089507641727,0,574.053921863868,168.667590244903,770.038392917406,203.894525663262,161.54827939934,34.1772206513497,782.835642031603,600.874207302908,291.754503564266,594.418592615001,-17.6023344399248,96.5295827694306,145.287810554293,153.032543756466,257.585561011907,251.373854774918,-70.2331046720374,386.294639078129,-187.152092973336,-80.2915055881148,316.077974312276,324.67600505104,-247.336987971822,306.755403890066,-287.488751252322,-204.705121735245,143.324107787201,21.1883657692926,-256.040372108254,54.5738443500292
217.58723575734,269.733323798471,184.833655461724,255.690450800688,319.53203576747,213.7180057317,263.49347710636,297.668286396615,190.249967350487,254.357250292048,287.63431873871,166.873814645456,256.801767189536,304.39882293138,138.600528904973,296.325053910825,50.9113188472109,254.276079817291,454.996452737774,-10.932577294832,452.460367805938,-431.929912298718,337.517957946829,671.454973094558,-89.5100961745085,630.324734021629,-592.193403058572,620.157301846174,994.171336058636,25.1422438086496,655.512405939113,1494.82208317257,1241.44960835406,0,749.510734439691,786.634748521178,1291.34422533369,530.03242019879,205.275243082163,383.149565337241,1321.4504524595,1111.62800361799,700.482828057063,971.085303954293,473.08832052402,191.329639540122,344.64768037339,238.527159977645,437.459070933818,472.182023042235,-3.9173779661953,545.980590497833,-123.162436297897,-1.75509246527452,437.072883048751,500.890089682233,-178.441881819338,483.164948487949,-145.724049550482,-79.862897357476,382.725457607418,283.83686015981,-33.1964940371332,358.997648595411
580.786808142451,643.76337716216,529.822544771211,639.325671921912,708.147981564954,548.64466617638,651.549626634684,708.573354562327,542.64902627631,657.898179850758,740.938533940392,495.887686114145,644.458668841325,744.217831240297,428.847390835575,683.731439620465,269.651226714418,575.853279514117,915.00325828104,167.861696784166,800.326968303145,-524.745440945081,520.010108296622,1124.50932929038,-150.647768018288,798.202232782432,-1120.62247064162,703.335658730332,1611.06317051605,-123.406217460746,870.76042841057,2291.05548075152,1923.44066098909,0,897.922957205697,1583.7712469832,1966.31520544212,1110.9815622281,275.018703531639,888.830060456272,1985.37901031567,1758.31302340499,1212.94176725921,1493.4950393613,1053.87696973988,283.75576453762,541.116822463967,323.152013025884,633.968504920303,686.962203182492,131.69346189747,728.349028713876,47.6043445742965,178.792876809637,618.946120194401,689.816641688466,16.3137217420723,687.73282939059,107.488498123533,183.633687310066,673.418501468514,573.928102899941,288.105987406307,698.006914553177
949.164698432819,1020.68722479179,881.972437739745,1025.43871244668,1103.34176751565,889.65974559688,1051.90656687375,1130.20156460915,912.829770894482,1077.72704662614,1212.92963762979,840.105476566492,1048.40267477611,1195.81838472027,749.703520705222,1082.75050848088,543.600806897746,932.839223643944,1389.54584571743,425.387400135891,1165.45140769561,-418.000212136794,732.759073399856,1617.28864437443,-66.6482392650447,964.707536732184,-1378.38791781486,730.661834865758,2356.71581334851,-153.066762370549,1066.19618428142,3090.08617579177,2466.6317620588,0,800.761916030996,2584.34541044621,2713.76695756225,1832.90015232392,316.886217763615,1331.52232813941,2689.91896039364,2434.63308725094,1699.77775478137,2085.48911697463,1598.19460595764,275.083722337332,705.212136491702,285.630316795154,731.96995608724,830.473685825665,178.367534121151,825.219495148123,140.632813661508,323.035131767786,762.33155483498,815.254261787949,186.557562006142,866.226992335684,317.791622121073,483.659838802361,960.975734168993,884.777423189196,599.544444438726,1051.67970779768
1157.30070589696,1228.87266774924,1087.26070707879,1234.18554869736,1316.61626220131,1087.12627106108,1278.45957296327,1356.86986411945,1135.52882346224,1315.61576618498,1467.67672922427,1060.0899833339,1280.05272947882,1435.31579210404,971.305453524012,1289.54180703665,781.107328998654,1144.61642822062,1602.98578500537,665.219074184621,1304.89427347791,-61.6204278132559,836.253264394704,1755.73507098424,185.145962381375,925.376319288064,-1109.524275831,589.71364934344,2501.6490492941,-145.134250724906,966.423525859154,3195.52150409481,2470.64875008934,0,167.609625260336,3226.47817139461,3106.47243784584,2282.61702547506,128.558640858578,1376.36898421209,2895.99555225345,2746.55296179712,1797.51139866412,2340.65515886305,1783.12982201665,30.2117011500249,702.686325207409,-33.4373872544395,542.596117262697,764.480143793752,-54.2375210220113,607.867455681843,-34.7360214703883,205.243905472736,584.674522328413,678.555847325011,140.333933746994,795.952362302824,325.991103295849,582.700962627164,990.915165143669,1015.40878365183,739.629903002558,1214.72473023265
1125.11956247514,1177.90880414546,1067.18428489356,1176.14963069148,1240.03923391149,1063.7925603414,1233.55968082237,1277.02554077021,1126.14697698755,1261.49910218112,1384.69298077195,1079.39065469413,1238.92411639651,1343.1785972254,1022.30434359761,1224.48261306068,887.457284002307,1125.85357509369,1441.81992234405,807.606347070611,1163.29023503699,384.030938847084,810.411021881299,1441.68583074926,501.063166301592,747.058991366916,-493.664819745955,417.174801201249,1773.24678275,-161.277487886731,621.690782627448,2254.28729590935,1759.29089082463,0,-695.977470303833,2857.88393693244,2820.7429544406,2147.40271594875,-257.27447807563,988.231920551785,2220.72057382753,2417.14257546786,1342.91337065857,2013.44448628779,1546.0708841645,-385.795197460321,477.833385982896,-559.529093613653,64.5184729025277,480.10727362018,-498.941778257778,54.6749755202683,-384.765631155532,-213.207042479644,-5.83528281770381,236.820094007189,-122.909500180569,359.207542180011,184.187175121201,381.812013118675,620.202401787458,838.109794656344,686.22570171193,1058.2145620762
921.281110415236,925.468441619554,886.243042720011,922.124282107272,929.421498802949,884.577834541612,991.645776832773,967.185290229332,953.652644019624,995.742304956746,1057.57160471767,949.619305875329,1003.04068731224,1014.88499903224,932.838117280243,990.120762189839,840.379071639091,958.522606531616,1069.55941712788,845.090288708029,930.542431017726,693.810578118941,776.790657939996,1015.24538027809,738.209238408686,694.927413823449,84.4537334491331,440.211503459974,838.677571234574,-111.104629364244,410.805914259189,812.110152658502,577.069788227415,0,-1062.09116602943,1570.95442178449,1951.30068811785,1434.97826796657,-501.490538163894,413.723497688065,964.235571371248,1537.05304991212,580.725488109665,1275.175684181,1135.20482459601,-688.570322125199,134.189319723867,-951.843240617204,-466.742909913987,99.4693542229325,-807.407166311698,-560.964595300821,-588.968435102949,-640.500013978431,-692.522986697509,-286.804836635482,-356.896270614352,-228.056068622296,93.4118498915741,82.2019435826724,68.7439075803861,517.61412996454,573.145808122429,731.448457021271
659.093829059891,595.927640045082,654.106500309803,605.326379161111,532.323937288516,653.700347439344,681.171985040525,583.701465648788,717.135741554041,664.944816900123,653.236045595227,751.646135617315,703.912160664026,621.139940973855,754.043930680282,705.36449856065,684.908379628908,733.59828793956,676.016572419467,783.16100683817,717.856581678028,788.265936987534,750.338307303614,710.978383036998,814.052994413838,748.63323682451,442.695157043541,576.964452685199,305.359904620088,32.2455311642863,388.158915912232,-310.397560527043,-649.807437763076,0,-768.26404360687,141.838943691864,838.136003430437,424.991507331934,-449.866029381751,-194.226743386042,-163.838586811876,435.075282735202,-131.903894749346,465.795174245048,747.414246683119,-693.630141092107,-195.924770272218,-958.445934771045,-823.803143456248,-289.196374831316,-731.967989157909,-982.905426439323,-480.774386551933,-727.444268980706,-1070.65839654577,-649.644352350455,-331.392017668306,-628.437856635295,145.977981857913,-32.5228289505181,-285.644371681227,314.274221904729,519.417563969208,481.255609066683
429.964197509458,300.987463337632,450.720307434246,335.05523477823,191.955448806291,449.120748005957,403.383158984288,261.758418335775,488.360290688636,379.906459190639,304.498979768985,546.64439207485,436.149672220768,291.089530944795,545.92402432464,445.381391944306,503.162493641969,496.513994403213,350.673284525213,643.469538844252,504.881013315068,735.882473375002,651.88230481861,485.596205071748,748.424702420923,704.051915235045,604.007530145195,609.861370225499,122.848498887544,154.701244677529,310.327789869739,-764.264263408634,-1561.80825473447,0,-376.259210338305,-709.012520311481,-237.227265613653,-440.578643760303,-329.259142149054,-763.697192269389,-676.738470905807,-490.671392910467,-575.629789776037,-118.58266244932,473.03554724134,-466.058801406599,-385.237059897495,-643.546954411565,-903.752527593809,-562.98570596543,-387.510350043668,-1119.09105196737,-198.45179144597,-455.505469918423,-1026.79799552104,-747.398733595005,-84.4624348152031,-713.284614319315,277.998935428083,91.6955225450259,-291.720323363145,302.867616073405,542.322769233521,391.904115864681
302.879609792726,120.056822863159,331.858268697704,180.79067889762,-2.25347729599483,329.436747035595,236.064863056241,86.4534894515219,341.449793394078,214.445932668985,101.543355138317,402.818143855702,272.640688644067,109.449999182872,397.403304936544,280.128527775473,372.203026638579,313.602921642236,157.876677310561,498.826080174406,331.913690291327,628.55380847765,506.934872888059,319.374511618176,615.941100983414,560.478610210937,609.551651450156,523.615505787882,76.4848606583377,175.326141901333,163.60829734451,-744.078051814732,-1963.13283172569,0,-326.458543482006,-835.091125059112,-1204.70526655118,-791.32935659142,-347.844892724939,-1095.21507814923,-664.777514627181,-977.045487189447,-694.943610852456,-370.418529811572,440.571966384094,-132.607629260822,-264.824396300715,-207.825228355728,-642.842717611868,-474.204584773391,-22.7570094528531,-902.277818140106,83.335009027013,-83.6799412149731,-693.868175843849,-529.130049826827,198.468235920235,-532.530895019554,445.570957516766,301.730316639037,-81.1925286416054,428.404126795781,620.702878806387,420.809785621498
257.614129977211,32.9646916293716,277.881550722336,117.235914415837,-85.7405635311977,273.671502807902,167.941107825356,22.0389034392096,276.2942091365,148.500320113674,25.7818727015961,326.444752489204,203.069307749223,52.9061069718401,321.140834995837,200.330212378795,286.00028826849,202.759312968268,84.8913733119775,383.353176498671,228.323812052551,506.095081301099,371.096925138177,220.918297544062,453.290477806129,403.465829930956,512.042582580002,380.239346168736,61.385779752932,104.842609596428,58.632415801225,-649.209783192687,-1898.4073444728,0,-522.561260863353,-626.517484101648,-2057.33480089635,-597.176174799317,-450.749318356112,-1074.37796272717,-626.960000917871,-1100.00622768536,-637.207361186197,-505.957121775996,678.985982224102,195.664247471029,143.665882673799,174.250325067362,-137.883622392507,-7.8597267018078,240.198820246847,-401.73999887172,314.45930581454,169.974633741946,-291.50888700888,-80.9693711264058,399.631069389158,-203.164518210945,622.992108783742,445.333064525703,136.917648049516,624.401643952623,699.208998809598,503.024818242395
180.38356939166,-73.2193184314602,187.622371865385,30.9003541166035,-185.58965778087,179.82277452852,87.5711688177191,-63.8124481973493,185.889902292906,64.4405004915915,-51.2595423534733,227.799508226995,112.429377732037,-13.9030019745725,216.017659408227,99.5229528963999,170.916610121241,83.3226095959065,8.46423917540614,247.641161282816,106.541127448171,372.719659301865,210.384590816277,101.319085953285,269.356915855278,208.374115031485,419.542062768964,174.999484368271,-22.0138092133471,6.78159636211854,-52.0807112449062,-676.966319120314,-1561.40031589818,0,-679.474434166495,-513.02078515808,-2557.27047740438,-110.334712136948,-490.615823540745,-878.280648709906,-881.069184393213,-1094.98493890493,-638.03716990983,-773.474382944612,1000.47502223902,386.179434977742,482.900940215096,369.737098776827,260.575977709846,418.112122577804,375.371852120154,39.6843415851418,459.154998398795,251.148406291685,-46.2177742565728,300.862142704825,482.824288234198,82.8723655259713,707.062483364471,463.095076938789,230.44029817769,776.706771054059,682.767180906792,541.759515680043
36.3194067198995,-226.884474010243,39.1936713218615,-110.860120733079,-330.757489035118,28.7493860644841,-44.1822192868314,-203.477537424507,34.6509209862191,-75.2174297011759,-178.073302221724,77.8369474952866,-40.1874171283624,-143.540788162457,53.2464846242617,-49.2045480694097,27.350386865421,-64.9518158951471,-116.104298269013,93.3998434466087,-59.1305302398363,255.361290884556,33.9238389802865,-62.5711234341341,123.056863535717,0.265080246244397,420.760879993527,-26.7574110567977,-160.40863379427,-16.513172847223,-178.881245105812,-722.697050222763,-1043.64885858124,0,-641.182064167648,-546.340741673493,-2424.75660000792,441.322742321022,-385.386918049093,-696.15732125695,-1233.88193068988,-1005.9632175335,-730.708560087165,-1070.69898119997,1227.62846471451,405.664665575115,490.460204615333,379.943251497034,330.733089227306,484.716582446022,406.847352410998,182.828772932564,496.732554650677,236.393113222055,6.01789883934116,427.544836145101,475.112858211382,211.730756841768,648.177139243995,400.728700841414,220.478108560605,792.819817632954,560.443226766493,489.448052226147
-85.1232599783783,-342.281813594705,-75.6935467704848,-220.290209981173,-436.873885020194,-86.1910199926317,-144.591192940007,-304.088850657416,-81.9514007239977,-179.964465111799,-271.577420489861,-39.3354680329987,-161.767691469216,-247.868121200475,-68.3582727572611,-156.261487032319,-65.9914007616831,-156.848377040594,-206.386804135144,2.01308906141992,-169.399742561477,196.044445962133,-66.9644321151653,-171.896384956351,73.8076926651734,-107.751820729346,503.85940989167,-109.493636663907,-223.87638869952,81.9592277169904,-216.012698914344,-674.415935307241,-394.372096817849,0,-426.464630719709,-561.710843858713,-1813.65239746334,925.683673403056,-150.769421718621,-515.80502760537,-1364.46532289703,-767.602042808838,-758.053904156868,-1169.61622117433,1340.10748877425,349.361515065831,310.722334793576,327.152108228649,229.935943959809,336.962002053681,398.041632094237,165.866072228652,474.829678976473,235.279375332903,43.3643451940362,403.975379229354,438.429897301681,258.132766708926,528.444725816917,344.114629419233,223.187512333006,705.037224719546,422.039257169832,408.099937348729
-153.295168608541,-401.84496833053,-136.407089799437,-271.413618493147,-490.934284117486,-143.750858773245,-189.653787858097,-343.963101759961,-136.302390172339,-222.81901544419,-307.839621896183,-101.675077801786,-219.548636221275,-293.396276084788,-125.896584183235,-204.822415627934,-109.743458835294,-184.510383580554,-251.439592413785,-23.8802408391085,-204.654104163101,177.4440602138,-90.5217247332138,-216.873965296585,82.5615469631403,-125.453550182831,586.540899418774,-104.554176727498,-208.819327858239,211.761261079252,-191.047419517013,-586.280545515849,120.852289621015,0,-193.817386322949,-524.536955926554,-1165.15401569566,1162.94713622569,89.9948071545511,-317.888326764866,-1240.32035345769,-486.91237763962,-660.029237636964,-1079.98304957423,1328.55569550605,266.166880797205,149.969631970779,261.23304939047,137.293054137301,187.338526286659,356.898861839072,147.857540163627,408.025256577419,242.698496525263,124.372601917983,342.551296175106,367.456787845927,276.497253102266,391.489027242673,287.125835212299,248.505707036765,571.412300531447,291.17670149537,326.148379435836
-219.092151646586,-456.817198215013,-201.40031161805,-316.402481663877,-537.476748911201,-202.752568021799,-234.016019590078,-374.629758586637,-194.532390384774,-261.011625900163,-337.850138974799,-166.615171382876,-271.00896114957,-328.797488233375,-189.895102104476,-254.429958618732,-161.697516017983,-218.91761198223,-306.357852837049,-51.544323158068,-236.300362838653,153.627825157821,-108.925316397626,-268.331929942879,90.2961633163582,-146.900332977103,622.1302016797,-110.755204275266,-208.610472097783,281.464108713739,-206.695112483916,-506.346270093396,254.801664822495,0,-55.0127444242792,-480.325875584278,-702.409544550442,1046.07861431384,229.966026003771,-152.472319652979,-996.032712218609,-340.904823169567,-512.381242063127,-938.228418848639,1149.6622861989,150.306142091284,11.054822892807,157.027915167466,28.2625651560935,25.5578890633172,256.935817395569,82.5323970191961,276.856861213305,185.408298216836,124.726933587985,223.101694131166,228.633426788721,217.981370184392,217.041992622263,178.595894688734,203.746524944735,404.779644884184,131.848616902066,203.472274208714
-270.664698465583,-492.763127990957,-254.736828186195,-343.605145221137,-553.153898082075,-248.877307009383,-266.736662808704,-378.876820528503,-246.24266350198,-283.891705517755,-343.761551381063,-220.80768811061,-307.697495351247,-339.517086063364,-246.039450702383,-288.725275293463,-199.153938857915,-251.004402378401,-336.603740788389,-75.3645446042383,-261.170017160403,135.752042649661,-120.696826295127,-297.492845309122,111.466209104558,-153.714045582706,624.133403285044,-102.386710296625,-190.850629770607,321.826628588356,-188.871373517396,-379.787163292697,163.936123867635,0,73.6737404839256,-374.586731559945,-390.578901281903,725.640796812444,306.125101185288,8.17256342336176,-714.356943289402,-332.322156939703,-355.980990880039,-800.652892121054,831.882578753835,53.1413717330457,-124.696876372378,54.4376491785657,-96.6401978222696,-163.294586283774,149.369531777016,-38.5405019912826,139.539075266599,90.9345216980626,37.6874861232991,72.5606551521726,80.5495120491673,106.655955123733,55.6362293395962,58.2268429406338,94.4135785886571,237.724476254134,-14.179059009492,64.2499271381855
-277.339879670511,-492.779700621904,-260.422642879691,-329.585790245354,-528.297459275422,-247.142442482953,-259.232188945238,-338.740944878184,-249.907692204549,-265.40274969988,-302.171965878008,-230.198670670225,-300.614451559334,-302.824332111971,-252.76002288327,-282.628224619665,-196.205407584523,-259.210603268591,-316.229092481541,-83.6643433821515,-270.722949062861,123.168028291151,-133.442617909988,-278.962213804344,120.641050888758,-132.79696897661,569.732176063778,-73.9692201014309,-112.334220941425,333.240298858187,-77.2585240475634,-214.961772081855,138.085886576829,0,236.14205734536,-180.502856306233,-188.044122326115,389.247757844507,361.692940140886,187.42459859873,-447.363087189253,-360.116037837264,-197.112865410503,-676.380878364361,448.125468385632,12.2885463319154,-210.900835859254,4.6844670628617,-156.811711198683,-301.288730115076,86.8458215063385,-123.731782301604,58.84765432572,26.4424811900511,-26.8498486538054,-39.6872666538442,-7.20701167059127,18.7944203315507,-39.1321377557694,-23.4233026180631,-0.191449807497303,96.5637641320133,-102.841457460833,-43.8887368829703
-272.531262275179,-496.005809268142,-253.616240351029,-313.30303560918,-512.78497146508,-232.020093341761,-245.781282003613,-305.214684325654,-237.440345321056,-244.88973847153,-261.042620325874,-228.310590286441,-287.348215125892,-266.486297783403,-250.862293188659,-280.882274854516,-197.91476386797,-288.24506122234,-310.853261819278,-125.824172567751,-323.485225172693,69.7841623249818,-215.977724538911,-298.710128643671,28.541171854126,-187.300546757546,418.24858347129,-158.28790650077,-82.8507501998701,217.209154427795,-19.6396587674959,-122.990092001866,203.996636170052,0,283.737875159174,-14.3351166447456,-84.351154696007,86.9069462192504,337.475641719027,294.569899209149,-249.547468717623,-371.920133230726,-77.3687555199585,-575.229957502554,54.2288674350241,2.01792048006394,-236.380078986847,-1.76112725264277,-149.375510052885,-347.794098992395,52.8559037813146,-147.085437901906,24.6357341052918,-6.95482201206544,-45.3074169445475,-116.923751021586,-42.013010341743,-43.2809560325697,-93.3297571456904,-84.0011779386604,-64.5662167863092,-41.486642833381,-166.421595445005,-139.089802043641
-267.023005788528,-488.977892910337,-248.452499672771,-298.326539134903,-493.683267381824,-218.71112165192,-232.597054456716,-280.971434935578,-225.248442148414,-226.623549991574,-227.865424646308,-223.886495750436,-273.435549781784,-236.355945760611,-249.593926932588,-275.635527005009,-203.072148259948,-313.83878327671,-312.948340698576,-179.96903745241,-377.696776226878,-2.41636748112239,-316.776410254006,-349.634573913619,-130.739733964743,-301.109066464345,225.670739316476,-355.358794746373,-146.114461274175,-9.01889209205462,-46.9291176959877,-118.092358577613,292.66474656157,0,190.356516019317,61.6236395123612,-11.6502932587411,-102.841857467714,236.990823062466,317.719632915191,-116.218358591131,-330.978404716171,-2.45805515091245,-468.37011345161,-267.812214798809,23.7230463790287,-215.325779830576,33.6996145058712,-110.385868591667,-313.747627742106,57.444286368249,-130.58182165344,42.1221138862349,-1.55956127426969,-37.9300562136138,-175.943335002426,-26.4167408249766,-92.7000726194914,-106.606543678485,-115.483160276708,-108.026798905461,-184.755853003744,-206.69408817777,-228.20369185585
-223.037051069234,-419.050232782554,-208.028765409342,-242.113898217144,-415.82650489627,-176.823398285841,-179.529154377794,-212.494146176772,-178.578804740051,-166.535217674611,-153.843391154692,-178.63098469285,-212.469138978337,-160.152091542913,-196.78484774135,-202.347429009969,-160.753419676758,-248.445451478425,-230.593476962557,-158.801773772218,-300.516169914311,-28.1869883451475,-281.446083528784,-280.61205910516,-198.669011598869,-274.29360647339,88.626316769497,-406.004151589449,-147.57650217433,-138.742413421185,62.381973402251,-78.4541542527634,444.350089250971,0,192.836545559729,155.95134201701,110.537075454105,-89.8712849049328,201.929377236867,405.349365319812,31.0598172122988,-189.653238928717,106.249822749687,-292.806720694801,-430.64092278419,90.3350942480088,-137.910357732248,111.687060086412,-27.1149543254579,-213.116762752942,125.29020284362,-66.3278307732765,127.236128334311,64.5841395585416,6.85333251698614,-194.306862166258,51.8139937465746,-107.121187035039,-45.1023876800012,-79.674915081816,-108.851285999376,-299.005733921808,-183.810552688857,-270.70058562272
-148.753207337706,-320.006574381522,-138.614739199597,-160.496643585077,-310.598829069743,-114.792596784224,-98.0238204769203,-117.15610392338,-104.181128177186,-76.9590923050444,-53.3859928125266,-102.480036620954,-117.863892817671,-53.513722583861,-106.159525868817,-84.285215289116,-91.5486312997389,-118.726734952695,-82.8830461931558,-70.6952602280751,-114.773336839994,-11.537665118044,-108.895161257423,-78.451788593241,-110.42444671073,-42.9492575404756,36.2450708866886,-142.769255976051,-4.13739311588584,-33.5053402107861,378.202707396296,58.4690108891939,650.735031258193,0,425.622022151557,346.722934058765,265.606881596115,34.3448212220599,320.792168849181,610.415042412097,229.17485639918,22.7557087650498,288.52832359157,-46.142603095697,-455.445953264304,155.076201640504,-24.4437710307784,175.70828531352,82.4261335053308,-82.7143195490781,201.279279726357,28.653630867026,219.260768284751,145.729496265537,63.8761292937461,-162.638067919353,140.049474575435,-89.4357110684226,43.5753598040221,-6.98899681149291,-63.9967195478658,-351.011273139909,-122.737890660074,-257.337149763506
-111.816143370437,-277.860577707971,-101.09744695033,-121.73442538914,-261.02271832426,-84.6616297790856,-57.5395527544136,-74.8083992294686,-63.7707705681721,-28.533622669354,-3.59818171508516,-58.7877332449728,-67.1096886905366,0.780361337861519,-56.6141675045357,-22.2577402334058,-64.354255526921,-49.0500100874077,-5.13946585988231,-6.35824588005962,-5.06576555868778,13.3140182543148,27.6627576429313,54.1649646371234,39.4316002926085,183.312373057747,55.4212775586479,228.568679506481,135.532189663049,163.717183110112,645.138593282226,197.325496389082,766.781006450535,0,686.244313146295,509.389852708047,350.862926521934,80.7625175788772,490.4511072107,751.704512851957,364.403870306917,174.904856134334,432.298540189607,150.861750723277,-481.681457090673,165.264104507617,36.080660364535,176.187791481613,132.749027546997,3.10019004376903,212.941111142573,85.7816685144756,241.858315768319,173.002700145217,77.6463994682211,-113.187332515995,163.815136687747,-75.4770220829008,67.1865123042254,23.3213677831782,-19.0763803133472,-345.266995965889,-102.074785968784,-236.871423884839
-148.097363310318,-304.25104616185,-128.128845319037,-151.808279820864,-278.754520681944,-115.496526379506,-94.4836409637538,-111.003677392588,-92.9393521293804,-59.1733665848687,-35.8058024593107,-82.9667499412577,-97.1441430800106,-33.0200220266995,-80.1979803263027,-58.2928864165941,-94.5833024827232,-88.4634828310908,-59.0015916605625,-10.1814617837284,-64.6803374757216,41.8943203756457,15.1865761808676,-15.9251252038354,132.468344210736,199.449853648939,117.141044306281,385.389242815409,108.682229809255,234.573521737295,615.625273033462,185.538943030354,700.847072504617,0,723.357293624752,439.844180572248,298.80392316902,-2.03912879620273,555.911390889384,646.20896747596,286.576231826777,175.247157161418,391.503383385527,174.889940232485,-607.69428803015,130.857366436162,-3.51996239129024,143.136857672839,99.1569248874526,3.38437874710552,173.06822825205,81.2568414833442,206.258801971599,150.338475293094,63.5625121781042,-80.0062951790173,125.366488765463,-68.5052817644493,13.5645773315729,-12.3755898828985,-13.1268958947126,-321.936129343447,-151.646402467022,-251.144454477322
-199.387011691152,-332.839757171345,-172.159806951963,-196.312922400208,-303.956297602427,-165.0154087769,-150.864617725994,-163.762652634325,-140.363996978385,-113.619351474584,-91.0921184683104,-125.214098485911,-146.371833513472,-93.3169033179112,-121.37451707856,-123.211509433756,-133.097688565897,-157.577295893666,-153.33383573445,-45.7654312753905,-184.039529129065,72.1957764898125,-74.0951386226109,-169.351831405963,145.588659828165,70.2127418605072,170.408451330195,317.994223238724,-31.7454284856243,221.240991563755,362.168948790275,-3.35470522926214,529.400453286701,0,591.363107954377,107.444619286218,158.976274673949,-117.792353057357,520.610199948969,361.757190584744,41.3986925033243,90.1261215348013,194.060617554252,79.4125665711594,-767.462752870265,91.4047526764705,-57.3975000816961,125.190764214753,72.0211887285278,-19.294328444471,136.80820192111,83.4936977657801,168.913152973303,127.426819787158,89.0774018450306,-49.3653011326443,82.687994999986,-31.7038788999261,-50.6235681968058,-60.661774017532,-18.0553716610162,-301.018683740066,-216.406551511464,-270.790652347172
-172.357396254595,-323.564779988584,-149.738464997198,-181.92701224102,-304.881916701371,-144.376227196888,-128.446887927874,-161.892004069078,-106.993619479452,-92.8299978381224,-83.1778834330572,-89.33171439802,-116.58597685299,-83.2920870826737,-96.1430582373586,-109.832542567741,-122.694297910681,-149.080038103099,-154.32828587731,-43.1047286606273,-192.436457671012,91.5717099394222,-86.6605680180243,-188.792267988915,142.140370531855,39.218354202318,188.69349150435,303.137039281571,-62.3152192344686,305.123608239361,214.362518465783,-183.315434254028,330.315934772038,0,528.678726118124,-256.100641586422,40.071478499092,-215.317679550339,493.970298751014,127.300220778329,-141.214844959945,30.8251434795651,17.5643286589832,39.4985158255238,-840.08068048417,58.547766459156,-36.5482939090957,113.096363933468,112.988527003326,16.8289756512162,108.843487308712,144.897734988345,141.233071750142,114.208819565011,157.000552061144,14.401587307775,62.1405063018415,48.2691252268386,-66.813022594501,-64.0121908670944,28.2165521470028,-243.808542126896,-216.585678199773,-220.2889691629
-50.6284385233836,-294.981920332439,-36.7856299330341,-96.5354759694888,-297.59696591458,-19.7167730984963,-3.84568180373074,-95.5036660126838,35.9893776547518,31.0272167971748,12.9975862514274,51.6009239800903,13.6194024782589,24.8264201938211,18.6520606183098,15.2090177915346,-55.4736432286532,-41.2893089494603,-24.9629238362931,24.5657470424497,-42.5077475577521,86.1564961085943,30.5362940748681,-3.68990834956861,159.596904588635,212.944874131297,183.637818504429,469.657991638999,147.391768796792,458.483170425695,355.087594179222,-171.173257736877,56.0426705174795,0,574.313662994273,-362.692041325983,-9.38356127079359,-338.495985233947,487.529853085799,65.5378730720393,-117.371669364762,6.56374981977247,-12.2078129003655,138.505403708596,-795.134989518586,31.6898930787931,33.4551172229353,83.6947512717649,169.392537643062,106.714941398275,65.2299889019511,224.964836199116,110.216623078304,90.4115911199029,212.608187654258,109.665349151214,48.0788260603688,150.183995705519,-22.1965676712372,-13.6294809826015,142.26258624971,-106.698146899121,-123.287940510891,-66.5682403067896
97.5406905097554,-244.122459982946,108.280519813681,20.4439647230749,-267.273849700193,138.397207045799,151.826899962965,6.09268675955608,206.480683862958,190.558929865678,151.077948263143,215.836716058839,170.075482404973,168.495359737153,156.904251783652,176.775075437596,15.7789125103775,90.5542106179583,148.71820972239,98.6562753685216,150.372010434626,50.7240147630539,166.42655458455,242.117077759788,144.413777186461,399.843383206311,158.206503627455,587.479530116035,415.180767683595,481.739284297382,529.999255112436,-93.2492605565715,-301.070009628114,0,539.962569365163,-229.410936594014,-8.32386992160285,-480.995034469907,419.715675846324,114.177739770762,6.69640674805242,-29.9413346763831,85.5023135794173,300.08783099369,-667.752523943988,38.2485993326682,108.512921726961,68.0143717064117,189.602493831806,218.955351774632,37.3538280990228,279.112012013142,106.668565065185,79.1979666743167,251.063474087805,215.468672703071,47.1785433013208,260.86360732918,68.3133601275329,70.2291889552057,284.932931574687,88.3598245380127,25.6409847939339,138.738194628203
194.106404919774,-147.410952730327,201.199321492826,117.355656649359,-180.285622906428,220.761790912097,243.63177996927,99.7222328565894,293.128207352771,289.897615711189,256.535989482362,292.518271252024,255.344244137244,258.302219931012,216.972666156877,257.251955272424,22.4094850835844,145.288971263612,235.720140574504,94.8684637592615,218.732956237595,-3.10599752314693,166.261548278772,323.853299110418,37.8180834821577,316.309080292149,106.637259051727,368.791049033661,374.473185360754,283.540442331219,347.366024275409,-276.284080721022,-616.520214313497,0,310.022094929964,-247.726194641915,0.723494895094596,-603.735413954674,255.05988116007,126.935421640292,-9.70814794445121,-129.554432694169,172.496304839268,359.71309092557,-544.923545400774,81.8342096869395,163.718832878913,88.7302193853793,178.774494279668,329.41784515988,66.7238094311772,307.419182870664,155.643880611032,113.522091628123,296.31340553211,304.8207039611,79.7786012222288,351.635526328934,155.183226489263,148.596016389479,386.263969097425,244.80691220794,143.761130883596,282.584593759065
199.021387535913,-52.4180097514332,194.063650917165,142.941591285226,-78.9161534667218,181.392217268342,219.473570893105,126.834198839444,255.3229425872,272.283507904929,266.9264145394,241.691871929501,222.295493955482,242.15913186281,157.055853823714,202.350922936006,-45.2424368728273,82.7337463809396,169.72034513682,10.6526208324392,106.6694091995,-54.230959096577,15.674656162555,150.567074832001,-107.521101273901,-46.7905083830575,61.3985863781983,-106.650219883607,-79.1816974114196,-7.53645945811083,-172.431269243478,-756.990281531531,-848.326117925155,0,-6.31880502671283,-653.194895507207,-81.6337930091606,-778.566584500621,49.5005943060458,17.6987883961818,-257.927534789806,-353.797293581539,115.581890018764,199.834036938796,-552.341151528828,95.6014497968426,136.252056973277,90.292636793467,125.240873310878,366.69337047142,103.289691201653,291.757356616824,196.328122497806,151.35579534187,315.753834740035,320.176813467576,108.114668200798,360.359431427304,164.35730670925,166.201066859303,383.366158114767,261.527714610304,152.952474695596,273.703677757832
143.02241923591,-22.8249913274761,126.657742566084,104.047121527176,-34.6124353505774,93.5069546176513,125.791131819451,84.1653612882494,165.96695936798,181.955441479011,196.120490697811,143.361326535985,127.609546739794,158.91923610306,59.5912413704713,88.6305321899534,-100.273158596182,-17.6439387948391,26.2122078653466,-48.703932497872,-55.3928521913231,-65.321345991747,-118.243398297357,-125.485811031335,-155.658641592274,-363.724571752715,78.5010114745967,-421.905707223554,-576.809049975805,-161.60896852955,-585.423383834677,-1123.11506570421,-1080.90059104728,0,-196.689502804626,-1061.51610274048,-358.740652253428,-1069.01386717677,-83.2360668901463,-110.339546715225,-510.385530497992,-676.82767486753,-16.75279180105,-90.3744652367289,-687.402027530635,42.2241035705187,30.5881733301,34.156994528501,34.8791829853002,295.56135796632,77.2436387886401,224.260932627252,163.194148770564,137.834069159965,277.483523241837,238.017534114387,82.5604457540327,278.13030989548,93.3080228676067,119.891569573373,298.066280985045,129.982637466875,80.9925366416738,144.391135396388
119.708434351563,-11.0575314261048,105.100080529476,90.6685331665235,-17.5291417017141,81.5923001574881,87.6299795000774,66.1613810010037,140.633292101618,141.777461567188,151.360528511614,122.354548440475,95.2072934780343,123.681653828969,55.4321372128057,57.9172658776745,-45.4466038348554,-21.2462416210883,-29.9812415793024,12.6059070827528,-84.4337328576932,-0.603961687741722,-79.3450329812466,-251.43932856862,-54.9700247087131,-367.79676507151,152.090695415608,-355.904906157023,-676.365105128886,-98.6849731397554,-582.086810909743,-1011.17516052085,-1221.28651634418,0,-171.405474974943,-931.125820577896,-730.228765812979,-1301.63553150363,-81.7329622533085,-56.7655049804576,-456.376856886094,-896.786425157895,1.30927350256296,-263.433608887487,-765.709500948822,-20.9891030319832,-23.5685487689883,-27.8982729822576,-13.3579359780804,208.816445570368,12.2159769004824,167.801492412759,84.7054917543733,98.9720307061567,218.753526059204,126.98688687812,29.258768283323,172.823696638181,30.0467798469859,84.8583982516747,222.550321313689,-66.2145483010304,39.0818685673075,14.9585838624215
172.577263607353,62.2854202443093,167.142761146469,154.252152368196,53.5061454337532,165.556380173904,159.332415532774,138.065016314628,200.27370678673,202.325624330556,204.451583626278,193.761176205541,166.057384533773,190.248031208078,157.737781270348,147.801012470022,98.6739512289112,98.0773558339384,69.9973969070793,153.838805283047,46.2329951114546,109.364187262382,80.5763598396317,-136.031225697664,81.2240478304432,-166.113428622861,209.657611561399,-167.14584200906,-352.440362525308,22.7427571308755,-316.909051707101,-521.928142853589,-1012.36845271042,0,-50.1882874161894,-300.856842975427,-862.930134707735,-1201.61910831731,-31.7497776374326,195.484562870615,-90.768617273011,-780.725418950328,242.580371636021,-177.136020921798,-642.482366384489,-70.1106359017994,22.0169566699735,-73.3908392357533,6.41640150784095,191.114662207628,-56.393301030997,154.621019992388,-1.33502875637606,66.5754544777276,158.393353097494,46.6084268884597,-17.6964077941679,66.9795726271746,8.60245021031283,103.812545460721,172.349135254477,-234.797186232004,57.6984575584007,-66.5394961637723
206.472154738174,137.218145996901,205.035905051773,201.09364413243,136.950836443166,220.929290843499,226.105877844373,209.395091724671,235.876853951925,252.33710985896,263.570052954748,235.028197966074,223.317086248229,250.364079144256,232.356321108048,223.905868682457,206.478640154093,206.664527453987,186.086602128383,238.094150663959,176.527319670019,179.311020372751,172.341744624255,54.6318370850427,115.133545524372,-38.7251397113917,213.654758462766,-179.465107386521,39.3860395076229,46.4610028808396,-129.197857581367,-8.72993638320936,-509.03928955022,0,-8.85115045771088,335.485850258865,-551.046005559399,-760.016184921132,-65.6242633082429,425.285009592009,292.842415549967,-346.751323658864,514.852251254294,66.1681442297359,-389.959336296619,-176.56783193922,45.4683008596804,-175.290371065714,-16.1280923170984,172.252706043646,-180.147270506351,78.8507132389515,-134.578491419025,-22.4909415211061,6.42896542882437,-53.4930022968346,-104.584688892624,-117.456833140442,-51.6291291855578,91.7365743750404,19.3212665631636,-336.162405861416,34.7474298004863,-173.707299826142
93.1087480344724,66.5181916071843,96.4634355795775,94.1815151458425,80.3570703157636,127.91610733766,133.635975069549,122.694162166943,130.786711621624,141.80344745839,162.815578495098,135.079480612705,124.005849497878,143.299701133244,155.584147250416,125.470558138127,178.182627137357,148.394342795975,104.097802194615,169.404161304329,119.096968382341,156.247529784931,75.1459288863147,51.8084991330936,16.7252900165051,-118.306889046805,189.599484976176,-390.326136414397,117.953407258502,-10.3967755423968,-175.156611014261,237.123455129863,-152.539187500083,0,-102.721899411296,619.270345952845,-48.7831002222763,-271.773563046609,-211.31864469118,433.200698300464,419.311698454158,70.5313414090617,578.219995394531,223.201336579083,-215.978546469067,-340.409044315191,-33.9697209686227,-344.437818481024,-167.689638146476,38.0242721430906,-379.762027440524,-171.50891968506,-325.75165508268,-233.268691550719,-327.279611929369,-241.527182339583,-266.796007693351,-429.455258024928,-196.959616522195,-69.2105978886841,-355.272481457303,-385.476209586265,-110.766534588692,-365.265834001426
-155.381726598492,-172.465298000754,-134.078143136858,-165.203550069092,-163.766917424475,-91.6793347313636,-120.959562592542,-148.075174207568,-103.740402519332,-135.937868191876,-130.122475893714,-82.4146081416875,-133.062747024308,-149.602027135282,-56.3325613697227,-152.843152260008,18.9407951475722,-98.7475810442089,-222.048156093425,-42.9403753267958,-165.279349942781,50.6843505178887,-192.030059230465,-263.270705052314,-185.588074383018,-384.358492032251,157.744827357899,-665.364245927751,-271.729971916159,-114.776946533683,-396.667221553478,45.527911089334,-257.29171069498,0,-260.822213435273,469.398795788296,127.386662534783,-41.7925173872316,-406.361146037474,245.732562854411,190.547486643262,107.911826545096,362.84175560098,98.4517875529094,-261.989514551365,-412.471337335192,-143.300143583317,-429.839567183911,-357.057761737611,-170.903507247243,-510.900501886137,-496.831584547538,-454.590535100946,-455.398705260659,-713.12263153642,-457.981791553667,-405.469866194269,-754.752186152904,-333.193833051274,-331.466134662718,-836.729222876402,-405.303193034003,-309.235806569195,-573.175119486541
-404.330862220055,-442.084963136325,-361.271716784492,-439.076807065097,-461.580883340847,-322.745373362847,-406.78600607032,-465.916596415113,-352.796456599693,-446.982702171701,-481.338432724302,-313.383403644109,-421.813949125744,-489.793661235183,-299.527506297748,-475.844969282817,-194.93791077879,-421.537926501008,-632.440379747738,-310.134454415767,-542.331014959462,-86.8020810841977,-523.262537599521,-758.100935944284,-447.858458793798,-758.773382874229,118.396800401614,-960.126949338299,-982.974848314181,-296.07724270216,-669.182720308601,-539.210152727261,-739.231891816315,0,-372.256059752909,-33.821143679871,-295.629597823156,-201.459812740146,-553.198865387454,35.3557076202988,-334.366385567775,-309.067807892276,-4.08633276819432,-305.61283544735,-494.50629933833,-270.239878708133,-185.028990927755,-279.109833705794,-401.32465832468,-290.150887311652,-391.978539143384,-633.910748506038,-379.56588559474,-457.172969700241,-834.675364313168,-551.133229046478,-368.801086877104,-879.25004576525,-337.273573907173,-479.427994241786,-1105.56328597446,-400.566305313824,-419.229861411608,-680.45381901679
-566.835233145017,-623.158148844464,-516.456566053447,-621.775003894796,-674.250576518538,-495.227981345986,-624.267694565542,-698.165116357956,-539.803551774296,-677.052569149611,-752.55262242301,-498.309863950911,-638.67597196679,-746.433116249773,-507.046409507808,-727.492829058661,-397.813657655967,-698.278006172817,-949.242013004879,-543.309288589936,-845.908544574461,-225.107501663913,-800.96028967985,-1183.21147325016,-692.012830529521,-1087.99738163859,59.1567051868413,-1182.68243145801,-1626.54900380149,-487.789557476394,-872.313154682113,-1163.77788645668,-1274.00958707711,0,-340.704383629253,-612.345372799187,-1091.71107425109,-685.442956967627,-544.18319960956,-69.8421182344459,-927.107098267663,-937.741368495314,-317.823059005708,-780.864746113828,-783.953533334089,30.4414678639717,-146.504882537863,70.1629622444161,-235.840536897245,-253.158486885514,-39.587213818875,-453.894700702918,-109.689890540491,-174.733685160943,-558.353848924017,-444.352702675031,-146.22484167346,-704.357502344048,-213.431240957071,-389.932672771217,-972.348046708774,-382.319637061163,-404.175061955055,-664.475226062078
-648.840536610356,-702.049361862643,-603.125788217158,-705.632503822946,-767.748176616069,-600.609852387389,-746.532238543372,-807.054403053856,-654.872442020674,-792.485433347286,-888.952032080698,-622.011275805702,-756.054732243921,-873.073452606258,-653.7323285575,-863.273863328181,-552.362423424318,-862.757935495889,-1087.24809107892,-704.669665348174,-990.369583505256,-384.421697769722,-953.767239683624,-1343.36912715688,-850.158126440385,-1191.75304804484,-60.2482635370881,-1160.13866412754,-1794.44619483905,-538.558940763466,-884.636146556241,-1407.22010657203,-1431.9800940034,0,-121.50120512919,-868.583730878697,-1710.71370715568,-1195.92100266709,-347.981683674403,-24.5513746399311,-1246.28700043568,-1393.81380613561,-431.081068846155,-1068.73191196521,-1017.88419296924,326.158768252773,-72.4128449875457,427.850468690899,24.0619089546239,-156.409120839941,334.006638467637,-107.735183781584,197.219660222845,194.14612852272,-107.75890691053,-217.413861867379,113.883651565812,-364.845700014551,-76.3859999328654,-177.145193872012,-581.343615425524,-368.125203712473,-351.97225910396,-593.985087903306
-644.220166212698,-675.853594901406,-600.082243905013,-684.787569494344,-728.051858356974,-609.335021659975,-737.947845433364,-772.546852495237,-664.868530142061,-767.679776100254,-860.328599922424,-639.337671732681,-747.384851326039,-837.415440069713,-686.246735364428,-844.126691369517,-601.383998296386,-866.115746315814,-1012.48380675248,-756.903107841598,-957.002082596359,-531.813852238476,-955.765504424876,-1200.18384119211,-879.284596637359,-1046.78365418021,-220.11386210486,-890.313483643104,-1433.55098083725,-400.604210718602,-690.342634428921,-1198.77872909492,-917.961742759198,0,217.19711219149,-650.4741320323,-1744.52602204613,-1310.93876819666,-38.9285560021265,185.245046693414,-1125.18969731378,-1386.33432134263,-319.067240726883,-1045.31411136754,-1094.85093777097,501.429429499441,1.99814949384098,633.79702339844,239.127608218122,-86.0623039788175,538.11458467315,178.352445188051,383.292977554598,432.318041401805,239.118947694114,-10.2938658158184,270.883227351561,-80.9787142988996,-10.9381025799272,-13.8840525663261,-208.02870532239,-355.412149003844,-325.827116743081,-514.029811840647
-545.521784526888,-543.027090316019,-501.306412087606,-556.52033138848,-558.40610491923,-514.461908154684,-599.313695800416,-607.007509602722,-559.67232090016,-615.873194466967,-684.132582476267,-544.20864403804,-614.918423016013,-655.076310786043,-591.926362368665,-688.104252470198,-530.175893868773,-723.242276431042,-780.410351839898,-686.165510539038,-809.956575949545,-578.620731180346,-852.373658721588,-938.904394470356,-781.029647889026,-870.565661930874,-312.893436236846,-648.539781933914,-990.528493262282,-196.284005231571,-516.476343451221,-855.153707859946,18.3098740684533,0,445.268438661304,-270.617624191867,-1267.32417997854,-881.134218640594,252.457003280612,450.829006419738,-802.729278209431,-951.884435933587,-130.906766272574,-817.96264976731,-982.993652371609,505.743485439258,37.6135125752593,621.801812555561,347.557499108105,-44.0634313580974,509.858337719522,322.686073988107,373.493739903809,459.356632334349,399.831269381055,107.442247986509,267.128150734461,59.0128628290209,-35.7608912339289,23.7436316258799,-6.68538634417249,-341.219001468412,-328.410268143529,-437.540394664127
-433.65841900402,-387.352126186062,-402.772907888457,-410.007527858714,-361.48113375834,-410.567152107218,-447.554500826792,-432.472753676165,-443.424347950004,-456.834312262894,-488.170642308198,-448.464283815236,-468.73856190848,-463.606964155022,-488.345746026012,-534.370696205008,-456.207836250412,-573.903433988282,-560.449619727504,-608.774365500339,-695.398551090057,-563.819892536154,-793.652178592968,-796.93316933959,-688.640987630473,-905.445179096074,-317.302001579808,-712.545172582748,-901.281430782217,-118.871525033322,-600.569333255573,-622.094920518439,796.623707759478,0,334.217683032214,-153.690441080908,-570.334950168337,-207.307978854082,375.9645603388,520.73133683998,-617.656058859334,-369.811689631317,-101.28438900365,-588.064505140164,-800.830011981458,325.68535768117,-18.3490053085209,397.403777151625,318.310544968235,-44.3667085116444,281.391526969853,344.90396638495,179.326241038572,282.9734430942,390.794413787855,138.135136154366,99.1774105338546,100.996689695854,-154.811656605125,-75.462356185208,5.556423660441,-346.793610638472,-381.614408280274,-402.24202655495
-362.21239892845,-268.687847772146,-358.146639116503,-311.519370363364,-212.810509728753,-352.862920229768,-350.722829408913,-321.550922571974,-380.874969267494,-358.584855029399,-346.491594343055,-412.734631410554,-377.975118113898,-341.14037525339,-452.933400447985,-446.160510902956,-454.504510543844,-497.80818454635,-406.56186002558,-616.027628220737,-633.675726510476,-571.255109210984,-827.124047530694,-692.062145289738,-688.652263594872,-1047.18012201299,-282.036573873946,-948.377492230553,-967.605351813428,-169.374871459814,-748.761854976832,-342.799075815294,1300.27428204154,0,49.3197975254839,-259.017058105304,324.188493674224,397.579463697787,330.906520885218,343.679478623092,-469.878683470485,244.413907773967,-219.468096177136,-341.049064594712,-626.183790446106,76.2401705564057,-120.557115823898,105.689695969915,195.34017973549,-82.0159847966842,9.03230182098385,294.626618290706,-60.1994196695546,37.1231323668223,282.975720467635,122.289578199284,-123.608961516981,120.478129134927,-304.720642914769,-225.230297642852,-68.8593566380833,-350.248849898068,-461.426304293598,-388.174958678482
-245.014239255784,-103.150577838165,-264.859685419652,-175.827929920046,-28.6399371895921,-250.936923039381,-207.206053282403,-162.038693897994,-276.725889703739,-215.918669526282,-154.724844611057,-334.494186228406,-243.190151847764,-168.206782109368,-377.047010490901,-286.12562638457,-403.953320045011,-362.652445717009,-157.558304746123,-566.044252476454,-429.710930498044,-508.428535265646,-722.43721508235,-318.585531690421,-582.061319175124,-876.164733981489,-148.696173660398,-854.923989130689,-661.306195549779,-72.2073537856808,-497.089845434301,234.783605084594,1862.29551564165,0,80.1501827087442,-143.580198951034,1484.83538075302,921.012430307639,340.242032279077,221.884660147085,41.3547907995469,974.124553596187,-173.440932990247,129.24733692646,-393.53449668108,-46.2123897175465,-130.7044887763,-29.2746092010526,122.581783284489,-73.9350098355467,-97.3825348107549,264.789384341917,-160.317236460365,-50.8274474872435,237.657254898599,130.243676961203,-210.882535313969,179.540245609826,-353.942717954797,-251.628376690539,-51.310823031146,-276.437537048131,-449.697920028225,-288.862893291437
-22.1850427446709,176.419012994433,-54.1316883601943,71.9376553099811,268.486764324481,-45.1726504669189,46.5373806602141,128.116878538106,-63.1920579072189,50.8611850368186,159.1520895472,-142.461233279568,13.2801541073448,141.588310686008,-163.691080810005,33.6481187880939,-209.27949268186,-54.9960691611921,257.527946061285,-317.336638164692,15.9894213450085,-306.712635977178,-300.219848709839,303.547473245203,-222.184592597336,-238.49207845858,61.0181741260891,-229.935960726478,42.6804939610522,274.380267787637,207.137954967317,993.612950797214,2482.24923067447,0,540.392033575582,358.064621674801,2603.24975105933,1335.97765027182,504.294146665327,373.964616042027,933.442461599047,1715.9465498738,199.493487204765,806.674682882401,-139.518482423006,-1.98504369149907,-9.51747135162548,40.5260643284684,174.987601322863,25.6945808815996,-11.3220243196806,315.760575626469,-101.090594940452,74.2829847062262,338.024878827798,195.003332989249,-116.917707268555,284.840420741784,-268.048816206435,-107.676307368918,110.475864523916,-130.088113083965,-299.948261206418,-90.188226160595
224.860771152385,485.763537436767,186.338914631582,352.403476245988,599.774600068661,180.698516882127,308.230063864027,441.657581427136,180.54289567709,347.515305717162,489.150152186034,85.2121019470908,305.846795366517,478.186883186701,101.809737640322,387.383725450372,17.1219208411585,303.015598425859,671.593124850764,-15.7920966281717,503.549846099545,-180.388523655654,216.34640421251,814.3598603903,93.0704735757337,462.215077341021,24.5210677512331,472.256897524384,683.098587057862,501.397222954083,882.45058556197,1582.52994362956,2784.54697110304,0,967.889940678308,905.823747652063,3210.79182253952,1419.27049136839,600.246383684786,644.913885473494,1745.42441712033,2152.68850293901,683.060581470103,1363.32428333386,-26.4368489193446,88.2177580254456,156.146473399536,173.815680992351,291.624575681924,171.176711207797,114.287152694316,409.333569465679,-4.60189430247904,243.683059078424,481.280593240729,280.405345605177,25.7718931171242,381.35787305422,-135.126947271361,72.3743843787998,281.626121691784,-0.401200713538744,-107.477793219246,92.9123218196727
400.852853327349,704.337811124116,354.261297453751,550.943364752661,837.839579561786,332.886167163816,472.973204179882,649.751672305904,359.430701090413,550.558353458932,708.464790111367,252.417634128157,518.848127359794,705.308275678839,287.575458197371,621.894921569329,137.38407813477,525.437318547519,923.333400553483,123.54819218082,780.721760009624,-325.365697748945,474.213761697894,1028.58892257057,39.062749517694,762.865617154357,-452.881005265084,727.345660726653,1027.54258092267,298.82741822103,1104.56520520789,1894.52544012973,2649.42496388787,0,983.539101889322,1167.12092155843,3210.16868176592,1088.16235460326,452.233932354642,782.379004341863,2154.14425249549,2143.86479891632,1000.61518177514,1573.54413682629,-60.1384099163672,159.601237712938,294.712105514228,275.120011016313,396.987756867219,304.650732153676,192.262724355503,477.347313009777,67.45327179311,330.854952883018,544.784109723136,343.00117127356,121.868058204611,419.657364007771,-14.1532035964329,182.153109893434,347.844815062057,77.112717821843,40.4362326870417,191.155757244679
492.174396480697,801.82693423571,443.387073090972,644.752775709797,941.317460849103,414.628622129323,547.631555493203,744.89761334554,464.207965114322,648.506310867266,802.717280984523,356.647916928982,632.853891595768,808.45394961636,394.741026760805,732.004063632383,201.374047907446,615.221858981073,1016.29559222032,173.88090375069,828.338373627976,-492.963874272274,477.539022377472,1042.3155708055,-141.719340614846,694.164472552944,-934.585911373703,632.51423581695,1211.4160772416,-33.9979945404167,945.465261438927,2062.23485113485,2278.9135558431,0,735.868553773288,1175.09718444058,2849.73577646329,580.227746432241,221.809206505997,738.716298847408,2242.07783971568,1866.17039965731,1088.14847328065,1535.6323308732,-85.9682255410635,244.398262901168,387.210108563336,356.9875416756,462.396757015987,387.572379842012,259.141489141176,492.931683260274,144.81249111345,367.603377703251,523.21910458845,364.32534139557,198.556011628948,396.127530036516,106.235961447344,240.145221373315,328.371866347333,120.688315461359,147.210508220501,218.749693693453
528.765800664597,824.485625900705,495.361947203275,674.818678596176,953.770851327248,473.820757589482,582.235172960349,777.517735269586,536.783423761461,696.29789105799,821.972901457211,451.285628197842,699.276624360654,843.69286144555,529.683086101441,812.560632083908,363.45167721553,731.854895130537,1043.94332459048,391.654846113467,847.809078900378,-256.023880960259,573.577993262743,1000.65859091528,73.8596096182131,682.233433657658,-810.514695683535,722.870640644616,1333.0419738659,25.6608261312897,815.158241484047,2054.58010864273,1777.88442012468,0,618.34945672293,1115.11455910607,2322.38489104411,135.344655335638,158.997186258822,652.129681551303,2132.46179183242,1531.68385917777,1014.78458354522,1420.66070003754,-52.058729132918,350.513377615879,433.181481713863,435.496204123471,495.036798820925,410.738900484487,345.312796312437,476.235459373088,249.14843528945,414.574829321818,483.842608989382,344.653834628966,303.337050828368,344.093168624701,237.224226653002,298.138217712639,282.585180081141,118.682360552126,244.136669138881,178.030962315994
522.316310587291,805.699203964912,514.945390176594,661.702431271251,917.498390578852,505.876298336846,584.007587429319,761.420714025824,583.684590083216,708.945307972856,789.353940413327,534.936077566964,741.702912653947,836.772178787616,709.489040966034,911.43240775446,612.583426886414,947.55927699912,1080.96784742109,805.612514438281,1033.20596216944,333.079216378293,985.463495370212,1059.68420779185,734.318387881145,1031.54844276368,-142.372074178598,1219.03879253255,1389.83665528049,497.922079568536,957.571731241549,1724.86018396578,1098.5960157287,0,780.752342047245,1054.37343777852,1666.76492034275,-257.102283022747,279.288599977913,616.062972082272,1803.08179727635,1163.86831223361,837.549439521031,1253.15986631136,-51.008026133257,408.684410889685,445.268955801503,482.578123201912,514.962543605235,408.314560579542,412.323443674107,462.944986535473,341.045200189547,462.697999089257,472.179586680507,306.008297567951,413.950026102581,301.35113230315,351.964845590241,357.128431437312,232.890556709728,46.949788520573,322.206926605871,59.8470171720537
450.754774349501,720.071230126113,464.894074569867,579.611750760676,817.447361788088,454.994960937274,517.636139479193,668.586607121279,549.4805236345,643.687137616786,682.898665571798,530.308811138107,711.199779804937,756.066861890449,796.822553912495,962.003123550699,745.310315502049,1136.28613893832,1108.17351939989,1145.66499261963,1339.89885251608,796.907209145498,1518.31277144173,1287.42267199332,1360.75668151315,1589.17989270483,488.296044457351,1766.05559197904,1430.78337650714,945.377663530215,1187.48691999309,1240.36080044026,310.061398754636,0,961.312502448554,967.89183789976,987.58614018066,-648.315720766138,403.259861010518,518.433888657553,1320.28055994239,729.750230668135,571.925444219848,1011.53149961378,-107.423400744017,332.69259428059,429.497067964034,443.583339468052,504.860597560727,403.089196769515,390.616306143899,453.353393101937,342.120875696771,458.5346812055,463.922633326422,274.225148054088,448.626259325117,272.947925803648,393.189583828712,367.274281559263,177.017868724991,-68.4733532611219,331.522562207894,-93.854113746778
319.011076196356,561.442792389369,348.621791236114,429.907499975812,651.740604920688,321.52193084227,382.030277103861,505.979520107364,419.868072155686,496.239308916447,510.1889412674,416.422791115652,584.474715563703,594.267137199848,718.918292163615,893.357160445081,681.300204436468,1165.58102916379,1049.33139717307,1240.3918143742,1529.98220066967,945.098711718549,1833.77062281049,1494.35675783577,1625.06394683146,1957.52708998632,800.102602822179,1978.19907186364,1473.72525994388,1097.8237099214,1218.09810283886,983.594883467421,-329.479144261939,0,827.707477912596,858.228369766627,492.193406339806,-891.989460005211,397.95419937181,225.080178156144,895.888031254962,339.33650310322,245.700450882747,772.215318009406,-106.133398359124,145.358456302467,373.244895810204,308.881632888828,426.395025457124,368.633493845322,269.989005539138,416.670740637896,232.186877446734,384.063876758373,415.638413184589,263.792492730911,371.192894715292,256.792237005672,335.274830690306,305.263436513266,125.047514375727,-138.002476754919,258.235057490261,-195.272274382351
193.442995833215,402.627334333714,231.191403388451,284.850624422384,493.569822676114,188.331338232525,243.362508771354,350.328107254918,279.716764575163,344.458140952312,344.767032718041,285.148918115679,436.364436352596,424.220586190755,597.858375073865,752.137455807047,582.789099366377,1079.86410484246,898.528804635799,1225.27966258494,1477.0576236075,1009.49278526078,1867.18645145649,1453.23346927863,1658.10248040106,1968.90642080755,924.131277644548,1883.92757407914,1434.54990754365,1041.46628602207,1042.76510403383,983.277233661468,-649.588900135787,0,424.325586769089,719.357135135271,210.601807185398,-848.466045212976,277.416081658286,-177.334721478772,605.509830103352,115.860947821458,-66.7616658001998,614.560043762034,13.712211482093,1.74271340897252,273.303269982882,168.894926766984,298.869723414665,285.145332084531,142.05087485342,348.176421736904,101.15342951091,286.812596199255,342.621373177127,281.306693282841,253.946048971044,274.588205077913,232.682990267945,220.923825473268,102.266641279512,-85.126335324628,163.85868561829,-193.881271959756
119.088849936597,299.742461128518,151.022209316704,194.39118304415,392.398609936288,107.988166393359,149.702028282301,252.202472300645,195.496914099214,239.20658854047,233.138788087013,206.094099824244,331.259180435923,302.221717907288,537.234824272159,615.336379487863,561.440065174988,967.310729494783,715.821467118364,1220.32875233195,1263.45871872628,1090.85136685098,1750.5399399931,1187.94294871398,1629.12622827655,1744.7080560238,933.30847113597,1656.49600426025,1233.82437988635,878.914237434041,779.803898693687,853.729961178837,-855.952629985914,0,40.1764291670022,459.591611061158,-106.451455240887,-664.994984874127,100.327105089182,-525.994967942798,293.408866984524,-53.0187992649625,-309.770398893578,460.456452045075,155.054808984826,-8.10757806830826,150.9375336271,106.208127085494,182.177047626799,176.628180442017,83.8832118503452,266.975077791468,33.0192932216077,206.355500750328,280.027908792518,302.196949668687,174.142392343643,309.723921760864,147.549004324465,158.374089136336,102.012026004569,42.7143732708387,96.3562320825986,-139.907153153536
69.4410116796176,224.164391059715,91.1111369617598,127.947757643229,305.370936107438,58.6178176090926,79.8699435201112,176.220169282375,140.391667300675,148.283569446762,140.193937628858,154.222469109049,240.803921360723,195.879621331144,471.479921072623,468.125359873352,526.358686916844,800.141591215598,516.872051897998,1107.75025731486,979.146537677038,1022.92539358556,1504.19718411126,842.672887730033,1452.79662320667,1383.13858545499,783.201020519619,1285.4546636611,877.797528331786,589.398884194347,410.476145528591,372.394932353025,-1266.95425599178,0,-252.359539975978,15.5811994258384,-591.098539658879,-553.043881945171,-122.332931939361,-810.755238764951,-128.65828840909,-327.229821889955,-488.552232723196,212.267272491682,245.289937393942,16.4851123835856,35.1222278660094,74.2877723578553,90.9976106055444,69.0627570237865,51.4625794684288,174.979330827955,-3.32757434101683,122.595513977002,213.469470987167,271.69517630136,113.059056509786,291.463516089695,76.1163784147054,98.6449065841685,83.2450201626286,114.702478237263,38.121701602358,-114.323527327564
-6.07373006652712,119.588866104052,13.5272500356763,31.5210575196551,171.6279166202,-4.74034455599929,-11.9192808470883,62.9921913542551,52.3028944133925,22.5793981654182,7.97019040313752,73.5832680484196,105.363095922546,43.7874510344941,307.816702156332,249.663465588358,377.63518869765,520.224586155739,254.926492809512,773.04482663703,609.743235645187,737.823847944042,1054.25642602469,440.717728714793,1014.36274855261,849.227600227307,510.877745420747,691.093206834545,406.01407938949,181.367943551877,-123.329275581278,-268.265728106409,-1760.64949608651,0,-619.889533674164,-521.905629301054,-989.107943473119,-484.664304809807,-408.279443417956,-1096.07847321632,-526.41575033932,-586.993567818396,-632.208324596574,-52.478340462325,321.286020434971,-62.5893835739217,-82.8155811799564,-32.9155176187804,-24.9248483597587,-59.395866256384,-50.7246617206272,45.5947854416782,-97.9139807601891,-7.68487409208827,96.1533189325998,149.490634021725,2.35988964465434,177.412456658435,-27.7564663728571,1.22242960206452,11.4080135752806,55.8329360302995,-48.0792153150048,-142.571468099435
-157.329444540563,-55.6735154824668,-139.179736792191,-137.035386182776,-34.763943861121,-139.956261383691,-173.87582083059,-127.374614933151,-127.662377857183,-179.79884550157,-203.475271226841,-97.7710746050018,-119.573339169784,-193.438514303676,24.9565699453299,-74.5122437647297,108.181007777213,124.739662711596,-110.486283555234,270.813300488379,115.371815184415,324.918793606762,402.270520126958,-77.6804653017246,362.20580726909,119.815119618762,166.593774090865,-107.865092257239,-187.846407857555,-290.647835873661,-791.687473630504,-843.857657629606,-1884.37598456264,0,-1157.97170255214,-1035.99302971933,-1047.04134654896,-388.117416492837,-760.948254178085,-1392.00781232534,-784.368053969453,-645.232518007504,-780.990643371244,-243.206219382066,364.593742423621,-269.352749448088,-255.909180306846,-252.649701832929,-217.708634510039,-253.073871679116,-260.48825714516,-155.788998700821,-300.418118998259,-211.854203119179,-107.344075794146,-70.5809350642501,-198.659867811291,-29.5314806659521,-213.323885437234,-170.942053366048,-144.421397235148,-131.242805295017,-203.820811894146,-237.86377202709
-368.768409758584,-274.740271623417,-359.61201559003,-352.404228865086,-268.784255627647,-345.515251430596,-392.357273475395,-360.145155999031,-380.22440804728,-435.14766973446,-453.759822556196,-357.499920590183,-401.288781728396,-467.9383400368,-324.702724293328,-446.258155394055,-227.569902281921,-316.849978084558,-501.440717606349,-266.722815519265,-420.61266281808,-128.404358774514,-305.628344104075,-619.044866491721,-328.026163461904,-646.431599288616,-224.998270004323,-932.129264209413,-821.798832551918,-759.535993160211,-1448.50202742895,-1261.95062448823,-1486.59473730592,0,-1722.66563746552,-1453.7683490318,-855.28263078211,-300.138604994759,-1099.50052155894,-1638.47974917043,-887.476425228523,-546.834433854846,-918.784336588517,-381.008908142406,343.139704528863,-515.283555784423,-454.989557156082,-506.865706161005,-438.355121235622,-461.78483748272,-512.693101386846,-385.1916123463,-559.127479916625,-449.304039908991,-352.04543409801,-316.813737760635,-449.852735616712,-271.313211790363,-464.157408017384,-405.109991980973,-349.904859539126,-361.811922589467,-426.155454351321,-372.299962789789
-490.209857654305,-406.526961372305,-492.041990797015,-471.745497939769,-399.287599046447,-468.783867287855,-515.414973686598,-483.012935029616,-537.27044191937,-577.406701116118,-578.885569714354,-537.250214228307,-568.091460896475,-606.800924872554,-573.24275277813,-673.807028488534,-481.551044171642,-627.5405793399,-702.557481616341,-665.183803880097,-760.317595027521,-497.345466819546,-799.404544399202,-891.781125789633,-802.452857339499,-1096.17182934395,-539.546336057902,-1414.20567755465,-1147.54384793614,-1061.09428658473,-1771.18915674841,-1296.9924147949,-857.886675148218,0,-2000.29374276392,-1558.47714380433,-566.889866109394,-159.554086619437,-1240.53453665925,-1687.92835855097,-719.626064455568,-366.326662631096,-888.132297486785,-397.87917052092,397.915912946288,-685.891358343852,-531.392971846474,-677.566748015128,-557.185122178055,-536.738306787337,-690.871684463648,-507.585040250362,-747.856529978951,-614.724752071212,-503.536788909043,-440.542074085346,-647.129815049562,-408.186662615093,-664.098778145029,-598.719386550573,-449.135111966963,-454.800837619582,-605.374116531044,-383.000592469358
-406.183368184055,-373.820482102203,-415.146355100133,-396.631445180566,-364.46601295854,-375.915217927165,-417.266331617679,-398.979272313917,-463.897174783106,-481.174876653143,-477.443071030273,-475.532052963396,-489.868402653077,-507.737647017406,-571.394497849906,-629.6122952887,-512.313982390785,-669.442348504295,-608.234851455268,-783.937497827741,-772.889511957033,-651.916012155453,-908.818696394062,-748.037236464825,-893.053425678372,-1016.80428509638,-653.389641249087,-1295.65671647363,-851.469326650826,-1044.74949984641,-1509.8919988251,-719.503029269094,-289.612952642192,0,-1829.88228231241,-1121.70235776459,-146.142067684948,172.748531765123,-1106.8871631307,-1440.14732613459,-185.134718449819,-42.8493097104463,-575.741711772063,-164.627032809539,668.784320272867,-762.262409827326,-455.835903113534,-765.738865452479,-564.572293989363,-462.686702903137,-780.587729457186,-497.715451665045,-832.195745744501,-695.5793066665,-521.033955784424,-414.928446091956,-769.455450622625,-372.228142198902,-748.950898551739,-692.131436556732,-357.469775014151,-320.132364343491,-647.270442394484,-147.110890266321
-215.024721709729,-269.239368590463,-227.386443744167,-227.630963873028,-269.812240193466,-159.393514409061,-198.604275313496,-222.536571363851,-257.138882984752,-265.842658409888,-273.154016552056,-257.988833486539,-277.625399458377,-302.405276642501,-392.979848588446,-437.654211423205,-359.172774623222,-524.738971241952,-386.095876395215,-656.867024812087,-607.64254264787,-599.408219478869,-747.65776306503,-399.270703002354,-689.778326499483,-614.484977195502,-612.769521323103,-792.325956550035,-123.544711007672,-816.34649830255,-880.923710589777,228.473365459994,188.038190071275,0,-1438.52797424288,-340.583311244847,365.251913227718,689.659633475273,-875.208442348886,-1045.14485918801,462.910819027272,398.039339145416,-156.75818725952,190.553705696586,1051.58063344456,-812.032606702035,-424.998447062056,-870.884789464557,-610.126743241507,-454.800265776266,-886.695142521609,-522.417381512727,-928.664398631895,-815.654971532575,-552.304269757262,-441.792097744057,-923.372081689624,-305.956411211456,-818.294613847736,-774.030001099397,-224.265164339936,-130.642851210291,-616.444933050334,193.513766638311
-71.1173609287123,-182.246921421402,-86.7026261109226,-104.450565401562,-200.695344536907,4.29309478895727,-37.1919602122583,-100.715396801378,-94.0640184579323,-112.999309022489,-128.0595803716,-78.8436324972713,-115.75664538315,-157.239631085441,-212.731457863425,-276.378136220592,-160.608401146821,-351.885424361064,-222.131735092671,-426.296432163204,-434.816865584374,-426.423541685768,-512.141942528195,-110.605875907132,-400.908749616442,-221.751234316562,-511.453076047851,-354.047832049302,508.841009723752,-620.555682463197,-348.111438279266,948.858421783113,633.329134054372,0,-1146.84896314053,308.340788588142,690.39335650419,1260.97264847366,-734.905932800569,-738.656033876156,812.961281598643,765.63627650789,88.3914836401272,363.581651332513,1352.47393526529,-834.745481307073,-562.300641452762,-981.224543479004,-752.393896380275,-661.457699805653,-1024.58587963342,-684.453817584228,-1091.05496642541,-1012.33915179528,-708.540515363581,-674.181899408021,-1132.38782371865,-375.480437211917,-946.832935922301,-901.52863964579,-223.791175589924,-125.933691198349,-606.977095836558,391.660420456521
21.4867767942443,-67.1966031731,0.204996914248388,-16.3163488490082,-97.4981664122678,88.6896961863507,52.7759353092991,-14.1634728401361,-0.678446434950869,-23.6473262730426,-33.4434984131436,20.2249914957185,-21.2021673481654,-58.9285593576228,-77.7955655853118,-151.509165250677,14.0091098852716,-186.6092058144,-94.9848406113731,-194.373934614195,-245.628942855614,-199.823887349862,-272.904284344062,83.8076552785277,-158.292846093548,38.9579234657009,-371.970107976944,-188.508685061182,715.030164773492,-539.11992436865,-109.65007852856,1133.0932981295,1039.46053657256,0,-984.08393338053,648.528239438891,700.988246248293,1762.6384607105,-646.830215473083,-526.891939717363,798.934208050932,966.289653433312,137.428212443463,308.371436383954,1540.45693570228,-734.028452601852,-676.588655117339,-946.029250938862,-824.641140985905,-886.070922623923,-1029.92123316513,-840.926795802274,-1157.30716854099,-1112.66093672998,-880.601646516527,-943.291720455779,-1201.1930643026,-541.222488457513,-991.940324900134,-923.538442184317,-314.731731736667,-284.800416716454,-538.05026195137,399.569018043228
134.592694403032,115.15892224461,105.843035266361,106.359884495326,81.5598945979896,168.262655568482,154.28965232827,111.111181968496,92.3050880404687,84.5061267571618,88.1504022228526,107.077269143551,80.0549498421647,69.7241677897893,41.3754774111474,-7.87935562338827,139.079753774066,-19.9991149218645,63.4126451803172,-28.2391783266993,-32.6981118177205,-14.0099772419545,-83.0903787422224,229.32585732452,-51.0154409285056,129.94226321353,-259.235096586854,-244.577229062209,509.325571250556,-513.28795804473,-82.1308403347823,991.834360359735,1376.87283190014,0,-805.730536680725,849.244093048665,642.749518621591,2078.12438895795,-490.513890595013,-273.068102018797,685.187130224108,1092.16895479693,181.644793331846,253.933581312901,1695.62654760324,-467.877635593251,-511.169378435337,-685.094040020466,-658.007342225045,-808.573703994306,-775.112379368314,-818.62437764238,-940.353782522889,-947.211428814193,-907.03856779515,-967.9168912851,-948.020019692723,-658.231391424738,-765.994187559687,-686.084370678481,-354.937281621065,-340.851454979146,-274.125649457965,374.887895400904
266.432691802728,288.991937453325,229.345221839158,242.21664288189,247.808822127119,255.555969074407,265.407763972551,241.893253894292,192.145131421093,201.893323754741,219.738101517419,193.538997259434,184.038652086379,201.385458268437,124.156774097182,117.41334505343,182.590590745262,93.0075474624519,198.044354044518,23.3780840392424,100.164680431784,34.0329940446226,-35.0342319211068,282.552256157691,-125.351328016937,8.70479423101459,-296.663883871547,-401.024176514778,101.567790694714,-539.771781039957,-132.965443397626,839.849003352775,1573.56833220287,0,-568.356041455912,996.732777916536,705.001553177463,2081.19656362607,-281.976617828301,30.0478468077769,590.29848550652,1146.64513801827,283.687913908947,288.521142453605,1782.65221857642,-122.376996005461,-125.572690392763,-304.453936955926,-324.816095193539,-431.266153546984,-356.218160006184,-654.865173607232,-479.69652945587,-585.367417037616,-786.116196331471,-731.172765198504,-472.926280960718,-667.08780488299,-308.435575468029,-308.043024520284,-305.33833498941,-121.332457517198,118.656154168423,453.049057671729
368.962984480643,385.661935095658,322.846667826966,330.590343401672,324.069928579217,311.327779695514,324.137971403154,307.35011881185,263.081613989366,272.707800573568,295.714911557672,249.216201451513,242.426488451634,267.731464361371,154.154416564476,169.462589094811,175.651655701044,116.597406828603,227.222506535457,5.45680882112961,100.386032999387,-2.58152036367916,-104.085069905409,214.940059651683,-259.009939871815,-197.540236819404,-454.793510709922,-486.210144487285,-218.779662052481,-617.886633831013,-110.968828148239,706.904779906384,1482.9033394653,0,-286.681882219975,987.856624067703,686.271493031197,1724.00253005979,-92.6120309736178,297.954127134899,371.985269105935,946.43799532765,313.835798888074,244.638751616754,1649.82856519477,197.264543784435,206.132780562562,45.1412557160003,-11.4792492949006,-46.3928747633844,57.6208139012988,-444.278797238508,35.347343129319,-207.498108562486,-568.694638386152,-403.042495342641,-2.65806876940479,-528.069569646221,187.828739237749,8.72033949371957,-165.213871782614,291.521176779806,467.489619601374,642.057337989881
427.020745687659,429.350709695221,373.182870633042,365.781102917345,342.514749975948,328.595664140191,319.50015802003,308.022551631831,296.839807170236,286.451754621635,300.814866235419,273.952143637008,251.265484081724,263.273701470437,172.067934803956,162.599793400514,205.059809165293,100.947742483814,155.51879452176,38.6740300547364,38.9195920878893,69.5182629752664,-133.46146103145,90.3309732560268,-212.994501329305,-240.166047189205,-485.271928219601,-303.390016475495,-248.483650701949,-568.988705583526,146.748825731196,441.550307130124,1049.49233173883,0,93.8227518044322,812.082515183429,346.652650461875,1131.56610126244,119.944866956821,525.808256316951,-15.9140234355594,436.016468780046,209.191613092241,18.5361620680767,1260.30703457735,461.540258422923,366.674208721673,332.190480574668,224.501335908577,173.958865798102,427.691713537734,-150.659824552803,485.14498638914,158.403759496039,-203.134927711092,-44.1248412537771,400.821378034551,-159.171845182423,604.834404801141,298.142598970606,131.210885294015,730.802508966306,731.837898813254,892.242521433449
448.482353787714,451.65021659082,392.062916094214,370.681903679888,346.17952504894,326.120506327296,287.985484729211,278.78239615523,302.606276047807,262.895777034604,259.298225356994,283.645877706374,234.375644156177,218.966613686212,208.770893708824,134.70526073222,295.136638532451,104.727388186837,44.6307349547183,176.444825262786,-7.3657997017106,355.324958892664,-29.0284237969511,-28.7345788309247,115.13001854637,-41.7882072334132,-181.904197394447,204.715431906409,-55.0901635335351,-175.276800946309,663.426790932738,1.80175283267701,455.440310355146,0,586.681675317511,597.405039961588,-195.144058446966,539.473664876114,431.571261072294,722.487360874155,-424.901238302028,-138.732993397764,55.2829310118514,-267.742062677796,756.32039287046,660.753953829622,426.854395384453,578.840515722434,412.151848430763,287.422855662341,763.407116224743,231.193295894755,829.991470270234,563.537467288846,313.868075213567,347.221913901159,778.877902444907,387.839649154848,911.078089464023,678.286134333087,592.28455617232,1074.02786723779,951.65148503978,1131.42818747965
423.905773258483,428.316266252586,371.225490420941,338.581905662418,313.429222186525,295.272546453183,239.946715357052,219.687322071977,275.986851198094,207.91980962376,179.7547730539,267.810881145885,188.108044797576,141.574564061026,230.475919497613,87.8797082991006,368.57020530371,111.997098335445,-65.2232769281024,328.115909536849,-35.3608689084069,707.5334150583,135.82073382254,-136.064506543617,553.413108663344,245.01485613049,359.965276484612,838.366319323699,89.2622424402047,478.960996724716,1202.75643427427,-521.878791975203,-73.077567363813,0,1039.08803790963,330.586082665206,-675.475875310994,72.8286621927065,777.950487895613,781.868081748947,-814.470050205653,-553.344938394113,-118.956517712769,-502.156905145429,261.246507894629,737.08340614685,439.430225091481,724.641419492615,524.270292520883,369.8895718589,972.305905027439,545.752272964201,1018.1498847479,892.574210630683,766.458051291294,661.187417127049,1053.78287650948,855.030953188988,1062.91262016579,1031.62756658499,1034.22905750123,1203.44447144198,1081.31922089067,1236.77169169382
316.250979377189,320.061685921171,270.909126729629,231.633539765853,203.119721257024,191.182177858143,132.606123915057,98.6798672716085,177.385180370008,93.6178454235136,41.5332405419782,176.522046710084,70.448757641078,6.20252363923587,159.310585095843,-13.0013595493453,308.533322060724,46.9420864761616,-193.094692923449,337.390917484455,-87.2483518512434,832.372425441401,220.723379115321,-230.705784395452,815.564438557642,459.23624012251,828.144616629871,1292.86211285124,24.2850704934805,1076.602802535,1440.44796249915,-1012.42939805836,-521.483651994459,0,1328.33909696628,-150.925067693245,-1060.58924769613,-368.888932357634,1044.12419550575,612.312564279489,-1269.95784253325,-889.786626683278,-376.833656038398,-748.366374555031,-229.725480047602,648.831339152577,392.293107494581,689.35686046079,510.038641823476,401.241360257869,940.747125168611,646.986795593458,1003.79718737083,935.794960212053,894.604374523651,756.031951701265,1063.39681006202,991.86673575667,1005.33384394203,1093.71390982846,1183.06078096995,1034.43187955113,1009.57892102094,1089.59111610635
124.868118526493,147.404602269778,85.0988760818845,54.0792998056555,35.3168933549565,11.041500872179,-46.8913812055261,-75.2847261059391,-10.6559317830412,-84.6121181033605,-141.657695148101,-7.72912866433948,-120.150189470126,-175.324019582093,-30.2368784941305,-175.403763975245,77.5417890896983,-121.318738395715,-352.620791556947,145.914517801464,-189.168280616263,584.728532213697,159.216567677555,-312.298264513423,765.390194110186,528.604905014258,1000.74370503059,1408.16185843573,-170.237703980449,1435.79185679072,1282.37026705507,-1322.79819067039,-956.101895585207,0,1549.13285849757,-819.700108958137,-1433.84434568184,-887.598288667477,1242.27700287998,314.245768647018,-1673.62189512531,-1280.50358575168,-662.433854272106,-1044.4642838632,-705.894364377354,460.721877992811,288.005052322755,514.759592357052,402.784409972996,345.542129002363,705.690088704509,561.327262887821,816.072260044699,686.179525109071,702.073803648601,636.803013468204,792.717299059204,789.91301787371,746.634784898241,813.079635211715,955.595594858326,650.238061336087,720.382342522923,727.168272575146
-62.0497669958338,-8.87600418960618,-105.637242977639,-111.865799505973,-106.173466332659,-161.230062905951,-218.379776611357,-221.114693160193,-206.916709928617,-249.779560189072,-287.931094724563,-205.071551669419,-294.421505558965,-321.563775257505,-251.294817762104,-339.810352508483,-209.853124177313,-326.043563606043,-495.567744807725,-153.546761154152,-345.659165138749,106.67632000457,-49.864325308913,-449.797095819355,437.344181356439,335.548417069698,845.764072818588,1137.56281832191,-412.335399981758,1504.64500059096,844.82617964948,-1321.54686813566,-1273.20903488594,0,1728.0280258847,-1377.34989759335,-1713.09170947294,-1340.97742106931,1375.47181091086,46.6837433368424,-1726.7078042364,-1598.26571066021,-794.635874171762,-1259.41234924737,-1045.91819404129,280.001219319363,171.958960661475,321.834012493716,306.923046105318,245.676342628124,419.548669049975,432.440157578411,539.856377230435,357.076491665672,443.581477877464,461.602684982818,417.802371702056,481.704650966287,386.772892099973,429.798822732882,575.757622789902,293.54323675336,360.641590739828,363.843485073609
-149.663630098833,-84.9945793588614,-204.311637462234,-187.93813863862,-154.885048252684,-240.198338276326,-290.439520616266,-264.312625193191,-303.805489090505,-315.188804463503,-326.469929810206,-313.521786429321,-363.678952959108,-362.603492108079,-388.899452637771,-436.697719071044,-389.33419624431,-477.337736951108,-565.040421748024,-423.727395458691,-543.818938696323,-336.022132631438,-387.246051805004,-699.425533208217,-69.4298936262443,-220.953399384818,421.219087382683,478.423434621182,-680.976327168634,1209.83170641631,240.331195668065,-969.932387536012,-1287.86917079805,0,1609.18090328387,-1513.18261194984,-1725.76562652912,-1470.58592462575,1292.56262026914,-136.623837548531,-1317.67245212609,-1620.4327663671,-666.142615968808,-1257.41484022624,-1154.10408624521,150.856783360485,118.215549540609,187.18708058525,296.792565568859,212.896739432101,195.610117582503,388.389400354552,269.542930239486,136.048879373655,326.203266378629,391.336088552911,132.479390532008,314.670063268253,81.5005915310628,193.013771218675,327.942466182117,148.684284274263,116.107361401272,179.752996781524
-136.74101908453,-77.8364393397857,-194.872239361154,-172.645865540827,-114.178773287231,-220.455159194573,-257.578357943247,-209.286176354415,-288.219078255059,-279.654637426156,-268.769983556666,-310.830335464597,-332.029850619602,-306.877222246288,-405.61623933286,-446.360561370451,-397.411965292715,-535.161586124759,-552.810073962531,-569.662278583977,-717.795509798145,-549.81166686217,-739.508361413449,-942.776972723557,-532.297196736619,-909.912220405302,-86.710625329973,-295.446484094684,-815.416786189102,663.456085598121,-357.992755627399,-380.027523632257,-1024.00555527694,0,1073.27343010182,-1147.89196445154,-1467.89771602602,-1202.18294945468,934.491759088867,-182.063487089244,-667.290076359147,-1338.95578356479,-319.016489249141,-1044.02855315599,-1083.28110160906,77.9684179056944,175.945233770921,127.968525164672,361.387791731887,313.436002143543,72.0616652918759,457.482787773157,100.150133919155,61.2743512358866,343.850760896096,449.907614028537,20.8649272206653,329.731168545912,-43.3686428978987,132.494269882011,263.912914721963,174.023721004566,44.7668200757398,142.939896740783
-90.6533908642466,-27.786952345045,-138.660053565523,-119.860162929686,-39.9178856762888,-156.819000523528,-183.657192437777,-121.12159813341,-224.99767935294,-208.870207798585,-182.406562267373,-243.899650325655,-263.494427686714,-218.007353071088,-334.897440963994,-398.328888948738,-278.480284036322,-502.822198820333,-497.55528949564,-547.916032776367,-780.526846449618,-483.169433742081,-899.432930937639,-1007.94082287627,-662.057221537157,-1235.99417680353,-382.224988945339,-664.520641245358,-664.074161784933,225.36429113977,-655.453462098577,73.2770650825156,-736.565651807416,0,462.523361487467,-554.28245982259,-1147.89684580851,-708.885069749753,515.56653433059,-21.0974630184674,-176.670921873419,-955.155169611151,75.57027751379,-743.557244744465,-944.462468249551,55.9770564118883,282.609523952184,109.870177640195,412.310477252155,458.333632063485,19.6730426603681,532.417442852141,53.8370856886203,44.0748973809216,355.210946273558,509.752721362651,19.0779584622973,361.616720932234,-10.8061928761421,113.367629278024,228.568987786448,190.842802672812,50.7289337591077,100.76078559508
-69.1000293145291,9.51802672157135,-99.0735853792031,-86.0630828799614,1.14376614964199,-107.414050481556,-131.027346638876,-70.6781693413348,-170.812166126319,-164.581430385002,-134.006407570409,-165.477078157282,-209.065962727448,-166.047252220804,-225.624848381074,-339.631974648929,-115.071113459098,-405.553691685003,-455.876046382873,-388.607596080877,-713.211993103374,-256.04153922785,-767.333497774137,-917.280221600636,-448.79568044989,-1016.68165075322,-368.679418840763,-492.646697681249,-408.518379771822,61.829031953666,-578.426061286975,-73.3466902303207,-637.595245728034,0,123.585313383579,-208.576401410594,-988.3023076786,-280.974682753513,249.963649171281,219.465200824988,-164.335927467313,-687.677823982095,287.270422498093,-531.536181307607,-813.24883343434,30.1315616158296,287.59950993453,50.4348312034581,345.559349692588,461.294362349222,-48.774346194167,448.86114654071,35.4778300140981,-47.7273612312701,235.961864584516,421.934551251934,-14.0627518956661,252.293331871788,27.5050984788725,29.7537675318573,101.003586034501,90.4606378529251,19.5186124061126,-20.8336440747164
-117.690266781564,-37.1551101734505,-124.786576704707,-127.832359719477,-59.0152470194822,-126.859387840354,-155.700501188164,-123.864176242863,-175.604890790134,-199.874329289708,-189.759396906755,-138.137637278568,-220.363320194362,-220.348786734316,-161.548362439777,-341.584306179216,-25.9271714590769,-333.403174821633,-502.701920757766,-244.124606513654,-629.254413370451,-118.509489649047,-535.15558014235,-884.684818293086,-254.2912835415,-670.736142898119,-276.004241098822,-295.309625263894,-428.184113827257,-61.4551642439696,-516.314979983873,-879.212225493378,-823.740200700505,0,-99.5735821188478,-424.35304444812,-1086.92968013144,-263.836778164839,78.8602399894461,215.837209444575,-649.701748136864,-717.254615542187,170.125502072856,-562.690245799563,-833.83365499103,-94.5153999358244,80.1360876042552,-119.472794104032,104.165884380794,202.811641361321,-199.435794227081,143.057390924879,-65.6039689676606,-256.869709373451,-30.9716503153157,135.360959150712,-144.678298357595,-5.84960665488172,-45.8985982820495,-124.730508851397,-112.682764232397,-136.009989323042,-85.4724077785196,-215.643711623188
-275.398937445193,-217.84712913971,-256.867796756631,-289.491496881656,-260.195195928785,-255.74005245026,-306.63092292669,-318.241260545808,-291.157568675392,-359.615812237679,-397.114391569055,-230.10020008986,-358.902524910986,-426.229686722487,-247.524595537161,-487.414924208644,-119.818806362163,-421.282550383756,-712.898491219101,-298.441645805058,-715.0229860567,-221.668642830958,-531.631184483447,-1089.59588854178,-365.383963948949,-712.249984612124,-298.617784570373,-529.597713173565,-865.40551796905,-332.603269836939,-828.05566414638,-1873.35109792021,-1376.01229074919,0,-507.514566455419,-1130.03281780572,-1411.95545045595,-847.42456220661,-156.714369848416,-186.361416855045,-1357.35654418108,-1110.57050894792,-233.411240227053,-849.249417328155,-1171.62393493572,-356.668684873815,-320.811835130019,-398.294045580101,-293.395692568311,-274.711726990532,-424.838920011417,-298.378211142379,-275.702518439092,-505.815560557556,-368.466570316465,-301.54791764574,-337.966767851969,-343.013489302047,-234.195785165721,-328.788907926007,-375.217697082324,-477.070701348463,-258.035488066909,-494.196056959802
-489.686981275853,-462.273255594853,-450.125925499731,-514.43060145738,-525.860208219919,-439.89775922723,-529.988934995803,-575.558251222918,-479.572215800368,-592.844790596859,-682.672257507199,-409.286628032023,-584.359456919143,-710.31385785676,-453.878321055984,-736.650186705589,-336.643473847235,-652.659262155907,-1028.42830286963,-521.973565321568,-975.258824925287,-418.912721548809,-785.374948279569,-1435.08137014084,-620.522368539528,-1080.17584615718,-311.769475493023,-955.468012164004,-1426.56876902461,-561.309640337253,-1256.53319888337,-2495.65886415837,-2197.82514576664,0,-927.363448515967,-1907.62469831066,-1799.86565206577,-1715.63193767503,-407.764821101626,-730.496107890831,-1918.21913930244,-1640.52773501188,-703.543026220007,-1176.77949651587,-1683.11548595363,-644.461774815752,-747.847039966708,-688.205400198661,-715.880589807571,-770.980184921107,-648.044882067418,-718.492590955255,-508.758137363599,-694.716397737039,-665.359673019752,-759.662701933655,-525.566476202679,-684.818396241423,-444.085585309488,-542.353141812765,-649.557015837375,-845.576522158111,-453.633124526684,-815.35862371593
-629.712661465061,-623.153261654227,-582.973203634253,-667.20070424166,-704.361390386436,-557.024760261225,-680.787156395408,-741.487711446148,-618.843385618497,-759.769980909926,-878.955699560883,-549.413769845197,-748.657644710744,-902.340434525144,-617.359957933585,-911.657776443147,-498.809072884435,-831.729803503416,-1235.27597554083,-700.156615947378,-1157.50860398443,-500.057569695552,-977.102160251981,-1597.23005107007,-711.004074409283,-1279.33706947286,-179.491200593879,-1073.01878064934,-1665.98116894012,-534.897417195545,-1297.75400273558,-2543.21324745119,-2905.67131623229,0,-971.973300521632,-2270.55608705585,-2065.45494572061,-2279.11757014465,-508.100029467762,-1052.16551941881,-2093.80918612324,-1950.43532384486,-991.874155041833,-1290.24496817928,-1970.53516297112,-774.126241032381,-993.982657880262,-841.537706774909,-977.869809343983,-1069.50239314965,-760.935227652884,-996.477163521858,-626.586022234295,-779.139014124885,-848.393716165795,-1078.48444213838,-635.183756836018,-942.272929721489,-556.457433334707,-685.323319342942,-865.749831472933,-1066.14745831641,-585.494015736218,-1037.59015743895
-652.855390483114,-656.196621394535,-612.981271877913,-696.774058112585,-741.168337081173,-576.308258756561,-703.441784100444,-765.852159518849,-660.061398177568,-797.123456785437,-912.890921796602,-602.833324477959,-782.512868216211,-923.765220240733,-680.230840501064,-927.107249069446,-577.078219873182,-865.963804577001,-1202.89029001241,-778.398844163526,-1098.76835704072,-555.450640453435,-951.056282479437,-1404.32512649158,-693.663865957657,-1122.02555649162,-130.812615446575,-870.726820683168,-1463.27676710816,-425.977713422263,-935.801133481608,-2189.25001673174,-3141.92572128677,0,-702.703812313739,-2028.48882049888,-2141.19979009577,-2343.31830808794,-487.599172807917,-1073.84325011929,-1877.30494055,-1938.57141758703,-999.653720955232,-1166.16282024173,-1881.09447142354,-709.217308761287,-995.217254642161,-808.073688501983,-1008.00091370592,-1113.61538757645,-726.533195631484,-1089.99327199984,-588.903882945377,-768.198382833453,-907.202861630141,-1163.26259388009,-633.33505099986,-1031.26127513648,-541.384629267144,-707.56515406734,-946.370899778418,-1045.48451005995,-606.494820444549,-1059.36936929481
-599.663548667878,-600.045868894171,-575.753480907583,-634.876687496102,-666.625292306516,-544.813713422703,-640.415181338023,-696.226741060318,-635.372355849121,-735.521146338756,-820.97661509921,-608.583606671588,-724.922148724726,-821.211437382788,-713.19607233013,-845.332704595792,-666.409531520005,-842.647980098945,-995.481368531627,-884.303615244417,-910.053245591942,-786.429400767984,-895.90946357293,-983.198936600839,-839.25864108519,-882.801464268329,-467.193361949224,-709.426926550451,-1041.07675569768,-547.573225505718,-534.902958030992,-1658.25878832311,-2792.02420944591,0,-503.842898213979,-1381.37494771843,-1972.14448705742,-2087.21481898,-528.594408317401,-928.471090794905,-1418.55071095834,-1666.14837757252,-786.279954042639,-899.877933877018,-1546.76127835922,-566.775830070131,-821.611031296428,-664.052072893803,-859.508287466871,-954.123746572623,-598.60370085876,-982.436371820844,-466.877994151224,-666.799920577213,-827.395566413442,-994.545131780976,-533.235683284352,-901.705691023178,-446.203562524952,-611.291609270098,-836.645204247096,-824.317906218388,-525.128712780982,-882.416559688027
-450.164174304157,-427.886300835606,-454.602468651089,-466.377745513424,-462.410182326629,-444.33547520854,-481.305050303841,-521.749108222099,-526.499645058782,-566.181005047422,-603.985179477468,-545.759483623364,-574.737056405958,-611.733979844735,-700.012716536344,-684.818445404267,-735.415245499853,-787.393875135552,-688.882371924239,-1004.98389281526,-707.313037928948,-1080.68771042354,-926.930487042811,-496.301534218351,-1106.61346689074,-748.094459978403,-1029.14611283537,-717.903129930223,-562.625507351277,-865.232185573734,-270.754932919452,-991.180750275372,-1841.56524094047,0,-481.247574862793,-676.327562603496,-1433.9906080657,-1488.99753462949,-649.902975643876,-694.734023613005,-867.437635370619,-1040.7870976224,-457.036248311114,-455.523913243971,-977.555424457537,-397.432018522649,-532.966826345103,-462.138834062016,-590.107600703881,-611.835070271977,-412.25538903279,-676.949171235821,-296.665035981613,-459.816093970089,-586.127942853843,-608.561252747065,-345.435693241726,-571.983058448363,-282.867778386693,-403.585296103684,-539.943296208462,-460.938712397963,-346.868267409351,-541.476753839812
-166.14766450316,-102.460270336356,-207.543371876722,-159.950271635255,-105.73574481874,-219.418473868425,-185.1675678373,-198.654210745537,-277.080847450183,-251.888538747148,-234.037439243832,-341.825090548863,-284.887218737721,-259.760629928809,-523.108088200503,-383.960861466358,-633.851351993777,-594.964616946979,-269.038843913421,-949.220611474242,-438.828849344187,-1113.55328218031,-885.332918970016,18.3987874914174,-1169.58579910747,-583.579586623499,-1307.49047298018,-694.414521148271,-22.677340976253,-1011.05911517584,-47.7093970056591,-187.381629252189,-426.505239111603,0,-367.440173029405,-128.633697288288,-540.743020730485,-422.933639803438,-642.406019649796,-353.367209037639,-294.15134181551,-25.4203234393614,-99.1655685137472,196.161174704101,-110.930840186941,-144.519790972012,-177.434760533031,-186.654634154379,-257.070667071029,-136.246384106029,-155.859981047749,-263.877988371058,-52.8924383654476,-170.29931472244,-238.169868911623,-129.436966720513,-82.2211058675971,-155.911684479462,-39.0295228176597,-110.657761128321,-148.328744763735,-9.17643138805417,-83.9059582048294,-101.551128844419
191.113122337622,301.090860592287,123.013318807961,222.987904205846,322.749183077264,101.071703901385,196.975118714812,213.106803857293,83.8102206872794,158.596980270232,225.309790612676,-4.76845312023875,116.996428214435,193.595054651993,-160.685923890088,46.999133452795,-313.538243503813,-224.538910640124,246.146062751416,-636.739631326133,-55.9654726232917,-792.067678015504,-624.851899167949,544.622011134846,-894.436477831559,-256.128527585562,-1063.50427498664,-462.240304703293,526.398115188739,-756.595653066455,226.415910146742,589.356017525876,981.855033530741,0,63.4158136709604,240.611909468075,461.78001952146,805.229282907103,-357.625247942734,71.2539409126661,267.961443363814,1045.32625660715,214.477971914942,864.082455010486,832.078497938882,177.679004901692,167.332690430907,129.252219788302,64.0150962538365,329.071345930218,146.019188636127,117.648218839765,239.139280965533,130.957097277124,101.668924101803,284.516165913096,204.382508324924,207.393752001938,238.320457453202,201.12303514501,217.409386166536,427.758463294052,210.932455401084,320.888120772383
485.116154424206,636.583029725013,409.915899806395,541.020044252137,673.178820158784,393.203588548388,526.158126199967,556.774854875933,412.051308730353,517.123400944034,611.066630270865,329.235826377727,489.845880333541,590.667625110232,226.39633151846,460.376269764154,67.9279302567427,185.964594731768,712.281830885658,-240.870075697694,336.29585223335,-391.363000251272,-245.287974238437,987.462439226644,-526.754612428727,121.539956568287,-635.913523246632,-134.562128899188,929.842281386034,-333.315697506874,441.218270335351,1135.34115481139,1903.54948487742,0,607.120656523311,499.615339527548,1343.52534564712,1690.26195480546,18.9962340284319,372.251636033962,793.725470345039,1784.44420198238,423.252131531108,1321.06288940935,1502.76497184958,424.354282159324,445.752632189192,367.545401046132,320.974638854377,646.679638231326,392.125822978769,379.406039121991,461.217769929781,364.997154463532,344.545684053396,545.321295944823,423.340533410485,437.534175609884,445.295679296887,445.100147529117,470.278515922012,719.489139337705,447.085726550284,602.67025093568
639.730298394671,826.858695446151,570.517700400041,714.481211299822,870.277482028125,565.833468555307,712.785730980392,744.643149898804,595.47609688071,720.095120678687,823.001387223003,529.434791823791,712.455997325808,819.216415171021,469.178168432782,720.708543378229,318.096793082914,477.445799829918,993.626131367716,27.398734141473,608.779124544921,-213.850853717091,54.8917842949361,1245.24317728054,-380.099591397903,345.281693939754,-528.278700221048,-29.7722777149498,1132.94856393472,-174.708006769396,337.813192573858,1486.94515121585,2365.86553768832,0,717.189606415606,800.25014287492,2100.65379537655,2167.12533605928,137.253639107776,324.418857294631,1336.31195728274,2209.56689756317,550.125577907519,1592.09956563566,1863.53226249843,507.835792864954,655.535195247099,473.648862509686,505.323212049676,806.010560177385,508.39273947878,527.034037690808,536.763093426418,497.484249434475,478.742435207334,677.459399151464,524.024427134758,547.73157064426,530.636723926974,575.877631064918,591.579204714231,835.310573270374,568.366955123026,716.942918120847
728.392551233874,933.657649542018,667.870159975212,819.108010719728,988.747829992015,671.32941491855,821.95233460651,860.491716293398,695.355246067061,837.39746976344,948.017447844033,632.821535949784,835.278520784592,954.578508921262,600.49304187778,876.118135083889,450.003271194433,677.373843471457,1147.44357594005,195.699519544684,803.837949343521,-205.353402208455,268.772394309246,1362.36289153272,-416.19232876649,429.919991106765,-761.381856374315,-244.054604552779,1254.90230729746,-373.381962845344,-109.193659515588,1898.59488058853,2762.90148101746,0,95.930652768722,1346.62622038064,2847.48307608256,2527.17446687097,-78.4215548072836,74.8635331758404,1990.83838583261,2585.12587906127,732.83288127909,1869.13387017973,2138.7081794566,541.290790814989,832.348365683713,555.86979254839,659.272727008299,921.41480092762,570.374458935766,652.629275745141,559.317314147299,596.032158514993,591.035857063565,796.939655960421,578.503697917344,648.889447507551,576.621774911217,656.41291136227,669.901697348092,914.050335080223,640.003004379948,786.274909889388
854.243441064175,1049.2090592454,797.320195487218,953.981454647164,1121.64254431737,801.075303783855,959.755335455794,1011.04367810951,827.571987164317,987.011997495093,1108.08339213623,757.564126047863,980.202388853629,1114.3957763743,759.986812070392,1053.59001113059,608.091717143876,912.072362413087,1309.73254631732,453.209574462401,1040.78493837464,-54.2227679954943,560.764721843848,1453.99047236503,-270.580016526707,581.718902488246,-871.332217086725,-438.58197078441,1332.92894165136,-611.657592732388,-520.151527102187,2419.6744754383,3205.58280961748,0,-903.970988809754,2024.53740608211,3510.14845280964,2859.93236567674,-390.368502812045,42.2663938259522,2651.40486430234,2951.97904488577,1025.62208096985,2180.75938111976,2409.48201798256,663.080449378986,1001.04926146939,715.356630153838,823.592618336507,1072.80173864814,692.335226261393,821.2695706286,654.887300071565,744.591436536361,758.944516154639,970.882747204647,686.850758162757,819.924790965743,683.256680473322,774.926038564928,796.973358639354,1071.21061254349,757.848442635,919.047683838728
970.64460862415,1139.23543925457,914.615042601801,1065.44328357944,1214.92950144785,912.453126704229,1078.70408399303,1133.85710482915,956.898048811548,1119.27147469602,1237.95888503768,889.218097564491,1116.94479645279,1241.67996726413,938.912319890867,1222.13881884993,804.995809880432,1150.04115301219,1441.70338333623,821.993750441031,1270.64408230681,352.05219968711,940.072313801312,1489.70803367413,215.414012096555,839.233837190077,-573.778449118091,-289.519630085015,1224.5094417826,-643.734249690735,-554.654421536289,2686.55658153707,3272.75867174103,0,-1603.1777470552,2336.39245867229,3711.00821785105,2919.34918252928,-606.902998698255,307.36754614466,2949.16040866487,3024.04559715596,1217.28834253076,2298.31479660389,2505.07702219234,810.27180343571,1098.29308892753,862.702247370528,936.751073339118,1168.35256751995,829.449507420592,944.550688643053,779.989868519039,883.599506954521,896.534829324986,1084.5003449965,814.86003793673,952.810366710354,806.68263382209,889.227340607178,897.057509287184,1187.71962400811,878.761169710221,1016.89823914198
925.277347441986,1065.73776197265,881.538946744822,1001.9581326788,1119.37468381168,871.288487228428,1016.34529660328,1062.35605235611,933.58679015523,1062.62920149302,1151.83374318574,887.679200787804,1081.66915887165,1165.41164862587,984.103460965343,1214.38185141112,904.562283549888,1214.71711530176,1375.59476397426,1086.92145578779,1326.61157842624,765.082853234613,1195.66552635298,1370.06722385466,721.843463537092,1035.80733215274,-115.386994639396,106.685636105248,960.58510368614,-547.586652698783,-231.62231217573,2395.13653086469,2552.90798766773,0,-1622.33969487985,2108.45274724703,3171.83305359817,2491.09751261795,-713.237372026482,530.674705148553,2612.96979592577,2558.81461380177,1056.4456744903,2004.59091605468,2246.75054256021,815.571014254454,995.298716093457,836.216623161155,860.490930253,1040.82085219207,828.542398583232,857.297017735394,783.862900150353,858.432551342681,825.187775884372,953.385704881632,821.830799308963,848.433616928118,809.512011618193,856.788761342294,791.300229053809,1046.75783147001,860.053152797338,877.60518995903
664.870012798596,766.588373300203,656.136601167573,715.97807901884,786.914143597432,644.277487455349,731.334259988493,751.716449043298,705.801083652476,769.854964025252,806.200823030422,696.922646417177,815.015028267725,840.572339624117,834.417187263565,970.893117113824,830.70845980781,1051.02650808778,1076.72215670269,1094.83029880928,1186.66302215199,913.401626685647,1220.56179359026,1138.68587475666,905.924146254798,1115.89754342504,133.539372521589,490.590617594277,813.08625606676,-463.105623330591,285.142392973478,1758.68979882474,1342.04886016479,0,-1117.3499746202,1790.07424358106,2244.43713634833,1758.24898250807,-722.991052469932,550.484276845822,1818.20824182772,1770.77990055088,625.669758217145,1404.63987668975,1674.8078676959,646.652392158329,651.130223946797,619.872433284533,549.235888683303,665.861041164306,639.352860222168,529.850323721946,612.785376385572,627.96336811294,509.067327317952,570.102871543806,642.162800780672,481.098182912802,646.870627621753,632.455788912724,447.421180167029,634.815818413549,661.179092305487,474.554334139264
320.885191631749,352.126457107334,356.381274041014,340.845713761445,346.981461843412,359.905938869816,386.151963035251,354.252300878599,403.934261419787,400.879940748033,379.131093789942,437.973646580627,465.703924278442,430.927996496361,601.473606976178,633.398517495476,653.876072054385,801.192065791006,708.383376613754,929.829142809502,988.022597621539,798.26022807716,1128.13055534599,919.780357494353,824.386853513421,1149.60572130471,113.206222277585,741.224832382651,871.811789652523,-390.657811260202,820.631770012023,1243.90386130698,487.413882272139,0,-510.622671193257,1724.42020440073,1664.32311033634,1212.69075815486,-657.536893851068,553.348668506948,1059.69055108072,1208.03840617915,270.455025929389,884.055185181016,1045.15168353365,419.22867987685,205.419429405263,344.642417861636,147.193558721056,225.752961535524,371.925467342461,130.704354936626,366.720906729326,324.522362960513,116.701232029563,154.536743877184,380.201161959226,60.0532860528779,425.872506899183,352.445267762746,50.1474979085948,189.296083878535,411.157266416003,23.6223920717294
67.0908860369896,-2.62547326543219,127.349074140842,53.1806703673942,-20.2595160063386,161.971119036509,154.168309437741,59.0337034998729,187.82888574987,138.283842902108,74.8258868058969,254.27108714799,218.296812831822,138.053511996273,411.796625662776,382.079303766612,471.855695053574,605.120881363038,448.757352675582,739.220432813949,828.681363554357,584.638680911031,1021.90219374427,767.896187756416,703.809052867283,1128.75280896,-4.64986485503984,836.959901997399,949.2621412271,-280.576901893929,1164.32342974773,1063.69634528403,419.437527721119,0,-80.7667238681123,1696.1794801054,1652.60092396766,1130.74697611396,-581.77607085573,622.041331742715,723.951740000447,1116.19598676846,177.597653627832,702.875915859352,599.073057975208,232.84843261389,-111.194030752457,135.879952711558,-128.474655372333,-48.4720895470044,157.089618144586,-141.558716217682,173.063913026822,93.2431073750496,-169.396871791645,-65.8725725156671,185.974252090921,-208.269308385848,269.960869125223,165.633486603577,-216.214416529573,-50.787819506533,243.551543601565,-257.710537686356
-68.4161364786149,-226.739047673941,-6.21217764648831,-101.843629789821,-241.75380498581,59.7767012649843,35.2056046076712,-89.7427998588068,69.3297700139792,4.47548019250164,-68.0612208424737,144.819102661148,94.8299456483238,4.61381062794328,277.248057821759,257.349695841133,306.876820881076,464.735693059601,331.496162622611,567.893449118977,703.919769873476,390.100071236178,892.47602751279,680.705701271046,616.226543768625,1027.67491994727,-58.475641837469,835.107266388663,930.821041191696,-123.940320580635,1239.12343486246,1104.464267579,726.120677308372,0,193.827867269577,1455.87257121139,1693.62411024841,1278.56187226692,-495.571047651358,616.446561293625,822.36740713226,1183.12035945807,229.91468594726,746.651706796475,359.253106961815,89.6207557059323,-174.874706747391,13.1173553289692,-193.505811767866,-85.341105811383,23.0002990984524,-235.411217833832,61.498579051491,-49.9281267529617,-311.021495795039,-74.0497853211416,80.4888977982051,-315.931653951959,185.127657522984,54.7005961758647,-350.958863689663,-73.5948603621755,137.728453066233,-367.071032120691
-180.049861183871,-368.46723051158,-116.452560403654,-203.995664821697,-361.501194610097,-35.9432192237793,-75.7843413434503,-175.145256079894,-42.5827259588617,-92.9544624578979,-143.240214436958,22.3787044018629,-5.6181598265357,-68.934089596689,136.731805301775,170.107596788033,141.139432298994,312.024076454756,269.807117005608,391.904789770619,570.580505105845,241.947271327233,709.44100009884,627.87869557014,520.680446290241,893.082669339766,-9.76860599453443,828.04485936017,910.116349055471,33.8251348256653,1173.10688398297,1175.72942239612,856.346593818736,0,418.606804845358,1153.31119466316,1353.72571127219,1283.87263595312,-348.302207662285,478.061908761909,1076.02316160138,1061.57021240618,257.80023831711,756.807172725754,224.882051783755,-44.3543313321314,-81.2179426393545,-75.9465572887946,-149.115776004665,-15.9839664974796,-76.2029594055054,-229.479789338129,-21.2155069041014,-153.167258977047,-354.676040949347,-18.8658073673262,-12.2357595147429,-351.920892405485,96.9658242006949,-75.5303650553791,-434.640754957053,-36.85639163523,-7.36743683608361,-431.253712420898
-300.724096205541,-465.899894927378,-224.844987266386,-298.528349315604,-430.156994585511,-153.747194308115,-198.78664204706,-244.083425852469,-163.916462023545,-189.563911850043,-208.792177721169,-117.250609843343,-121.017665452057,-146.271142445232,-22.8712889232107,56.3976861961017,-13.6597359576893,127.21338301689,188.135394695801,191.632025422147,392.141395796726,117.630192733387,461.141565685406,542.869826414028,381.805590153176,721.321314994585,49.5263534391765,780.727008899487,951.877014794708,129.658451400969,1072.1273666661,1155.32060452979,785.812456286407,0,548.555042035777,1007.2050214904,847.524110733421,1111.46929785885,-190.856656183938,307.083713003548,1214.10153732436,811.959433575834,250.89234918934,650.908133330945,180.155946830493,-164.067166192937,-20.75271382053,-158.780299598872,-128.317555351286,2.594633799014,-163.020551672069,-192.570888628071,-113.023850353863,-205.336008274224,-317.916113218006,3.44461114298348,-113.492122192116,-322.627089485661,-23.5914404954094,-206.18033453516,-454.54380486558,-33.0805431395904,-190.690609453759,-489.965546128519
-377.962998230971,-514.421975641649,-286.077878836792,-356.520154524404,-468.226045312357,-234.948415720754,-270.998789058925,-276.370564183342,-234.121540339277,-248.515833951707,-252.896474483256,-202.749732052971,-203.499315138639,-206.928428394089,-148.684972137367,-65.9022763945873,-127.226428464913,-54.7547816336793,68.001779498295,-25.0570173449919,155.602834007782,-13.3625031428363,150.058619774812,360.687248164507,186.846023864476,440.689918725451,33.2487660042461,581.833734774414,915.378713037663,160.938029881358,885.834744491713,943.360941992382,726.866747849501,0,468.637570187114,919.930146191953,547.876326012939,939.368272405538,-117.608557728402,188.240462803427,1132.07285979674,615.43068266918,257.221702067337,482.619840948296,233.189104411766,-259.822519725084,-92.0178534214023,-243.696907313966,-182.833593968585,-74.644493725043,-239.634405951922,-167.199031898982,-216.385117724246,-203.358019643912,-242.359396500768,-6.74434106046747,-194.705451642812,-222.799884238169,-145.912500774388,-265.04647063066,-387.44906024263,-53.2443960180543,-326.000801982142,-509.222221383232
-424.591890565549,-559.893665512025,-320.124058683012,-398.657794846769,-525.593375367373,-278.026802425906,-312.60511673262,-309.540241988598,-267.030335347451,-294.487505806341,-307.745050713026,-239.317547256273,-260.113178035371,-271.405862183692,-227.509390500926,-192.477711049467,-206.338353974479,-220.816599227384,-109.95817389711,-221.201914758224,-125.935876732578,-139.833327181965,-179.238128832151,57.9574647669267,-30.2725255107471,60.9977927362214,-1.08179368823068,245.715805832735,592.252923546082,159.669410217088,528.249558146926,454.809917390804,609.032500866464,0,160.220108359457,613.333806549671,377.261942819148,767.176744415149,-137.412817306221,64.8350942544423,793.168044928329,375.009383101425,189.950084347604,217.971621383189,237.006372925543,-365.809204943528,-289.456520009497,-369.771449578879,-332.589895957667,-248.828107497078,-340.272279825155,-246.564139658693,-337.158279309008,-246.496869485762,-266.553246345296,-93.2198963372132,-272.196784236543,-181.377991229868,-261.865737666535,-303.883413354851,-362.480650605449,-144.959809639979,-412.03205195738,-551.20124843619
-526.604343936383,-674.561594530412,-410.029360496512,-499.785090720332,-652.489849139473,-368.075455619736,-418.8531390313,-424.203822482788,-351.056162099243,-405.807379392696,-440.568209109517,-312.99641830539,-363.25377198005,-407.979007285447,-313.766353130127,-351.931699024762,-296.239276521613,-383.767252876105,-352.382228998172,-354.824650887825,-406.349033811381,-206.100665435302,-442.55946437841,-324.449679682528,-192.875576077275,-310.023290956764,67.2731084109101,-115.674110975876,-44.4267816710033,111.791293196232,-4.06068147081383,-266.58963600651,209.430269443288,0,-296.539954468845,-33.8569014237866,13.7695017801411,444.548450357258,-216.819444710485,-211.112490491485,187.396091631135,-116.028874316552,-96.5246301777004,-239.772848693049,12.0171064205497,-496.506845275836,-567.243139780319,-542.071714858134,-575.380157488259,-524.568198417455,-473.021600836401,-482.508300106194,-459.468431986897,-398.168050029389,-464.671229808017,-314.382983340172,-375.425427246397,-320.338264353728,-387.995922849639,-424.451277641971,-515.133345767067,-382.08179207448,-529.160710302627,-718.005346557951
-692.671015778672,-837.034629604899,-564.076969095799,-658.075203735339,-814.919065485367,-533.342141118605,-596.273730545626,-603.272833175604,-505.418760254086,-575.83111484514,-629.159329996267,-452.826149970072,-522.413353893903,-599.786427223064,-435.375514018587,-521.877754673658,-421.367720710293,-526.340140713191,-587.931570983748,-419.483342417806,-608.127355690465,-189.290448231573,-574.724454229741,-666.141967194576,-249.214687334324,-572.975277986147,273.355323486296,-431.874661180388,-768.481373254109,16.1968400482429,-614.172167577955,-1022.65458330416,-456.773416935792,0,-778.16192769424,-861.379487927561,-620.924487163138,-68.9404226969048,-313.500114531691,-671.366931473379,-549.697614787752,-815.058374107692,-561.684625035456,-834.347893326678,-382.679284785804,-609.927958676005,-846.118623503074,-693.171406166539,-827.532131325372,-835.232610064922,-585.798115551743,-755.84532993167,-548.118129611244,-570.550558379093,-695.87755242313,-595.708871106377,-489.003750374852,-553.45065507487,-521.841775358401,-608.261016567917,-751.393951125289,-707.632170854377,-699.069323193086,-961.238749426065
