-21.7489313757881,-101.060034459495,13.7018267667465,-30.3760074881841,-110.339578513165,16.9641664731147,11.9619122566835,-1.1599430067087,18.7040809831778,13.0493588254729,-16.1667056560025,23.2713565720933,23.4163494479319,2.24738957549811,31.6084469328121,29.5785466710719,38.9305871626607,37.6981477180328,32.1159219982471,38.5681049730643,35.0157795150189,37.1181762146784,37.4081619663556,32.5509006257629,35.8857367700504,39.2930693522572,25.2287603959142,35.0157795150189,29.361057357314,21.1689598724338,35.8857367700504,36.538204711324,33.058375691198,0,37.8431405938713,34.6532973254224,33.9283329462295,29.9410288606683,31.6084469328121,34.0008293841488,34.8707866391803,30.7384896777806,35.6682474562925,30.1585181744262,25.4462497096721,15.7317270284867,-6.37968653689785,7.82961529528373,-2.10239669965952,-2.39238245133669,12.3968908841992,-0.362482189596469,13.9193160805044,12.7593730737957,-0.57997150335435,2.82736107885246,16.4566914076797,5.87221147146279,18.7765774210971,10.9469621258134,8.1196010469609,8.62707611239596,12.9043659496343,8.84456542615384
-89.7138457721175,-465.898227723832,76.9767676885003,-130.21414649056,-509.276984625271,90.6440842242839,69.0833952200883,8.19792366140752,100.20487476484,73.4458435642314,-63.2988085155929,118.614153535744,121.187048809813,21.3932850786498,157.086010536578,147.309187226396,189.364519999775,184.894055270819,158.624010890133,187.28206808976,170.208875515901,179.96721058057,181.923157860259,158.440584979137,172.741881210681,189.634560961807,122.10227499246,168.758946757516,141.999915556907,102.548628372096,172.161909707327,174.677883700726,159.398613829337,0,180.724781818393,166.096523344146,162.366598151632,143.664420540787,151.866267006389,162.638095657797,162.416236711643,145.563446539806,167.432609541192,140.056630346203,118.05950617036,75.371650245353,-27.444106000512,38.4562818435855,-5.33605235159213,-6.3495459383304,61.8678148309209,1.97734861346555,71.4115736700956,62.9353166100656,0.220402402021547,17.9830394081793,82.2189222683967,31.2708420529855,94.3141750478641,55.9303896421979,42.8046115746113,45.8650371244707,67.7556014596327,49.7968764734936
-132.915187041865,-854.022474874605,181.371701122439,-209.211724774537,-934.426960281084,201.878832632837,167.621112170669,55.6919343019221,224.62872886732,173.225354258929,-79.4166578284476,250.275755018222,259.88654969494,72.3045685304743,318.807606848769,299.937723706864,372.945065559486,367.830901259131,318.500188954007,367.274077718256,333.263836185256,351.435941832246,356.246762025192,309.402254451522,333.395000532549,366.681368654337,235.928638434199,324.789035669358,273.530653936804,196.303964764487,328.613148718139,332.161069678234,305.980402814493,0,343.710344626002,316.003614085861,307.95804151253,272.850964245699,290.487717416698,308.346254042274,296.783080834854,271.671407159942,308.655348834632,252.089517552872,212.015781508082,141.014791513015,-47.2485911057056,70.9158954587982,-2.69820433975204,-3.39958544920635,119.428546496443,7.21298649055821,145.957681533325,118.906186800035,0.271491745693157,37.5407943206474,161.894699858124,59.7447127234305,189.035287423456,110.561274175539,86.1360621135546,90.8776239069707,142.87811207723,108.718908477701
-66.3584074357706,-790.066066396725,239.321931306086,-138.268614269655,-861.665689299572,250.384477056326,229.462188998154,128.709687931703,281.012437978902,231.398096778453,5.09002338858478,290.401233584433,306.942126389549,132.569751186592,345.615776133979,327.782718717895,386.285636787125,384.33852872488,338.333353269882,374.69514782103,338.403869802889,354.958081751042,360.205175646683,308.546441262854,328.267498022875,360.774888525018,230.878810406467,315.829391366914,262.84323753115,183.513988387181,314.227944556299,316.630188616487,293.323914698122,0,327.790704512449,298.618684713596,289.303664569748,254.533887491789,278.651078523431,289.07019415535,263.155590589369,247.146269593288,276.097138890648,210.786660857283,175.548535506009,126.203077345548,-41.3053805994188,53.8847099615915,0.299425132787432,-0.628783343643412,105.028052905345,-1.94584007994451,145.927295302984,97.7293696006191,-16.8110111141722,21.6199760481492,150.75548133345,38.5152548768521,186.549980489429,97.7145480445256,75.9228387036569,70.9420688264807,149.872582215803,109.0754568698
33.1363800778021,-425.726750219578,219.380379174906,-0.929866316506369,-451.199848288442,218.291433471518,219.919841392706,177.143844306588,245.087573490646,224.047146480734,126.806981378372,234.262776967694,252.467626975665,174.282317948721,249.874601138518,243.674829114095,260.528816953349,257.082639882592,236.219237129822,240.524686376447,218.358400583322,223.101033798213,225.219019383511,185.414479406758,193.58257914371,210.854759611575,134.840041750523,180.768148131011,140.913523069211,91.0563238861371,172.635952138495,175.289957726441,159.198381564591,0,179.399138076277,157.906154048759,152.422423896641,127.72031074684,154.803022172746,149.363360330969,126.189489585806,120.088582863721,132.377034322606,79.9483811585363,62.8083003226431,62.3091207476492,-12.3502946062014,10.5519306953016,3.73366905124484,-8.44866755062591,36.9761793603083,-22.085935002936,69.1288466871209,21.397989259326,-40.2936285178864,-20.9187348738214,56.309532019807,-16.7390230284866,89.4928088143079,26.208073737377,21.0740162817174,-1.70411329213845,78.5826723383302,41.0279148508694
60.2688199338615,-250.684154919255,191.388021063466,49.0091998335937,-247.060949633164,191.124824331322,195.852362485647,188.278984719195,213.228143492538,213.016164091924,180.364556352305,200.353066008601,217.248035657759,201.333265121603,203.546431430349,206.634116269946,199.741839152461,191.856234750784,187.503568616667,174.899408727863,166.617549500197,158.793059708528,159.303225452622,128.133244359436,129.24678457699,138.930974353427,91.851205647888,121.228436916577,84.1690600545646,55.5282841248949,108.9214639881,115.298124463347,101.06055764297,0,112.665646442004,97.4476516658463,97.0904814010494,75.2801211418545,101.382213596479,89.1925394368322,80.960527821497,72.5946926092139,83.1244639220729,43.8421844588414,32.7345540903471,58.0489289426564,29.0731665224208,23.3375638685519,35.2403373871026,-3.76972781159105,19.1531701756662,-9.39071930425271,15.6882690452356,5.1666679521254,-23.6800975418368,-14.8914158678128,1.0015888953309,-17.6781110030822,22.6416856946446,-1.41544657879618,9.17218388155881,-14.4210472331246,26.3988695536897,4.167839580251
32.2145330592481,-264.130147113277,165.727718839791,14.8642319264259,-263.87135037729,172.276394890961,165.537098147918,155.799249274652,197.560830532545,185.617783787793,139.518940698576,195.298423301539,202.01055641405,183.148325704003,211.902739908027,209.551949849513,199.828181967253,195.405009949765,187.890676341212,180.984282317796,174.17930789714,162.322725471498,163.482813639631,134.76339991486,132.811663056664,143.482233127344,95.3924596163753,131.5676927948,92.1242977980123,71.5458591364638,114.775227582849,123.266356217701,112.405788314121,0,120.990541755282,108.828721672265,107.762143107656,89.2785283919875,110.475599235953,101.134962306719,98.5615533894736,88.6726242907265,104.129940868186,73.1085364946114,63.9154519567543,101.206321918487,70.5513882524195,85.0779137539698,84.3194807728188,17.7270838969338,52.4789648352927,28.4716414141931,7.702297537721,55.1301918104461,22.4096299082824,28.6013253500345,9.83472800299833,27.9295644980805,9.74506977028386,27.8872599494423,42.8166596218326,33.2731284563928,24.7048817685453,23.644185766124
-15.6566353166476,-240.450936036102,88.2137555107315,-44.1880002506015,-254.66782802745,101.52583584967,80.4114377291709,57.807685702286,123.027465988622,79.063019829509,32.151458723704,139.73560698827,115.683903512488,73.2248297736691,159.159320624743,137.180019981311,138.692414645889,137.658228787219,114.577129640311,130.145418946405,113.65295956883,113.576725597473,108.299734689014,82.2036976720584,80.4887195085358,87.8576951219611,57.7324897910725,83.6005383540646,50.540599363422,41.1890958852487,65.0956719070964,69.6615751038415,60.333506270296,0,76.5657155894258,63.9337024137613,54.1022828566449,46.7606590575823,71.6069819135021,65.3824258652634,55.6842048629175,50.2655174656292,68.3246303107958,44.1482067944003,47.5153860191018,112.075895955768,81.2718635628051,116.199190036973,90.0513880961185,5.09409672248074,62.4544141570089,16.1490465632048,-6.04803809778698,80.2683685440348,28.0647109463684,0.970405985801432,14.8700870977795,15.3114598465005,-11.617859333912,34.3931793064906,38.1792368897987,13.2391989939899,17.5390298964816,10.2778339206583
-71.7423508970294,-180.040014053948,-15.1670834169858,-102.052685803128,-205.460075382859,4.51501991963497,-32.4536629849769,-60.4226276464122,6.46309464214107,-58.8947850994695,-70.4029158854772,45.495321253886,-18.3757157660124,-68.1721789249901,50.5308421508493,11.2375570494947,37.338370595431,24.9854063856981,-14.7860180923929,30.6947385467305,2.86796026774417,25.5060615685158,4.30328021346588,-18.8130471752519,-12.790675640304,-13.0522977332554,-6.06757944056192,-8.27418710709613,-33.4475006995382,-28.7300592299591,-21.8811499217036,-23.3489563909985,-38.5919520716206,0,-2.98804198859162,-19.4655945040753,-37.4447392806677,-39.2017620948751,2.84044609363278,-0.581007322809536,-18.4834744404714,-23.9910551573981,3.58848512993122,-15.8289351031318,-2.06793485574506,87.7540895215783,38.6164753188763,92.9611001604183,32.0142355679299,-67.6789779007913,43.06862155433,-65.5161400280143,-19.0981399985747,53.9661415418806,-26.175227575585,-114.471058906776,7.46849183960388,-75.542417432311,-32.934651226637,2.63072410911949,-24.5257514944694,-105.527117624259,-5.87940947561919,-66.5544134536278
-101.361103525787,-143.29770429075,-73.0813803327233,-129.932935426493,-167.065072981841,-54.4760522436717,-97.7321778822179,-115.4965254156,-67.7970095031316,-129.836153856427,-95.2624573641091,-21.9780950172981,-108.585011820113,-130.664117505138,-27.6257594564815,-71.2395072773544,-22.4884067938738,-52.2040801658738,-96.1796887505735,-35.5188017007053,-68.0180259256359,-30.3462197606231,-59.9125213667131,-81.7308680560202,-63.9921051954694,-71.407908274986,-40.8857168554863,-61.0529603992097,-83.8495505550766,-65.9812125454982,-67.2486842878238,-71.7837117259791,-87.6353672651752,0,-44.2921863495554,-59.866393504597,-77.2598995633703,-84.8364848688205,-30.8970098220379,-31.6420577827093,-53.0670552318333,-63.4747102388755,-22.0223392903841,-35.1803498432101,-24.8610015156349,51.7705453594,-37.2503471142156,40.9831422131277,-45.8160577175512,-145.471901935138,24.9408093005273,-142.357284352079,-1.05297459262845,13.6273906593937,-87.0643632169101,-205.66828281894,15.0464600565161,-152.097794099357,-18.4156924912302,-20.6494218980824,-85.6899801599707,-208.099005506062,-13.5608077892168,-135.849587659004
-98.015514648753,-109.591709421065,-93.9258751191349,-124.508376198568,-113.761680807433,-85.7859094859166,-121.824741400884,-115.711014453682,-103.942335142642,-147.267280456991,-66.0342715728366,-68.2421056066539,-159.692694388864,-133.151438254677,-67.3822767132963,-115.783032846315,-55.7740060560467,-92.1141431587728,-126.708395950514,-74.3865458939902,-103.908856653124,-65.9277538684628,-86.0187556075609,-108.836451385706,-87.5413035837896,-98.1633758561296,-60.4049358600892,-85.9399482491671,-104.382487324602,-73.291988146838,-86.1563849791119,-92.138555729978,-99.8014232248584,0,-68.8502355640652,-75.406795545818,-88.1825949921667,-101.296012291728,-48.0138585644717,-53.0350738899741,-75.9935566697679,-84.3762946491463,-43.3322280416827,-44.3971445076334,-40.7106631881167,1.62838314050651,-79.8609950944311,-13.827417690904,-80.0797087822445,-142.291738347399,9.18372489771558,-138.228655280926,23.6758468614832,-15.4763207996998,-99.0025080092645,-184.059572906956,20.2190304323596,-146.521821296993,-0.345225994114898,-27.868962707679,-102.632042196928,-204.791337608235,-14.0341748452987,-146.286444142209
-102.806573878758,-73.2889878926655,-127.637711795733,-121.450169747869,-53.1534832103358,-131.286611720425,-164.329661004102,-130.49624595064,-163.68764674092,-189.219952582926,-58.1997779170373,-135.327551405472,-235.959486177307,-176.578992593868,-122.450492492992,-186.748531545358,-120.51709499225,-154.380300957346,-181.454948523465,-138.874368924809,-162.806776011706,-124.971277643155,-136.748650748602,-159.264013716609,-145.205363082984,-152.130739474645,-106.346159227599,-137.057925014505,-147.055525229707,-106.889407802227,-132.833866150966,-141.701886492081,-146.942704766021,0,-124.658988449672,-124.631484372458,-134.637088209662,-145.309265062813,-92.0901945391634,-108.497083123973,-125.074873248285,-125.306059328948,-99.3414300189625,-86.2521625917677,-80.7571411448066,-31.7744740243941,-23.8070652175498,-27.9102865912718,-26.4188599967101,-26.0650124162325,3.76888506400519,-43.6693136807938,27.2114412680232,-18.9962323499897,-50.9035242002387,-67.1761439521664,6.99000459951035,-82.0219532157624,-16.0260721192945,-39.0374042271027,-87.1543208935774,-129.919150604909,-32.5221770635429,-126.213769299008
-105.841699877,-31.5024362038577,-152.783966939216,-111.441891328118,4.5003345799119,-166.252091523283,-202.225851104747,-141.780912982526,-220.965811158138,-234.16608543182,-56.6527375337661,-196.218920704931,-311.417245291708,-239.414457705503,-189.930197194519,-263.211701928079,-200.103539365333,-231.197164971682,-255.760614481507,-212.515552222237,-234.076741214262,-188.1254053308,-208.109443865118,-222.693644007997,-216.006609331714,-218.786042741909,-162.267389487879,-195.191412506789,-199.592076973011,-157.668616772415,-187.277012593654,-200.534438546447,-209.206189295124,0,-182.605615742706,-185.071305750001,-189.72009385894,-192.10654556793,-142.65787813631,-165.126556432787,-166.013068661472,-161.253022060336,-146.02620005776,-124.231076233014,-111.493542664491,3.05799248513632,117.874321188962,37.3665016675429,104.074344470767,150.596090974886,45.8272641580488,101.324189344658,42.8356874724417,28.9904761963221,45.6178762425995,80.4975828121194,17.6338584346089,4.76955559974877,-22.4560521093313,-26.369678131518,-46.6984981455442,-46.6322126870746,-37.9392694935388,-97.8752546590981
-46.3933059808438,71.2136619093136,-118.072627762579,-38.1334226351385,116.410707321865,-149.14678295605,-167.831903968989,-79.3939786624516,-214.252469914069,-206.622933447517,4.59698893084632,-207.799309485341,-316.251523382095,-224.62501040412,-232.943110129555,-293.084460864773,-250.692363604091,-278.505734002352,-289.699129458858,-256.041256863912,-276.785040749884,-224.27099134731,-255.215252949369,-254.287465652528,-249.620504259481,-254.417564160936,-191.908202533744,-221.213377021363,-223.134855632957,-179.964049052133,-211.171204202562,-225.463324560445,-229.969962768005,0,-203.647210176639,-210.450619360352,-204.375294591078,-196.432013280512,-168.034075232773,-183.985797449535,-177.505770596694,-167.156602170607,-156.777568347374,-131.022308135372,-111.585220937232,84.4606594497538,249.13059745325,147.070037567363,238.12277173113,292.406963812776,137.314012419682,246.019418682668,101.979753889043,131.409403418758,173.132474018785,210.042727392736,87.0790258319343,116.957132950008,31.5922971866545,54.0921200116883,44.110605271663,49.7483936464428,18.5422275979502,-22.7752209664504
69.2355969560027,247.217754014618,-44.98023949485,92.8896560012662,297.899389844598,-109.341153334459,-84.8443999583412,35.9254630096663,-173.019455053838,-127.646327684625,109.65327246821,-199.634865116882,-274.785344477294,-144.227376676855,-256.466919117909,-297.056647912472,-274.107955809299,-301.343175714566,-286.996011747102,-280.292891749962,-293.748840260195,-245.190716754172,-276.090086562185,-259.370064739044,-256.959235605086,-263.369212094197,-200.961210050741,-229.301382055238,-225.346652163813,-180.536569401334,-219.441056065899,-225.965716108312,-218.443173156385,0,-208.58210829511,-212.748934320192,-196.688176296076,-179.811987368224,-180.828519786564,-186.540806131183,-183.087288791153,-162.75224115126,-164.472136027287,-133.163186503625,-105.585679521291,135.018923556177,291.157358958426,217.934225621717,300.326090150207,338.528080605623,217.448347445399,337.701627278873,169.918657742105,234.197797051104,284.044581450685,284.836696302352,176.574921489815,234.199082208118,114.551813859678,172.357849430671,173.546735360745,164.548845703007,115.65074489092,106.24408878064
156.060334097796,395.03751848974,1.80299342949657,193.893851770284,446.69395540662,-91.9671517928488,-33.9458007053549,114.900734139918,-153.102958302009,-74.2755769352006,180.335037357256,-201.724507606874,-249.431993709917,-79.0475453610732,-257.136835088323,-289.718023816975,-257.975753601064,-294.037161036373,-263.485837696472,-274.967743597116,-273.94307402268,-239.172899444252,-261.754065085875,-235.849765143463,-238.911136340219,-242.610079981103,-186.370752279724,-215.885815883568,-200.218937148761,-164.497116224474,-204.357946146517,-199.9834778732,-182.836418024292,0,-199.591436560493,-193.563219154576,-171.474855926671,-150.304105665951,-174.616327500872,-175.76447057271,-165.176512804697,-139.705793894712,-156.946786713062,-118.186066726238,-85.7577665874153,130.937071061217,264.163427372097,218.390276486879,283.802387498508,312.412659158615,241.266235589216,346.671674127661,205.422654557398,275.640959144258,326.354238511027,285.431189049643,228.019678322001,295.861573618487,166.416374147156,248.160497295524,268.117727541384,240.115089301805,183.04044472651,214.206546594872
154.147172531005,416.366054354439,-7.8523789519152,195.42808129537,462.883468757536,-96.3525412858267,-41.9278461378828,109.380427667213,-152.109424648273,-68.3016726537488,169.451639896692,-196.324384869122,-235.342497521044,-53.5761320430653,-211.995640136225,-245.770301579518,-186.755158184427,-228.82059288366,-204.961958768603,-210.212956329722,-196.417958149783,-180.521830075497,-190.078500353393,-163.165564107583,-170.456912399496,-175.040458030806,-130.352830073152,-153.806370605721,-126.178879032769,-106.934134165113,-136.523214105084,-128.658144443989,-109.021936208056,0,-147.83138018336,-130.00290157067,-104.336166161796,-84.1233518357396,-124.917200433219,-122.715142950913,-93.0934030941507,-72.8294506600174,-94.808125359194,-49.6496899239014,-29.0279062116189,115.496473766095,242.245015986545,187.195225180953,242.939677081622,284.241184832678,225.020321711336,306.661885054927,208.846623515676,254.530491060075,310.133765448817,248.375449707169,228.987512125686,294.996206073288,169.668747452534,248.34144520381,282.454996599679,251.329321007074,183.494695719123,245.766225840924
91.4264361793293,344.781920702691,-52.2745519048104,126.275388685111,382.32002741374,-107.019921895527,-72.255041426462,50.1048729075712,-149.32692939047,-73.842236452274,105.488351249501,-180.09327908728,-195.610798542344,-33.2816284311531,-149.595948940586,-182.602424114822,-113.397960418957,-143.448748452919,-132.550916544716,-125.391937661752,-106.626655220716,-106.147853483377,-101.705677485276,-75.3998443897159,-84.4614587094544,-93.7307568464198,-60.1487521060069,-73.3953873171021,-38.9626348384936,-27.6150492108247,-52.3317430947961,-47.048329709722,-28.9296965682994,0,-75.7492751576619,-49.7629925075464,-24.9454262806487,-7.21447500757529,-59.0996813328632,-47.3079309910908,-10.8544065055615,2.68681069060614,-13.9537621091454,34.4256719207882,33.4851877902877,107.360652391626,230.987737659265,152.865619539357,204.906740319042,268.463742251921,189.606449454631,265.832342654371,180.074481596828,208.014196212932,281.381169138427,229.121563365991,189.130741378773,284.695745923704,131.435908884858,197.098588190016,246.130155954936,252.055552266072,131.197454205578,228.598860307301
19.1468562892954,256.447795750812,-101.015893300756,54.1861245075555,289.307256254329,-126.191311115379,-93.1674112287284,-13.0777509423645,-147.235731735398,-63.5621082865918,40.4104714241305,-175.40172131122,-133.177921601008,8.47178325942321,-124.237492094371,-142.660421863481,-94.171615307269,-105.39494338127,-85.3573505174725,-85.0817099400082,-64.4216535461348,-73.7446322456104,-60.2794210277082,-26.744599988747,-40.4675609997731,-48.9870703815509,-23.6577879459564,-31.4339386713237,7.78316078086835,16.9126803087282,-10.6173592352803,-5.40445586618064,10.9921782958626,0,-35.8650167566201,-5.1800289892823,15.239536721506,32.6448170359913,-27.4674694803651,-2.96395585260924,21.9033613419024,36.3032357686585,23.3605820318165,69.8540875253827,57.4064877697175,58.6591733498946,151.997996442642,87.1723451293099,124.562591382788,192.058464292236,108.868634952897,199.991780019051,84.3140262897237,132.724803036905,229.706325347682,195.331069779902,91.007123078796,256.513472103046,41.9068237754544,104.044870327506,181.312058606426,240.598835069348,39.4172915220163,183.165863006274
-42.2892232352717,165.433194704924,-136.876584558013,6.16409571457006,195.771446191242,-144.419558226342,-96.6481489074309,-60.5600872761664,-136.058842804011,-35.0346417631905,-9.93195727702277,-168.076117310801,-62.6714587712762,71.5633870836125,-122.341693393991,-106.357985822165,-101.280476775969,-97.7287625271014,-46.1576861778586,-77.0424233592283,-47.1670860247738,-73.4659003643691,-51.2357135033176,-3.43556924771435,-29.6159965462632,-31.9562057573744,-18.9718823905498,-21.7642734538202,25.0993470663507,23.5370865514628,0.612250774753667,11.0584417245916,26.0304863179686,0,-25.6062470838417,8.88948680513585,29.2929566807206,48.5986612668521,-25.8345903700151,7.44485902957017,28.6723804946033,46.8442214157899,30.9358150325701,74.1959809469497,58.980095675211,-48.598306669958,19.6084898657095,-10.7917249728509,10.8612844264205,50.1942976081384,-25.2819207806508,105.16376220695,-81.9406791335702,24.9151015735357,145.813958787566,108.061245886676,-55.6530252060912,182.935447757992,-87.4697024942452,-11.057441256592,94.6035229622806,174.159777663025,-68.8942300220097,108.772788429025
-57.3960447967925,107.384252593397,-127.759749684277,0.987968632844737,126.570372795381,-119.740093913521,-62.7588757915477,-66.7018252529757,-77.2558781057733,25.362435726011,-20.4679674790266,-108.470935210372,33.2538294972192,159.283506069384,-84.6447014169717,-25.4524369906204,-77.4488672611063,-54.1463612124326,26.2642938615616,-46.2387201601545,2.17235280665402,-53.5873809292164,-15.075130976244,42.9011153402534,-2.21810336484258,1.71338184325173,-5.25826211300422,3.24707658391829,56.6625709760757,40.6720580352829,27.1147342366756,43.1328609228263,59.2895125286709,0,-3.08248828347226,33.4266058201453,59.9296391065961,81.9267711736869,-13.7067532891969,25.2233049170312,60.1622458531651,78.1176117488135,51.6675646568635,96.9079595552854,78.6767725306747,-140.03668888011,-20.477759715188,-72.0165025022344,-21.7951747011194,-11.3057597279624,-139.528223898467,78.4652915842761,-224.036691572072,-49.0213258743668,102.387142455485,59.8210521423867,-154.571170515895,139.795162079143,-171.322703987381,-65.2900227710712,46.6668207891274,121.17200107232,-117.471780498657,68.7022725295965
-14.3792452103442,132.191028092351,-72.934272178716,39.8214281695121,140.832861833746,-55.416967853326,-2.77224950661587,-24.0681830079612,10.8316416179538,100.134891828747,27.1991454689559,-14.4727290529244,133.50930020997,244.763114343522,-32.0111033820744,59.6159734069823,-42.4851456000879,2.37395912840767,97.8835975577341,-10.4731075329116,54.4388490756556,-23.9525050910864,28.7822134854796,86.5843506118919,27.4886632781518,35.4420764745056,14.7457492049246,30.5984421523495,83.8730651771881,65.5956159619628,49.9974630902063,65.3132274926621,87.465933798306,0,18.8394352639668,52.1077110627681,83.4048284112495,105.482258091687,-2.04311224139097,41.0446962197773,84.1223985396891,100.363198689954,56.3956710777491,105.775149773693,91.7043739463463,-172.761196248736,35.5927386178978,-95.1360642783597,16.0334432953517,44.7818682142613,-190.248550983511,103.832492875264,-260.858072603124,-82.646215319857,86.8634144671795,78.6033302570099,-161.001233025683,144.291674494505,-162.967529840767,-48.1997765106874,46.0094516949969,124.963000083551,-89.9357005497047,85.1909389721282
19.892917584234,191.513722738749,-34.4034328533693,72.5187427697877,210.975781384951,-14.2048160059704,28.9920307812466,17.1503422910997,58.467196748672,133.163477885455,86.1439363406507,37.1888058508283,181.417441133291,274.825956327137,-34.8705776709278,77.3684709853995,-52.4107499653556,2.41545759027502,107.632978989549,-22.8554792577818,46.5533187310009,-30.9336573728521,18.7387961971247,73.3127738994072,16.4455405752376,22.4291258943097,7.87165906798101,14.3956152058596,64.7885741854017,56.2369919883758,28.6631073380375,39.0957536857858,66.0187638651285,0,1.07761441333811,26.7118843310153,57.0303128459802,74.9090075381417,-22.2206125076758,14.8224211385588,50.9493946981124,66.3087769758874,8.72591787510344,55.2895658837874,56.422528071084,-199.310869795759,-8.22664179297217,-167.339406732171,-52.1055053264633,16.9077110087762,-230.462220309591,-0.835859167402604,-237.354474686231,-168.408938094848,-35.4795560526669,3.10704839815772,-165.17731603259,62.3598389167086,-140.881500671914,-71.3030114331472,-4.34461830429274,76.8698570330484,-84.0676966432239,60.5641770478326
2.21590888411555,206.327044229859,-42.7933481987574,68.2159188015856,249.351514452179,-15.4195579985902,24.172841311359,21.4711785792756,61.1759980775342,122.505582019741,101.760579855727,33.6411301964057,189.414582041191,248.634527951917,-77.7875767475345,58.4752803758309,-94.8379355687485,-32.9750898105698,78.6955838589066,-61.6483700326462,4.34635572777548,-60.3544940939798,-26.8158088103871,31.1476408596683,-11.9528081168892,-13.5479641381683,-14.6812107952682,-24.9087374555022,24.9477976299655,26.0709014163889,-9.94393713639167,-1.8046468138798,22.6484310223935,0,-32.5134305241663,-12.7598675034905,11.1437621169848,25.4284270288655,-48.1194426736273,-29.5456818468882,-2.22985218016276,10.2557628432336,-47.2521424779781,-11.2998722310936,2.35914567656035,-257.511661106705,-222.174288688396,-293.229571199429,-260.112032935423,-204.747224875848,-295.784292398317,-250.964090227615,-239.166545362175,-298.745298475119,-243.344381213111,-208.947893651732,-228.311720987639,-130.603740980999,-173.061925326277,-165.713810152969,-118.965998141539,-65.0936262227196,-141.933363151182,-40.5049534965117
-22.6206843676248,188.790002309625,-62.5738600341388,49.9392923323223,233.348187501078,-25.7714087741767,14.5147519705046,0.461528290243818,57.5178454143744,103.002545449212,51.3465513884916,16.983788322088,196.789431129249,188.429136503965,-100.339608802731,60.7168824835315,-125.883724518255,-47.7784101180868,57.2837406591228,-82.5599944907375,-18.9704992156447,-78.6679309497206,-56.7601785505432,4.68354598207652,-25.3477628097258,-32.6184964002522,-29.1939296733923,-49.1159784498942,-2.11891242727498,4.27642634906312,-32.9791175922729,-29.9449083514608,-11.9200266817314,0,-52.4188525536603,-34.1433923414176,-22.5867644018471,-9.45189459509926,-59.6125647255851,-56.6049142870874,-35.8271268808522,-29.5026246822934,-78.1092556740085,-56.0740352700537,-39.8956565677766,-314.687693419818,-423.517955011336,-374.539206903911,-424.628342166965,-426.345889918466,-351.417729138756,-418.647868502304,-278.267897964328,-360.984117940382,-347.975679493787,-355.928452721147,-293.073898218976,-275.526755751899,-217.374009683326,-232.25526036647,-194.00421386155,-186.524295389027,-190.410945414973,-126.771456674109
-2.36965369280247,202.025040836521,-58.0934466801079,45.6510705677945,213.776622002657,-19.4138275681765,9.76634043003751,-32.035692587389,53.5114581073343,72.6861490342567,-62.0508901713532,12.769681407117,190.89091809285,87.6383301780335,-83.9887658200932,79.2143787706286,-123.89174657747,-36.0708056826283,42.092074682315,-78.7894993110919,-19.5595108198305,-78.3878630896241,-60.4862765536545,-10.2273317635319,-31.6166789337149,-40.00614669603,-31.2654542037684,-58.150800707145,-22.6781867985831,-10.9877650663895,-49.5601148419975,-61.5621325976999,-51.4948506506271,0,-68.9650791213268,-53.3306234410051,-58.2501174497773,-49.1907506710493,-72.8175459857544,-76.2923347597858,-71.9154013210462,-69.7938484243855,-109.508216608089,-102.44100263635,-86.3158904830362,-311.553824015183,-440.007715089176,-349.74693904601,-419.485928792745,-433.665187456061,-343.953289806018,-380.376585893298,-281.800655433384,-321.65615498775,-298.042101550541,-312.010858342121,-280.512726449038,-281.904570004884,-193.836089376784,-208.095367364353,-184.953281688971,-209.511364636368,-167.196284725202,-138.655073330236
33.6401440568487,230.889031917089,-44.8331363560783,41.2998555148799,202.855078000652,-6.40521547463115,-7.08259593821478,-83.746591314985,32.2676705579568,8.25605586790731,-200.600260851074,12.696785573876,139.929468477913,-53.7531473605113,-46.6002995396953,83.4850313272673,-88.1260678372502,-16.5817563203385,16.9836773846327,-56.8948413944797,-14.7381365399036,-57.2534834703054,-49.113808246216,-23.9236068125717,-33.3912718880298,-45.0173409706398,-20.3959456169377,-58.0179194547935,-38.8562207719324,-17.6050347161443,-64.6099844558397,-90.1132437520605,-91.1167069282688,0,-82.9879883471723,-75.0462660350775,-92.2574069979273,-91.122033183242,-83.24201544407,-94.8427399043685,-113.684261357588,-110.344469429737,-144.465638706834,-147.202770443749,-132.878957801199,-233.251615995702,-327.267417322548,-258.943444875869,-324.571393657332,-294.128039389381,-262.16592864005,-282.873813308008,-194.044708054101,-249.123784919273,-231.316373618015,-201.879728231116,-189.409514996563,-236.868864579382,-97.5362535767623,-143.880563444798,-164.140109716606,-193.945278224404,-102.459610892889,-128.586480787187
4.28433943177402,184.482542886186,-71.9557662180944,-9.06115794886938,138.965897265484,-27.9428310123801,-59.5033304153319,-165.535867067688,-21.8690561766481,-89.849694735751,-317.17965652095,-15.4642176396437,41.1915843795499,-198.733625032878,-32.5244134585552,44.1859760604852,-62.9557323590302,-19.6428458922867,-34.3027437944733,-47.4392405949768,-29.9778155343991,-40.7754979831108,-49.7017778411747,-49.1759857679608,-37.26362171255,-58.0003903567845,-18.5085636081146,-62.5398824406698,-55.129987973512,-24.0885238151038,-80.4821336257981,-105.836548278559,-114.525106087631,0,-95.0058398669843,-93.5741202298264,-112.364101244635,-116.242715958785,-88.3296081609644,-110.378517623489,-130.004976102036,-129.180961876993,-160.637158436687,-160.661558560592,-153.70995244124,-131.086941117928,-221.255437928,-165.913960307581,-244.299912284229,-187.665354244865,-158.393091616673,-261.219371082624,-75.5239092900396,-195.816558942361,-223.99470498868,-160.239557735791,-95.352314453091,-242.158013628417,-18.1447949966693,-118.571811414157,-200.520443351023,-228.081079519987,-75.2880102704564,-172.745609599763
-76.2999357033647,82.5943561360303,-128.641617192967,-84.5512296206701,43.3110288913189,-81.5506834406973,-124.951809249662,-234.863461591235,-85.4969810277885,-170.584301770319,-364.702135377164,-66.0052406744062,-54.3847271505868,-279.828365961163,-61.0078658196608,-26.9418683773917,-88.1636765223446,-56.2412220580709,-98.9444509167936,-73.4893585792664,-67.9142709842781,-57.6211519215388,-75.9724327287463,-84.3840342127688,-56.0726690307645,-83.6895485500563,-38.949631403758,-79.9222240508957,-74.9166783040541,-44.4753274635114,-98.9845792906948,-116.528580598412,-120.399167017668,0,-110.037291367816,-106.958282413982,-121.307355762288,-120.022039509884,-99.237017752609,-123.252879017042,-114.350579836441,-124.710877020612,-155.302198614638,-145.250739887647,-139.986772413753,-40.9645914141879,-106.278239175815,-62.4755582620053,-128.372368933368,-93.3547618687919,-70.4336842439893,-206.607043926832,-7.90780127963992,-133.006801021738,-185.608813777855,-117.389317605233,-44.4797100203212,-259.948884106946,-10.6307423456407,-122.289683220061,-248.45227939461,-270.523971645506,-96.7908763764576,-236.875314188864
-86.8116992920684,79.6294635067629,-134.419020275515,-84.5055512720488,57.1726668461704,-97.6970694729009,-134.083412235083,-215.813309780487,-100.237727321569,-173.524074267946,-306.215905140258,-82.5557762917674,-87.7675092438922,-257.804021523941,-85.8602784571613,-67.9540450118314,-123.915837627736,-85.4889009408368,-124.828833896621,-98.4179486007996,-87.2684284288813,-81.5508176134122,-96.4844363391995,-92.7015672197483,-69.1337559770823,-93.3227239165603,-47.2131716911277,-83.2630871152236,-72.0280487615382,-52.6740873378495,-98.4378372963313,-107.943248845127,-99.0172480425316,0,-105.793211624149,-96.111568037764,-107.982266714759,-91.5932393782533,-99.9249361516189,-117.093036240057,-87.0918704514628,-100.912626321758,-134.158381078819,-118.735342242466,-98.397455418403,36.0577793678492,80.9130053092153,64.8469491582451,76.2606968358831,94.9277624365397,12.4740582930749,-4.05588236879828,21.2472368724476,-30.2541639637215,-53.4623285733386,31.1468793298465,-9.77568556208873,-200.206378896524,-23.4093441437647,-90.1003154041695,-219.74127830794,-198.463755340191,-101.101191419835,-213.231084438906
8.04536502320282,206.832400203635,-65.4844223083215,13.7754636855471,202.193061001584,-45.3195352013944,-68.3099986768745,-113.158639706819,-51.4626547571425,-107.897503130942,-177.740460866011,-41.5946973965317,-61.6294251619648,-172.874367533312,-59.4497818587207,-46.3210504493059,-107.607345145608,-65.28570715681,-88.4256390543403,-76.36118885388,-59.1351589880768,-68.7479196853731,-74.2550565032516,-54.1789312764474,-45.2754822510326,-59.2690662569603,-15.7541631959464,-46.6527391040973,-25.2113260138056,-16.3437551178335,-57.7971936016549,-58.6297289335029,-40.5566444458804,0,-61.3046875277361,-47.2030642227396,-56.6350470370066,-27.3836149830023,-65.5655553074732,-77.2466447007627,-54.1229357972983,-53.5491181005363,-95.9562370771441,-80.7604806448145,-41.348363446574,72.9260286778293,261.854885135701,149.103022591768,257.829237160582,304.498445793251,75.015340834739,223.291187580327,44.2748551453263,60.1807647837018,84.8965039734602,216.067558411642,23.8195296192934,-78.2533153644745,-9.34511734084651,-28.1091411262163,-123.479748091052,-16.3394731404557,-64.140547769368,-97.3397358366076
96.2656378656208,294.945647088747,9.77200884802943,99.8919140993235,300.68943079945,24.5146969808477,7.65343645184868,-22.4941724092147,14.4888608220279,-38.013075917176,-76.480427651268,24.3288224690413,-12.5454793917889,-91.0887375879135,12.2967696600677,14.5566710048537,-32.8870041828743,1.56529373109986,-18.6266557895124,-8.62757474614837,5.2762656755978,-14.3224205772178,-6.83867267827139,13.2365355415837,13.2424568804232,9.44471255743462,36.8119188142009,19.3847767992629,47.3474797741745,48.7561649008354,11.3165862416896,18.5552174992252,37.2665807670965,0,6.64087968058415,21.7205831939603,19.1067312864584,47.0569279962061,-3.78483861585656,-16.0440178421106,-2.50911588429317,11.1183919764662,-43.910651580022,-27.5489530587664,16.5998180866282,55.2833533230758,313.236943899054,139.911649346601,289.381347201672,376.883619990988,83.4181981227229,304.20303123109,51.8832156258218,80.5226358212464,136.839033997964,304.952559791671,35.0697528483193,22.0437849473324,8.19880569194907,3.98566900709282,-40.9887289631456,130.992445520746,-30.1538680796148,-0.516395978777078
83.8496873138549,244.522710391541,21.5025550995831,82.6304925839678,246.457549051661,45.2322842072997,20.3119488106349,-17.1409929554463,36.9793239359527,-18.4467896269627,-52.8546069336636,62.1904953022076,14.5190716145122,-47.4702950671876,69.4587695448574,57.1541937147248,40.4214466599037,59.8279537327629,25.375730047331,49.8718583029871,57.6067180693247,34.0333682755446,51.9835335632103,61.3322676886994,58.5144378535742,60.056840606956,63.8181228765748,61.6145904008452,87.5631614582303,83.7380907111413,52.6826372852059,64.4722800889336,77.3140798852447,0,43.1760465983561,59.276049539673,59.931226443282,76.9430583674429,34.5114970708672,19.9133234433423,34.1197052769844,44.554765053059,-16.7298500237258,0.160379969136068,35.7866963747039,8.11258873620003,194.859854142851,62.1039730890655,162.493181583188,254.078243128635,38.8429120657564,208.106838491174,32.7253761484038,28.1079485196993,83.5624950132347,235.613593625485,6.42530335409139,24.3418689460576,-13.1799254791797,-29.4222986128814,-44.8707010262512,111.404142644538,-49.3470427325416,-27.1194058101231
13.5097161189326,196.44798583567,-40.0366686292399,13.6507549330116,193.155495946917,-11.8661867173581,-43.5069328427057,-70.974151766071,-23.9449639588892,-65.6292116054767,-54.3100703063408,20.1769350961436,-43.0268459016596,-46.6089658076805,35.3525342923296,8.62971419372542,24.6270465894506,27.0732980763882,-18.650342259854,20.1392134977641,23.2531802589158,2.44597719526188,16.6716940914882,23.3659516413233,21.2890341520941,18.4223130517762,21.0972326178529,12.4730315658078,33.9339012609636,39.5500990434025,0.528794511132203,10.9518290272929,20.7432729639977,0,-9.60015200142261,8.68600368974371,1.75310532740656,13.4400925030766,-6.91881536473076,-25.0718138221284,-18.7925249755489,-13.4748442854292,-67.373512171503,-54.1486342385315,-28.7046453860345,-65.7824574478901,-54.3838487595326,-59.3908714748715,-65.9143283295909,-8.9141325149505,-43.761502829924,-10.8938451128723,-16.6082969292206,-88.1135279455871,-67.6612306328137,19.6011432489334,-73.244592897905,-107.850740647433,-89.6246963160313,-133.251801710264,-158.842245560641,-83.6331631947402,-136.350111262777,-189.03032657528
-13.5309291469093,316.187431881175,-127.265916935189,7.59475328243831,335.277568052112,-114.665591504039,-129.033904638803,-100.645956676492,-142.57850138521,-141.785368595805,-1.7068661074979,-96.1420270238474,-186.890251679574,-57.7786020714302,-89.3370560832652,-133.205851905725,-94.5809052865266,-106.433653467322,-139.891766249643,-105.205630168962,-105.571272922289,-118.250307904432,-118.394704356397,-101.689020812759,-104.01326224171,-120.159629465477,-80.7427730121139,-121.436782806647,-96.3536529238471,-59.3241773653246,-131.499417409856,-131.041468905629,-111.937727644654,0,-137.536502937648,-120.608858618591,-134.944720155885,-116.69081647554,-113.793636847995,-142.691214730388,-149.749896446697,-141.316308344905,-178.593247523739,-163.819668278831,-146.046177458997,-168.864234187784,-306.385758019555,-195.297341974582,-288.221651004541,-269.386935606076,-143.889751438652,-236.184573013412,-92.3891359326279,-226.003710949236,-236.081008141598,-216.849366225576,-184.559336947536,-282.060625461892,-191.458864968153,-256.16648875009,-298.734334699343,-296.031837031495,-241.726877619383,-361.810259369057
1.55834594041997,508.459728382392,-196.713640484862,56.9881527672793,572.124637789378,-201.823378829484,-186.469732942437,-91.0848891548938,-245.087923060146,-192.811605800058,82.1143281102494,-209.368431676007,-321.429669587215,-52.8026653870534,-211.003918511232,-270.481324527281,-221.249433802641,-243.025605732462,-248.259741650337,-230.888036916236,-231.183796897037,-237.537058091537,-249.459234531986,-220.367193949982,-226.922711815401,-254.970312006666,-169.794937136195,-243.258066518078,-209.792515480836,-135.213433370651,-246.786608850161,-261.756937425929,-233.92684755586,0,-250.05559637006,-242.563760368067,-256.270659381094,-231.903918812233,-204.958665587621,-247.576707801128,-255.093033981742,-249.78845929903,-267.478026957929,-245.075233224369,-237.593694655499,-271.994768530771,-440.310796092506,-297.515797816831,-411.823755813658,-416.868727872202,-238.494883632263,-361.208631522798,-181.308181503977,-316.208321812185,-320.287697749483,-344.354264500143,-276.144076519332,-367.539604124433,-273.074339026775,-318.214275522353,-359.005416447953,-379.916600615028,-302.523251729942,-425.884070793554
-44.8916261781385,516.867473273413,-257.911094230289,35.0180579007465,600.334751613593,-256.065559847578,-231.807866499759,-115.063409742776,-304.928771031751,-220.302114535578,90.4858211647742,-269.29751489229,-377.041368628733,-61.0248785294923,-268.470297344364,-334.202594693364,-275.723586911605,-305.064721778029,-293.87149278551,-280.832890209484,-281.12924317084,-277.536618891148,-298.71784051586,-265.332604187876,-272.36473926398,-298.487729598074,-192.655545360619,-281.413830396117,-251.954991783721,-150.317967361318,-280.820718668757,-309.833978102794,-298.831296150233,0,-279.157129456438,-288.21389361889,-308.668900152108,-295.34456140344,-224.686440872873,-272.863389706487,-284.933844936241,-297.09676806176,-284.271271498166,-268.558524539933,-281.267976781308,-347.776551439181,-500.162991284791,-367.966528066625,-483.549996827389,-512.568512886967,-327.766643820993,-434.997211962834,-272.462012840454,-357.069443183891,-362.071770899415,-428.676878047021,-329.110101975884,-407.665916241595,-320.79602511982,-320.230655442205,-379.65688957537,-425.226552469994,-324.997017447574,-456.178884909608
-168.992101091132,294.177890849436,-316.495878184623,-87.7127414347416,356.910248323607,-293.137703875647,-283.863188484451,-197.627014549038,-339.389492506072,-254.48711402093,-11.1480425383565,-296.15330111144,-376.229989235543,-120.805299488917,-293.906180384954,-352.574649095511,-286.5389036045,-318.983986751991,-313.886848107642,-283.31753209827,-291.57932849848,-262.658993601773,-297.102537672845,-271.583429222541,-264.588830445529,-279.351630915777,-170.538483515116,-259.694457343241,-254.746899815374,-135.006083612421,-260.200504335975,-303.685651808964,-325.012511017095,0,-239.518286237182,-269.653738363244,-311.980057974273,-323.82631599207,-188.240052711027,-235.503720768592,-277.346094802783,-308.885780069303,-247.391349689235,-258.703425916282,-297.822806943164,-363.921571066311,-570.050131011466,-417.858051473704,-566.373057625256,-635.205854479328,-387.299103506012,-537.169079134828,-330.661727798194,-373.520012204911,-434.609909220919,-565.45365506322,-343.296093806142,-486.181322103314,-323.953328647106,-306.068372183966,-430.513973026762,-551.840627075031,-330.27747615775,-542.85210215613
-238.121948713697,82.2022970415866,-322.083055545623,-177.223977765256,113.831425588585,-295.90620926438,-298.102072729493,-260.537605487465,-330.700975504416,-272.856256597175,-127.069674870828,-303.954530484513,-343.349827403766,-192.701713376615,-323.473718312669,-356.028708105721,-304.272454681776,-331.826013635929,-339.16515837325,-292.447907267085,-312.524757792601,-250.289175192957,-296.894238168625,-288.86428059729,-252.36848231562,-269.002348218068,-149.039732944814,-231.651140588587,-257.170310994177,-124.256728912636,-235.377041776148,-294.912654334916,-328.265746907283,0,-184.898229225669,-236.854921262148,-294.042937154763,-324.871632865219,-141.194637975497,-186.752053247549,-259.657978782975,-303.430900449301,-194.663390140018,-231.345465244074,-284.105141353203,-275.597190095054,-567.050466582669,-374.227650489186,-560.925318091513,-676.275157377328,-332.822790822267,-575.341432467102,-286.435489313207,-316.752681391058,-449.562111057956,-632.156429429446,-278.19977922917,-493.045485031833,-248.036805087592,-246.995687402678,-420.222046517232,-621.773280559277,-278.615683258463,-556.395506854368
-173.484485813842,67.0820162958711,-248.496382314064,-140.582619190804,81.6542732711775,-246.635634242593,-240.536035289847,-233.23665445525,-264.552043800256,-230.653646739743,-141.815303937238,-282.479877325196,-273.199030245834,-194.447181351621,-342.600190940509,-334.115578032762,-322.314750619773,-340.770828178608,-344.500387071584,-307.810159251123,-329.659682553969,-249.668400215167,-296.848428781804,-303.520431922215,-239.601633444122,-274.404960015337,-139.885266107719,-214.106322418877,-254.836275824753,-121.019437052982,-220.389486694364,-286.017261702715,-308.10051395529,0,-153.753405815437,-217.535144881187,-267.95442857427,-301.378066377974,-117.0710923272,-156.910095130449,-232.308449050473,-280.133926391145,-157.834414305971,-201.881267300127,-247.235137027518,-118.588760143362,-401.22236331891,-198.351730523047,-377.775976716455,-524.887485848993,-154.23254938151,-445.278987473074,-138.825502949733,-173.942518474772,-316.377981965781,-495.293259894391,-139.937980492051,-321.820294608345,-117.667650153001,-130.218140951556,-264.723523208984,-483.423098660749,-166.141819459464,-381.119109098827
-55.5395205050436,165.096941144689,-146.670679563465,-37.1937033928872,186.170933302426,-174.632665094812,-149.687894780177,-128.00830334622,-178.455452015364,-137.799053226781,-38.3839894781037,-238.286030858149,-182.661850300395,-110.504381542563,-325.966423151618,-285.598066416509,-311.88530290553,-322.990092007764,-300.4116781016,-300.701691246156,-308.988078969489,-241.088399544786,-273.302625158917,-278.861645530658,-215.763753849877,-257.120572389675,-133.871207258557,-194.563242097301,-230.105385864483,-117.751911236519,-201.910662819486,-257.939306655965,-267.418845942122,0,-147.571078111939,-202.546163522193,-239.510828296087,-265.039618488142,-118.762421685347,-147.713613549291,-206.103702014995,-244.520151959801,-148.38412086777,-185.991270131831,-217.986577301157,1.61870169680214,-165.187877096313,11.9737931124843,-108.474025097673,-266.447422647172,29.427189160412,-204.785861123966,16.6930341340805,-33.565147680515,-99.3506627063478,-239.913533428025,-19.1279617409183,-72.4544887136433,-17.7430088283594,-22.5808276078399,-52.1917442859502,-240.239489261498,-68.7584070011438,-133.875372966741
49.476249583833,244.095325207882,-44.8696828600618,70.2107904582887,289.495121890603,-89.9348174008753,-51.8142078639309,13.9324319602452,-80.0575717657823,-23.5283202760297,113.423617050712,-161.434247700465,-74.7761832424696,8.32638299150382,-246.689363135456,-197.524546990559,-243.791966022518,-247.224011150404,-194.4071898623,-238.6510197929,-227.111326112498,-192.480712256807,-198.524587137715,-190.135364450172,-163.185748233522,-184.905840716735,-105.094416713171,-138.99341591396,-156.848105551462,-90.6445400300024,-145.832893279368,-181.172092499369,-178.832227714632,0,-114.680881702776,-144.638298095461,-170.065859165298,-180.339498272877,-98.0480488136266,-113.322270719725,-152.566717308742,-165.859314550651,-111.814537165825,-137.917116401643,-160.500483653274,103.847099799727,71.7955151740255,208.842704538967,176.661230145979,27.0621524786734,185.113071946696,101.988877989946,157.955455240563,117.284218393676,163.097299162685,44.4346441445614,98.5485662007884,187.821612661445,72.9987801832862,105.933010091776,173.939281866442,10.4038776275699,26.318993928648,97.7153573525904
160.147018949404,302.237294964029,72.9433262111069,182.364042554193,360.22565377856,24.2960020296104,66.0995498270462,147.67084605295,49.7672199366754,98.8256359437806,225.078412993869,-35.3792543684595,70.4660410617967,113.455817064888,-100.372129922718,-48.8753331355807,-116.300486256462,-103.112835249573,-38.0483797392769,-113.365883490435,-83.1425282207319,-87.5233261581548,-68.106207328486,-43.8314863544445,-67.4536594548228,-60.2703912942006,-32.3571948922848,-28.22258041267,-23.0784343896012,-17.638283626224,-32.6372378091065,-36.2982499037038,-19.7758384242786,0,-14.7608794019547,-17.8131904588819,-23.4973717847711,-11.5685596549925,-14.8540214573017,-9.11925133660495,-25.6041454685388,-9.36513886802802,7.63522480447165,-6.94649448048465,-20.2233223061106,293.200124401535,363.725871578959,441.006750064067,500.103056850096,378.20002630988,385.92222325805,466.276231902743,332.847765760751,358.020724294454,477.773460324624,360.621370296416,299.557883743406,493.315280125174,234.232726376763,332.97426105081,466.117167796694,297.973210216268,196.955526541786,367.567755153094
248.710607183446,348.462018353441,171.042748954142,263.815476840312,386.095601589589,128.417258405035,173.337359499498,214.646213096312,162.071620897226,195.359301891771,240.85316822663,88.404789965125,213.438376368987,176.069684977457,43.2746890156667,109.539707302453,4.72948529619128,44.8781138864647,109.08608185021,17.0449328067789,64.5866815998305,21.4443368640399,56.316619668348,96.208617368817,34.5065870147183,63.7614973628923,45.9950385938359,86.860048344637,114.80585130122,65.3807036598393,89.5866731688037,120.050083822338,141.73727247574,0,96.4676997935022,115.624733467076,133.632071294503,166.128965733128,81.5937975110786,116.80040765306,126.062063357493,159.323777404658,150.183984072878,142.719577860522,138.514880812762,505.451062181519,641.707130028904,630.330620744457,747.027857718575,652.201712344444,552.58926784172,699.53281558497,463.658668795479,550.454214839433,684.690106172569,581.243693265254,474.100452292495,707.173731935596,383.581980875813,524.511800158126,709.783977269503,514.154524799101,359.685798756633,603.930873682741
263.121569977898,347.256186550715,205.797614420071,271.35039779771,345.753076481965,171.739704954058,225.381816571989,208.387043175876,207.804962365984,238.018861324813,186.306415580041,152.013820142785,293.202151367075,198.382132482318,120.607815741021,208.684120594786,69.0998081123622,134.411193530878,200.617860817385,95.8016725120101,154.135874031587,76.1637303360144,120.250494020064,177.665338914494,95.3011686289339,139.212094233115,78.8641476281403,146.221806758404,192.754832767746,106.176600214165,160.159351633824,210.181119613762,232.2202579897,0,148.978954502473,187.198832587025,219.771937291228,264.033718207833,127.694360934837,187.015384013098,212.705163611817,250.581872671879,224.007833475878,220.174374237149,225.619097942624,580.759179940189,730.162518689235,637.333332729679,751.491116690615,657.398816134741,539.690743937988,623.635816856983,445.983123534856,510.041942718714,617.270667512762,556.718160351292,455.147343899622,652.409270616797,389.844185053962,503.153211275912,723.620094784362,523.182416465133,372.427584963742,656.005050406244
236.699572194346,297.794637756395,205.69519459839,235.993439829484,268.907358199378,173.099046387021,237.425631254866,185.683850224039,219.79419069713,244.57362504984,133.269257985221,174.010642519964,317.896271080623,205.780673378437,161.308762074011,263.31207086613,112.92611869502,190.075685933809,262.11910611468,139.914354860113,203.063707758727,92.1155460720081,151.189554537151,225.136796005592,119.896277378118,174.154761292051,71.7166593277278,159.932379958577,224.456326632113,103.215386612903,181.101221316559,245.449128679854,287.974665485542,0,155.145863591918,213.021134184503,263.500093273299,315.776636341515,130.828804406006,201.693209473774,236.59443463268,285.861325705537,236.371206838025,243.244694383769,268.377352321659,514.133720540377,633.393873064373,511.378992114242,592.055073917496,485.342663547489,411.713920438306,396.009117364753,347.027219224619,340.039483079335,400.429867571158,406.224355150515,316.851228806077,455.62184387285,291.493624494194,345.960326213191,572.594126790444,447.698497013129,270.898248923842,567.732894479022
219.271028533802,232.815742340606,201.02747588946,202.336616189711,202.910080778107,168.758345704577,236.429361834725,175.736996261493,228.183520726809,239.263522606658,106.374810239566,185.694428173406,318.244890886027,203.816115253471,209.380580076992,316.668298167335,171.457875026672,251.265939527658,328.767423286174,183.896580279131,259.801227435002,109.435130118262,193.659780459013,277.699592866462,133.790942775599,199.653111204888,55.0806243019767,166.021435118845,254.24920883659,82.0669446582052,187.352956999513,281.950458579636,364.653588173665,0,148.986160685679,233.122375311735,317.655007977715,383.460484040151,117.494127596372,197.443577942243,259.899703513576,329.901816938751,238.746122230313,269.274536465522,324.978040313336,397.674897801285,504.461420793747,389.563309250069,457.651174557317,359.8260855037,309.218136133133,275.354779911645,264.691621426119,232.451362169907,270.738107807626,335.126229195748,210.517619238638,357.727310296349,183.506284593821,216.336504001056,446.932721713592,441.269458188222,164.679728964301,471.531831623135
195.826083098636,171.653460809435,183.418695961978,169.439679014935,151.911296578912,166.161258961314,219.191282375529,160.725131496863,219.807125820944,223.981879097145,77.6425494383467,188.984719002946,295.872472109773,183.100989234249,258.321987755879,364.344199139897,228.628154187134,310.861907871705,388.386641742244,234.670339437195,323.670302716802,144.494119921535,248.123789617939,329.962374054949,153.318474199849,233.997215802688,56.8148690803886,180.322162395646,287.661517259711,71.4657940007313,198.787314218513,321.934140533163,430.923890216552,0,140.886125979439,248.046894283021,358.243826156499,438.762939725883,101.773174465915,187.046371782549,295.372750093173,371.919331192453,238.825511635959,292.253100801609,370.940112643553,260.124046040025,390.382648928,277.522624383485,351.041964551881,286.731938556594,218.974621034936,253.964683290418,174.043699807639,175.787149278107,250.84475126218,324.230492992843,126.555715428612,357.611878528485,75.9345388611237,124.987387568235,376.391258407956,433.233296718401,76.732164260206,370.220149373671
163.744761082284,128.293665417746,172.463454463902,141.035155535336,106.008324671053,178.731512268363,201.786791182731,143.326308670115,210.759631423111,207.526916669381,41.0558372137842,203.864584622177,266.645803591537,161.443811271268,303.144813021371,389.155755484487,280.943477260471,358.991052246231,419.310769226874,295.097271048285,366.634071490754,203.373370866978,300.369130758915,360.195857705323,195.280094850085,280.31005520359,101.081187578075,208.500800721449,307.249475951296,100.188440403373,219.995188381828,335.411678349067,436.879313652325,0,152.579501628149,250.517877640545,352.14227524329,430.762191168135,111.627622801652,182.209180759566,303.756939755646,364.829070704971,223.562769604076,278.150285970067,355.845402173271,95.1662432615217,239.63315378209,110.761636390249,191.075536764602,158.43901847887,74.7657517481018,186.363473290999,41.0542676286527,74.8498201866589,210.791413548647,262.02447754464,6.02552607749472,312.250767041347,-35.6740583441454,14.1253939775103,265.574920873722,338.648914368092,0.646119303700335,232.770359619457
186.695397533897,134.226498518615,219.579709868137,162.641399194928,95.3610374947733,236.241259632064,235.746825018819,169.542408818632,250.492613658422,224.889696330573,45.5864020700016,266.881036865661,275.765306299343,178.322429854791,365.80133255345,408.051941929562,352.72463583849,409.72908039517,435.301187806413,367.634652199835,392.403542183923,282.134705378357,351.490216392176,369.383596141693,264.655803307016,330.67260254454,183.074378760685,255.177348998453,314.004616144717,167.06142400783,253.017852742664,330.098911358923,401.552290395243,0,202.968312000439,257.772825302094,328.504946416065,383.546214789938,164.893372756963,203.748149698492,279.306660964741,321.59874795773,208.019791956571,239.840359656377,299.093788769941,-68.1880220924447,98.889669438331,-95.2850669996097,39.6532625208801,31.2657480059886,-97.8928988199571,84.5528391641148,-89.5175503004152,-67.5373537620741,115.162858336777,189.564281528375,-130.469892493591,207.049798599174,-116.955080791324,-109.786419124683,90.6018496789105,237.138212752943,-36.7882700716509,135.996085646949
304.305517528772,213.564497476648,334.297791360766,265.037364335361,159.198285505167,343.75328392884,339.175683201072,267.06902735015,343.85073638708,295.470279802384,128.252924236373,374.509439877113,335.529816560716,240.997227506956,451.750440051059,445.182088077273,443.388203838087,469.600040233867,461.32835420013,441.984167279104,426.760736030671,360.627627418045,405.03760236431,377.074556472216,340.428270205102,375.217208063369,268.877297445044,311.523720568788,323.201710278064,236.750353966729,293.85668859205,336.318164870091,372.004553360148,0,270.324761108,285.863065723804,325.325643703371,350.948816803557,236.295156786254,250.216591693581,271.952733272181,299.242685170852,221.173925810286,228.825447134517,270.275545963913,-178.153926796847,87.8797704735922,-255.772997820327,4.34077963590331,43.9125748117866,-232.28822118139,69.5982245593797,-172.135536989569,-194.852813588048,42.1717809977519,204.963966029477,-243.312637289202,128.39453810921,-141.858155976444,-198.046686479207,-60.2364815070448,210.780926190745,-8.55056220082037,164.877874853355
462.168448545307,345.410217646541,464.99488925957,407.061230146811,280.139462134333,458.419928397614,455.809598701073,396.36075772523,430.494503292631,377.806866737109,249.077784724743,472.386075111917,388.751987864734,303.463831603714,528.868710877308,481.575576411682,519.670610438687,517.57291828863,484.428272821012,499.43050219485,464.945446656438,418.650070824773,446.739207108479,388.589803097686,393.824962026875,406.264699848461,328.901878131401,355.010918108246,334.467931304307,281.506770394106,326.683272520143,351.481308977502,354.128357537111,0,318.678842815256,320.0608169165,333.41267169308,338.424170228878,289.302864682067,295.289389256531,306.222180715972,315.036419080177,262.360656446378,264.754302383681,299.788380994249,-201.297471439784,183.921242085705,-315.243920827045,44.0809319974284,179.006187875223,-301.181968699065,143.934757299335,-214.433016657709,-280.346917011385,20.9862033736775,270.370310503545,-312.852470079682,84.6153123882334,-112.334865695703,-216.238900701679,-106.520870235483,220.633996017338,83.22731146522,280.632939744151
556.661303923327,447.823819245656,537.107507813781,494.028670170473,371.013406166143,512.017645560377,499.331774582836,478.128923999656,438.515875328607,393.470998256191,325.579441545379,496.303490665889,353.394994935949,298.832298858334,551.411525398256,462.477610941125,552.352129915852,522.126818579997,458.286271388383,518.607778659641,465.640981448208,446.906773463894,450.287283621363,379.528563990594,411.129761522624,411.559397814244,353.605439176111,368.610938818173,328.707275288726,298.989792772953,336.575402617933,345.920929345317,324.729599805941,0,335.01724993384,331.011997379922,324.566724913221,318.247610302428,313.352851267381,316.609375733962,336.241358433862,327.762282149219,297.952987423384,303.778913386596,341.724867859719,-158.336102140957,208.798876456351,-305.911924901052,24.6086387908262,278.249784298934,-323.236912162777,171.220601399811,-238.111161684775,-322.764986162367,-19.7027315656263,267.76330005599,-308.620180293837,4.63758639430102,-35.4763532536936,-159.149157702667,-79.271492653403,220.450389776875,203.759848616731,371.844424554898
509.320538001352,412.066098122541,491.752142102369,442.754331691479,326.493112361363,454.567766638023,420.747496598297,444.565976030884,336.763112273482,294.14535956712,298.135769793114,414.052891251188,202.075282777082,188.090730236909,490.704873307672,358.250740191766,524.560085573204,461.19437971679,355.259306150238,480.863578579558,398.901035719779,434.143253116395,400.683911842055,322.801335186318,387.534313041792,374.169458563738,340.604746447455,344.423927928103,288.030482786607,286.054532561754,314.732740023258,302.038646215937,266.279663034104,0,316.763622390344,301.52041549199,281.660908438524,265.673786472007,305.412702696085,300.445332793418,304.899515222477,285.613061957464,287.578226384597,283.516151317395,318.101127248617,-128.841646912015,51.0120722582655,-316.471188488264,-117.649049725793,224.156816208831,-336.510571177381,44.1067926017718,-246.361774807881,-334.022271166446,-155.363509604276,151.839407223036,-228.372497701613,-146.119050213729,63.4161926151174,-68.6900120841595,-88.8879904126415,225.293476473409,288.092140933681,360.520338741107
328.133624104113,214.700408800393,333.311696195365,256.8401197966,123.922781685198,297.914125817345,245.554465823937,285.207391895295,160.186148524181,107.68766951949,163.803257252111,250.693175520842,-2.60421430355616,2.0991207773884,358.758668219332,196.87619683165,428.834991958643,335.06901373415,194.384063460687,382.2293869109,276.357202926079,365.825450955322,302.071787535774,216.056239635421,314.66287163759,285.260823296764,282.426803182817,272.064127815804,202.933644820962,226.355923242156,247.258961889253,215.20098538538,164.466084327269,0,255.063359817365,224.893518208983,190.780038013911,159.210686352202,251.73023118121,233.311479552898,206.16003493112,171.865677716383,212.216613857129,186.036446991619,194.76557345421,-172.927649263614,-201.412713846013,-376.660477666393,-315.008668328592,48.9408481816782,-350.418116994294,-180.143679453891,-231.943313310095,-319.709183058624,-349.337252953633,-12.1037619568302,-129.984145116595,-309.404178773392,132.739573185339,-10.2601430182748,-176.624464861172,239.630457010174,288.33426719146,247.997082046266
120.707606910503,-27.8293725005032,148.52863148365,44.3556630552111,-125.219521974329,122.640942893328,58.7304453476724,80.2212895936789,-8.29451102137483,-77.5103798981799,-8.16391834662254,79.5895314675278,-168.970709771195,-174.914821914179,209.859752764029,31.5317934617034,297.914978115015,180.56052522368,24.9131723733956,251.784852341116,136.938369370924,258.967572702577,180.981394184953,85.1675671152019,206.44336112102,166.825483939325,191.026410382071,164.622289936643,86.5788759927486,127.515474963103,140.590717323852,95.6110151302349,28.0583783670085,0,160.152533526946,114.454371799651,61.7217595749366,6.1754331810126,163.872038088351,131.334298503906,85.5984551877044,26.1603070590284,105.543983320165,58.1866149309962,24.5114639744506,-244.060668786484,-356.941773618138,-399.133508179045,-410.973253859917,-92.6921326640355,-328.561810905624,-304.89932131179,-191.459607793953,-248.798079050358,-434.794482571601,-96.4045062921291,-51.513113737418,-356.822288843589,157.244077109864,19.1061509387632,-237.655771915366,259.316319980172,242.023931285398,129.996811087121
-6.79707715710784,-190.381980758328,27.7759445448821,-87.5351720519063,-284.259721830476,7.92958213067745,-66.5868187803113,-57.6115959558298,-113.715920675743,-194.854865068174,-120.617322681924,-37.6594447316277,-271.588587717411,-286.586679108066,99.687359200026,-101.37861537223,196.948034633205,54.3850196557432,-104.369750498317,146.021204492627,24.2524277145296,167.493589288429,85.3631108251734,-21.0326517602298,114.044699127594,70.4909357542472,112.430930264503,77.2715483925287,-9.88904668447718,42.3954656994485,49.4651800729231,-6.1947448262281,-82.4287143690853,0,79.260571645638,20.2407203911541,-44.5038997720979,-125.01388322741,92.4134541440111,51.9608307150519,-0.797919022327523,-78.849011619724,34.4533939632051,-29.0737614330544,-98.2261496881311,-240.774612955567,-307.947217340092,-305.640235782058,-308.870326294291,-81.1284609505313,-252.477698283287,-217.088747986032,-135.672730592935,-125.0204991272,-316.682066651988,-42.9963942352454,12.1482511595822,-232.596649776073,170.356066244866,67.2450921848969,-177.316464849955,298.750076599848,221.213157116281,116.248502569018
-69.8548780897049,-288.232608125376,-34.0604108905953,-151.833996279837,-353.30384537167,-49.9169961183624,-138.040197495205,-110.215408916456,-180.133515708568,-268.600183523273,-151.863375321549,-105.813766930417,-359.127700659805,-353.42046500915,34.0730669266245,-194.563201485313,143.278754717779,-20.8556305862327,-179.374944354068,88.44088429895,-42.7017334696228,117.388976122094,37.3411140829679,-74.4537131978616,67.6038449757399,21.3638962026686,71.462815590332,41.1083181823871,-51.3467585752113,6.31503323503142,13.3722719792263,-44.6781621252637,-120.327730535683,0,45.0925924345402,-21.9496541405449,-82.0049655784639,-173.328327656093,62.9350153700132,24.6833250019118,-38.354286116716,-113.675541029198,17.6981752987487,-54.6486657078868,-140.020858463109,-137.665432809877,-119.676615955478,-152.318103253081,-106.720363634104,27.1207342670646,-161.247290336411,-60.7929017078244,-86.6372584171426,-53.7270749547538,-162.3202345542,29.7984251495771,35.7017525231545,-84.4090683456422,164.593948392195,89.5931487440386,-85.5187917398319,318.09670372906,203.77105339171,170.825778816792
-151.967782775041,-404.420801300086,-97.8235741881808,-227.945078281245,-429.395964176599,-101.452899010386,-208.067636674518,-151.811996687128,-241.651362294625,-350.297492732854,-162.474318700371,-155.076276478804,-452.817972447623,-413.263466253815,-15.9275714480842,-253.91843072891,97.0788810738191,-66.4712022129283,-220.3121475473,46.8234171407529,-82.4779189137833,81.5305495735715,7.56650423760281,-100.477586979218,42.2811115966123,-6.50655844149573,43.7372744544106,24.8427973611113,-63.3957913270622,-7.96076876719889,2.86475462316611,-44.3256447927876,-114.992669360751,0,34.5424479520371,-33.989097313833,-82.9320635651744,-164.048258154188,49.371531904521,17.2973625546454,-52.8980915922241,-114.801606718781,14.3626199491605,-56.0778108640946,-145.482142505085,-10.2534636213711,51.4487628385511,-39.2540143057113,22.9145045289884,83.95768616976,-85.590928928131,-26.6527078799149,-53.3393307982825,-89.41935058067,-164.149305064662,-6.84037477804581,0.313835285919847,-71.5100779907688,96.5259799012136,15.0143665862887,-95.2154634076413,258.515823324464,119.661245681413,156.811411508964
-259.023399120285,-533.482728289971,-168.131327084535,-323.3400356563,-535.583735418302,-147.711723962923,-277.190710668473,-216.917442105506,-266.404925658085,-412.293492928231,-192.2163062156,-170.111974998511,-484.13508194626,-443.654468697638,-51.9085627237349,-273.178704799949,49.0826172191575,-95.003997672734,-235.289209865355,4.91356538176228,-108.915864762096,44.2677509773883,-22.8381035836101,-121.16448964188,17.2222649939443,-30.7924806083815,13.1390411588764,3.57900497290005,-71.9957432431128,-28.2629836612594,-12.4200513684404,-46.6014132018572,-105.61834991514,0,20.7966824875826,-39.2764819009449,-84.2167411361858,-146.656515286552,33.1609197568982,4.71584763474003,-55.3259013254125,-108.148569011623,7.34493043710826,-54.5455442966159,-142.148220398139,49.0412786502352,97.921478352385,10.0789454993574,39.930788304103,40.7890819824921,-15.936965491907,-63.5241075469046,-27.2577691115627,-116.398473270678,-218.312212249365,-81.3090548062496,-29.8797923136722,-107.901128120575,-2.97016223259701,-74.6766435129448,-145.088470371511,175.107493169272,8.42023358458034,69.5894976355932
-318.015636118485,-608.367870060029,-192.032398863839,-374.279737519042,-610.998929660329,-140.381684514484,-286.511147320003,-259.058543629117,-204.452937710896,-382.527203949691,-219.676565100609,-113.422416046843,-378.681254498682,-396.46601423277,-40.1175505282785,-228.326075716676,42.3800675937304,-81.865561596356,-199.411337838753,-0.354966285963329,-96.4415807173747,35.2781181443692,-22.6501688535762,-107.194062760067,17.7307201217439,-24.4431669895927,4.37080287039267,2.71774346832155,-56.5262985066704,-30.3028617874088,-6.99027284281228,-33.5010931932976,-77.110847825603,0,25.0593388082794,-17.7677614019902,-59.6031146780382,-110.231698852232,35.4035420219571,13.161147233313,-23.8110594025521,-69.7726228333852,31.1716517877108,-23.3820125850252,-96.882811433149,3.94768884132598,6.35037532063275,-2.97388336508133,-15.5443190650059,-59.7411342995826,27.6165233448344,-39.6957752828904,-10.3056301741415,-48.1459887442032,-145.864569084855,-78.4077813395804,-0.608229391179563,-40.770681155767,-50.5994142688256,-53.0359450566297,-93.9798133539455,159.787386516891,-26.528461694114,30.9894065994399
-278.017816906976,-599.377147479372,-127.276929221406,-331.382348732878,-608.672804691023,-46.8210310861488,-184.354165295745,-217.871386920575,-49.6104725908021,-228.789905187216,-194.305974103692,18.1443297598934,-140.320506203704,-255.001246753933,42.3633578490799,-96.2596123189211,103.821304921988,5.35386735805093,-83.4694550996848,64.0370109104311,-12.4280061947755,82.7810508021432,42.2137957385717,-23.1302468614243,75.6436715551175,43.7013474254209,46.3886440953432,55.8103143640966,10.2834602830253,21.5141607250291,55.0223996512514,38.9980940160855,2.98395370586527,0,82.2567036102663,56.1103410266658,26.3850235680934,-18.198004025659,84.3402807173722,79.6602471844003,60.0982835602853,25.7133494691155,113.291890677047,65.0676069062525,18.7168833358423,-109.855936368255,-180.328081631631,-99.5524329637098,-150.011932942232,-210.113701002471,-2.1536179839157,-23.1133705064996,-14.7520069467348,16.9247282857261,-33.9661366192135,-63.6245584268059,38.0765421243183,73.3945723249788,-34.2863337256153,39.873489173402,32.4197039839973,182.610091747954,20.2184253311211,71.7490862278436
-161.393520178501,-515.282660922659,12.258275136707,-202.718142514435,-524.84742953749,105.688093067809,11.8313192328393,-83.2493405410762,154.215191774636,20.5511360559299,-81.6289827314108,180.589452910087,160.543326946038,-28.4238046092453,165.132563716072,98.0919776274461,197.153437875431,145.744446144903,93.6441294327595,169.050830896762,123.364292812702,163.776983254528,152.108731273481,107.911318165051,170.801341730245,154.371681510903,126.66459035133,149.520409195387,114.587479750927,113.334389568449,160.191528258373,161.146203786546,124.25795368824,0,178.708805719758,165.464726079968,152.480378174604,114.18348709167,168.650890219993,190.481880006184,175.311330040378,156.852082721022,228.493556663475,192.577585107357,165.636223797895,-221.913292199786,-395.413197952967,-253.746355106605,-362.628879459736,-418.542210784054,-89.2162512704915,-162.097750335517,-37.7749535786426,-22.7909146698119,-63.4368890499477,-166.068952626103,22.6216087236169,84.62873100449,-13.7661861464868,79.096518585249,100.093008874003,141.731493242284,66.5552153712878,99.7603214326417
-60.0291981393905,-406.596074363624,135.540891742382,-72.3348595617615,-412.75156808108,220.174739288222,187.320727598596,67.3232530516147,306.045320970053,253.595016014739,69.2562930490039,285.752529258212,399.313783405399,213.663713572221,236.509566475852,247.495987451795,240.485499643511,237.362160132677,231.259496480291,228.015502860618,219.635200864944,207.511502858366,225.814159090672,199.350889832723,224.692188045355,228.066360603916,179.861097701587,210.927434930572,189.583533945293,173.226182762366,235.128580043843,251.659285815731,215.745668024141,0,242.122141880737,241.895134778419,243.181030168644,209.3116552444,221.970682795655,266.989768827977,255.758922847227,251.88013280053,306.161618439091,287.683417935702,256.057669689955,-278.650384431111,-583.628296441897,-373.291047490475,-591.524436255564,-640.453530848641,-163.842183918621,-449.047403582915,-71.0924723196976,-117.348090396415,-226.088557551268,-383.629592099816,-36.8340410316347,-35.474161451584,-35.9503812899823,37.2387240890903,57.9990305557661,1.53960742949558,56.722522789864,41.686978988951
-47.7665213701292,-358.506135656321,155.280639448682,-33.4231594932681,-361.066861497493,215.912905100351,228.835898277451,128.90532141823,318.610600536325,339.500158919924,144.791389530538,265.58928048979,462.106518633876,344.718692489771,187.723996879892,252.853181857019,182.315995189771,196.175718069791,232.314861198335,179.616436142828,195.487621569019,165.056310423229,192.848198593028,181.976243153772,180.865156465274,197.633887921244,148.51621048015,177.508586248968,169.672197342117,141.167742289877,211.67347480593,236.297780225724,207.311407714042,0,214.289916520573,224.004483304553,234.430536266647,202.409841953324,189.481300744083,244.947788106679,244.817004609964,246.7557927127,292.368614521157,285.638860536915,240.227506399661,-251.50393301409,-716.181053900194,-372.720569611063,-742.695471923199,-796.163388807454,-174.301761365627,-713.674472904172,-104.752408291727,-159.052774070161,-370.171437318808,-584.116535811841,-87.7320240000912,-185.794671078206,-90.7663905195429,-11.8791191794155,-23.9484239307332,-155.430232419814,10.589163896536,-58.0152504306755
-65.4527863489585,-367.481162348995,120.163208125664,-50.975062504499,-370.873368276048,147.323966071755,180.621872019372,110.070880143202,247.236425681103,298.984384953774,117.114175851048,172.820269410403,387.499393358233,334.109067662815,75.7304647969406,161.510279089676,66.8047276321799,79.1170813097487,139.748801213296,71.1063322438769,91.2254357105291,76.0556649519322,88.623684433224,91.5603770177706,83.311403522027,96.7591249808078,63.2508175856542,84.5208741963675,80.4659610371493,51.3011514154241,117.444270221629,140.235632085277,119.122156582788,0,127.419382401791,137.312770227407,148.019673354685,119.083228584889,106.630176252411,157.379961412068,159.15607130181,161.09685480995,210.134547493673,203.755348827484,158.088928045574,-122.831439901575,-720.784995970436,-219.469710379776,-694.822159750898,-773.497328309478,-77.6566249989986,-737.875173670364,-78.211376066509,-72.1985455765495,-341.389835957343,-594.636349388784,-50.0472712031047,-213.554432516495,-87.9744314589166,31.2029694838106,-21.2273019483557,-181.004811653039,18.5038903170112,-64.1262430501617
-14.5884175442833,-318.321852934248,130.06710538583,-16.92115703699,-332.798220016473,117.993564845634,161.802089368093,103.281588234672,207.502638311245,256.071508660469,76.127398068291,109.220164322677,305.622572538678,276.732292559221,-3.69092020017876,90.9252841593481,-37.3132563742874,-8.71182886390287,60.2315771446455,-21.4983089899791,-0.867949676768737,-0.613988597975589,-5.9626310101064,4.24082342431059,-3.43745083933591,-2.09673459958434,-12.9376379924476,0.417346249215726,-6.42446425440642,-28.6215386486999,20.9600140821072,33.50083660636,15.5442882506254,0,36.3355932072525,39.3859946216396,44.7106178381326,20.5079319530416,27.5568887200124,60.2441215502931,47.6537112855053,55.3395995317094,103.30295380635,95.0797733380585,64.9766739171248,88.5775343592476,-476.193951329597,55.9507371061649,-372.616466791393,-480.618191911143,140.00387107189,-432.847052756756,76.6262321404644,152.481729665661,-95.7126861654671,-342.534783451936,131.057750211049,-46.2331815209743,57.2263126419933,197.810559512441,113.637390526132,-25.8389815313055,139.406375064361,71.1625536039894
64.5357130937988,-162.813495098976,146.733503654982,59.2029676671583,-181.519772487908,101.698386361431,156.024698100777,113.765953266925,178.648005854208,216.109075631737,74.6943702586478,63.1363184600153,223.148015506507,213.066101696099,-68.0806840070219,41.4065033394583,-139.924778987664,-83.4789310860681,-14.4240662833216,-118.17408980764,-87.7585909070645,-87.3099352301336,-96.7791618087913,-85.7939672265469,-99.9606262633361,-106.718178837003,-89.1921371340073,-88.1186353244422,-96.2719077041581,-108.558869555427,-87.2584284671174,-83.3529463439922,-101.930781717952,0,-78.496223747502,-79.4293334201236,-75.5672935043921,-94.0243722935538,-72.0428323247254,-65.522717004779,-82.6445887958784,-67.0612695649397,-41.9375850978088,-38.0349677867006,-44.5798119188846,308.817526878144,5.95221172877414,356.7399533443,118.096957936823,0.035996183916688,386.623025224048,32.0017030989145,296.44595639188,408.152184717482,229.50890483539,26.6934272211157,365.891306294609,198.440322255857,263.66578897946,378.290165005586,267.864759924232,165.724142179612,280.479774176126,205.343398950559
81.7641124268969,16.9953119917225,87.15223524594,93.3549437502775,26.6970670507236,22.8062229176846,85.403379112764,88.5676869421285,82.8792832995866,114.136447922651,79.1752676745932,-29.3314712369188,81.9394691436498,103.288625087657,-170.822294813929,-50.5162831403876,-262.070343333161,-199.647007539008,-134.299252040655,-249.481495416907,-205.706443961594,-205.774249492865,-211.52890699361,-202.354332510848,-221.222826923983,-235.669454277943,-183.904329305106,-200.236378135368,-210.843822682748,-208.569383079498,-221.346461915815,-217.391528583074,-232.720905834563,0,-220.978029995208,-218.04645602283,-212.296809213488,-221.989878248716,-202.531517250176,-220.412355141962,-222.212506048545,-204.097808445204,-219.920901592645,-187.361866166074,-169.039682996487,467.272400505368,496.259990333036,577.380003201846,544.105752824964,436.863775822013,543.212390539488,395.821070024798,438.759662267959,560.97536440887,452.407603288787,292.985745728459,496.436420938287,348.067425899249,369.247960585277,437.07265762312,315.697339717826,235.603793632959,311.630857769979,203.477681460463
49.2804596971018,117.834594065718,-3.90974662888324,77.6915311307832,173.286852894788,-84.0516024724162,-15.7508465697678,46.2878197186313,-43.891662922001,-11.9777598712591,58.5682084487577,-141.482904524525,-71.2726114868575,-38.1833937659165,-267.3560430591,-157.320878347553,-351.036165715917,-300.420295234832,-243.247349169759,-344.989117779689,-292.243355016271,-289.525943754462,-292.128356727521,-283.771668031941,-295.930762656881,-320.018626159428,-248.825182365124,-270.895958830249,-285.688019359473,-273.550274550715,-306.701518477298,-298.75719025322,-301.162207109819,0,-309.836295795908,-299.05655022914,-291.091750675225,-289.396176688024,-291.48660061644,-318.575473165421,-309.812522204808,-284.981551187432,-343.438832272026,-285.247941167187,-245.657986651912,541.418606209777,755.852434606243,680.722958367515,751.364548703576,666.542598254824,599.031666119279,560.89302658271,467.306340817469,590.917877919855,529.414810450505,394.106831648435,495.125833224612,375.407011005951,353.570809070111,370.91672985376,272.323086604998,198.05122896853,244.853307851737,113.211731985475
0.725512519858489,84.5068671699058,-59.0474200312721,33.1596179397805,161.138623058097,-154.351098311416,-88.0244513820362,14.9143188870933,-134.106710938792,-105.10056488653,4.79227479794021,-210.005640168927,-181.408386419975,-159.822856413532,-284.403405952898,-212.480537094268,-350.571556183191,-303.476137520476,-265.99561094841,-331.22769340171,-279.788113237871,-282.45964596588,-280.829024666266,-270.1578614288,-275.775228782255,-298.780716774569,-245.677922813494,-254.183804087279,-264.46358136751,-263.696875885686,-290.732364891139,-281.082063409706,-266.921227720807,0,-303.750739703884,-288.047968768272,-273.738844396819,-261.331858094261,-298.457911418156,-320.330888435098,-309.625294963905,-272.013330559047,-364.019785454951,-302.197006471593,-244.256168966266,538.808153921798,760.099332460893,694.071163776205,756.098716717866,697.42197432792,604.463800950511,589.19746456674,451.790851801732,556.588162226688,530.036275786255,402.234549807887,446.462611888642,358.677147068596,307.789314664156,264.035244220705,218.996793632773,143.471419456364,167.396279905381,32.8155302066964
-79.8745933567806,-53.3041511470143,-108.294869541709,-53.4762410664383,11.32634236369,-198.524772533151,-155.071093561024,-41.4281168052875,-200.852327694208,-196.735570911912,-87.7096763301605,-234.107285993459,-283.570979570842,-264.629829202441,-227.385023319024,-220.708470714162,-266.77157467429,-227.303512831051,-226.318916921565,-233.034488011589,-203.446356836774,-209.924947984719,-203.205635428813,-193.693692624878,-196.961464305061,-207.537502735647,-193.803822516342,-191.645885401052,-186.787072494461,-211.519270856221,-217.705159012224,-210.915877163021,-190.64965182185,0,-249.624846239458,-236.930039938897,-216.577251402194,-196.941419225953,-258.509364495223,-280.761015761638,-258.438483004574,-217.148001889467,-332.19768856581,-284.652893604341,-211.139094341668,486.648005084866,644.115983767234,646.992416500832,656.768967394374,622.98722451754,570.058726699996,553.025391092851,437.043551032946,492.489415737511,507.069801699603,362.865250043036,394.590161250846,325.688914832373,266.293493364882,166.71821909135,174.747248514526,71.5847053535317,102.323908350873,-47.076966072064
-183.612440733553,-195.541806109004,-186.763478299056,-166.47951774313,-149.293419437064,-245.819643604017,-240.315018743634,-137.936253595895,-280.197026665107,-310.781045813594,-205.416668676473,-255.30710506859,-398.163587719831,-369.126045181605,-158.926657837578,-226.492406924454,-144.269318646265,-144.797579971795,-188.094423625871,-118.06457232351,-129.905002562206,-114.085197995064,-112.336399578027,-115.196478704533,-105.876170497991,-111.64879193134,-119.140505911509,-127.450142956054,-113.443240217893,-148.665750533365,-140.290415388009,-140.148885229644,-131.288607363278,0,-182.734022582808,-179.61868281074,-165.651535624776,-145.409664231211,-197.34173454141,-231.24606356869,-200.108405637612,-168.598667250126,-290.984063567947,-261.004961811286,-184.89158080253,395.280566935833,466.822867474076,516.231142264517,480.972096350203,468.603488370333,462.277797735412,435.109023554708,388.741602054744,381.201791407654,416.898272851399,235.449156068162,308.553395818484,206.560122864473,190.387151910942,62.2742849645779,71.5497074632141,-103.445155011606,10.2351640075933,-205.237481487173
-284.003200725046,-304.905421944123,-278.976546366898,-271.779853595973,-268.912140223772,-305.65280393173,-325.786509548764,-244.067789130226,-377.045655656937,-413.201533515555,-333.233515187871,-305.299433598435,-493.12120736499,-455.637042762041,-136.425681222096,-255.859938339953,-48.0233882624849,-106.539686393624,-185.841931224521,-39.640464562004,-94.4407359343507,-32.6117062194002,-52.9610372858467,-77.8014798547725,-38.8029775937945,-53.5378647579463,-51.6178316540464,-81.6626016767726,-78.6818093690866,-94.1548300250162,-86.9981159670376,-96.055722460228,-111.608559278118,0,-122.621799485688,-131.599877701872,-138.139639815059,-127.705974771957,-132.747936764456,-178.291591814085,-170.385193146323,-154.152391776443,-256.431678806481,-245.02630280135,-194.284393018147,216.948584620776,152.780049165728,246.511333591466,164.868637133352,167.173203925266,241.378170929045,158.906699568503,236.702233315189,178.284951562944,171.769663726274,-33.7370520753927,140.821910611109,-63.1987866809631,45.036488375419,-101.759589196313,-162.394170201825,-415.922018622112,-150.929327003234,-474.241856026057
-395.424893914275,-441.747133405166,-375.016343834326,-380.61970962691,-420.357747723602,-380.927976340317,-406.129462124655,-352.166271530606,-469.892696057802,-480.304625053592,-474.924614590787,-375.459696287047,-548.538087651704,-507.837919025078,-170.699033553515,-307.657617815518,-29.5442301198937,-126.942776591307,-227.013597319822,-31.3667904840653,-115.699986270737,-16.0595139886424,-62.3463436265796,-113.442790156184,-38.2438227731718,-62.7468710995025,-44.1256821403489,-90.9879254472194,-113.072152364167,-89.0365798574326,-96.8001282976095,-122.791274178614,-163.085231791801,0,-120.017853829636,-146.566241524522,-177.540332418793,-188.429600033588,-116.421093039895,-178.159812319087,-213.631175018531,-218.773974517039,-275.471362597445,-290.544109226433,-290.783429433121,-81.317150084135,-317.757698921758,-144.112091306427,-290.492403960159,-289.844931575267,-83.0621894808427,-262.723194855232,-32.1283560083393,-121.736389534304,-206.969935920758,-407.608970669144,-116.034258489617,-424.351606029355,-167.20548403223,-347.34622566526,-487.407206335299,-770.38026134183,-381.133822079249,-790.531415089063
-509.721518085141,-610.684004196852,-450.964222537815,-490.912015707059,-617.843584534389,-430.431606804046,-456.470240501947,-450.028504718664,-494.056945920662,-482.997392857728,-596.666042721571,-397.402919839033,-521.161529302145,-489.133271679655,-200.453840916621,-323.400933822343,-58.6885075894869,-155.546043220401,-258.832283724413,-65.2852445206951,-157.543806095695,-57.746811112015,-114.073613517024,-183.996510638653,-86.9225886276571,-114.746119455381,-96.9028289783357,-151.771487682355,-194.209689638662,-134.272786684891,-162.728152041016,-214.304861687987,-266.645811013793,0,-178.133760821093,-228.893651727352,-278.893619475816,-315.54288796194,-160.244393114073,-247.311157425614,-308.395120177628,-341.202442922519,-352.702480101204,-399.467536930364,-446.238168968407,-429.139204149946,-810.606137421593,-528.819981378642,-745.618308345257,-772.840106073491,-407.822135566888,-677.541798346963,-314.393481366942,-426.976329387772,-562.407909910122,-765.978436857309,-385.080219453785,-740.063186879363,-389.662366704325,-605.036777113589,-775.201201951565,-1051.64254930725,-613.149106550493,-1060.78265935386
-576.009935862585,-734.562992332702,-463.047251929124,-558.951623226398,-777.678921487852,-402.974575512309,-430.319337153358,-500.979408631777,-402.749866781479,-384.731555949041,-638.847614791001,-318.561478705849,-355.419656214081,-351.078096204409,-168.989674344891,-239.519684183258,-70.3967700228275,-125.963378097702,-209.180244197377,-78.0987385960811,-151.66314623907,-88.0320294852865,-137.37546903479,-205.267886603015,-115.843108902682,-142.649779439512,-138.491488612771,-197.723224916348,-245.28189606447,-171.484082142272,-215.957929408961,-286.558495715326,-340.156766263938,0,-224.125952769193,-296.700558427153,-358.374592671814,-411.323494030238,-205.593661363726,-308.100340288865,-370.717544910282,-423.402389603038,-411.671834429239,-482.383924809618,-548.156077175985,-711.202202958445,-1176.55342460033,-783.059360311364,-1056.76016803059,-1127.56026382427,-605.745434428294,-935.442745009775,-474.530312443158,-608.714544262378,-762.367922472472,-1012.52521613359,-544.712922133301,-932.733213698908,-532.799685539524,-757.964588819991,-944.604249995722,-1247.56514384293,-759.599163659406,-1252.50199074643
-587.542686898242,-785.756726486449,-425.877208369048,-577.032605332274,-861.206350399511,-335.899757147728,-357.74050008567,-504.76372671869,-267.638060628075,-239.303642663893,-605.346335086899,-206.84292246084,-128.949577679887,-152.98486762953,-125.233787434281,-120.273632744603,-71.7708089072397,-77.9848455481254,-122.52478128266,-74.6942840200867,-117.647167625333,-87.5038393266781,-129.14309292619,-183.013510728321,-115.877838120576,-140.350149754031,-137.029837233631,-201.978739540151,-247.058752652438,-173.339982030208,-226.538896851301,-298.151828476667,-355.748138460032,0,-221.630812708884,-305.838053245872,-374.651406653192,-428.676226100992,-215.08533753173,-312.378705764551,-371.878066632603,-431.495977670139,-402.892291783843,-485.183956458384,-555.976425961041,-861.701482603072,-1360.62412790619,-870.59931000474,-1180.53619367331,-1280.13967418595,-640.396641219638,-989.789999507493,-482.686437879334,-617.589513991325,-785.814391758748,-1108.95153974654,-547.076170118751,-987.049074599638,-556.6274035782,-753.437940691934,-977.425479947621,-1366.3932102955,-787.753668009429,-1348.94491326976
-581.266058363581,-798.175977215033,-397.242910869238,-574.306073058824,-882.345089873605,-304.872564172046,-320.196056033866,-485.549179763885,-201.588755038819,-159.979432431285,-540.627480003335,-172.314253114601,-11.8618906691114,-37.3246344227985,-149.595106220015,-99.2472583816293,-107.088367567592,-105.403989849601,-115.34246284392,-105.177338822546,-133.544628567585,-95.276106234139,-138.958736133785,-190.543617554572,-123.632777337254,-149.089387617799,-124.229841136605,-192.646629903743,-241.164401509854,-157.689844404748,-217.033323093283,-282.064154145413,-349.127466634042,0,-195.119835726292,-280.318203919968,-354.52656924057,-406.212593028933,-195.353681630361,-280.250385009215,-340.567049476094,-407.192040421811,-340.706366388397,-428.706428656346,-511.241464277384,-874.370342473805,-1346.82264803173,-823.042677237598,-1124.51463443374,-1228.68489545012,-581.019809804919,-874.427426652416,-435.117412721045,-520.330800669259,-676.689521372435,-1052.59191261244,-477.362505173767,-905.715547222856,-529.323027392344,-660.86172818011,-879.688400726826,-1370.38197769624,-748.73886448161,-1308.96481105516
-583.662141531428,-808.203143141706,-403.036115936952,-573.701656147687,-860.423815906683,-319.780557240677,-334.417022860262,-460.388432168842,-214.789320967865,-171.824139874464,-475.004070908367,-214.398463779115,-34.8280915847435,-44.7564030009112,-229.990639318803,-183.122729628524,-174.611041328387,-200.505477799705,-195.337874014792,-168.594593495117,-200.326780430265,-125.961906051017,-171.885728203394,-236.041503452568,-137.786323507498,-168.381196214735,-116.743369192795,-178.079615642612,-239.515889026578,-134.079561072105,-195.094791544282,-260.807143412078,-332.319983008573,0,-158.639524579792,-237.57172350572,-315.299871243545,-372.9609551892,-153.535937428432,-225.644561950142,-286.429700334024,-364.264108759222,-248.766840490198,-336.009853036265,-434.26473885228,-787.857848205558,-1127.45265011395,-703.891252598337,-905.921427488372,-1021.31669250073,-530.431442676294,-673.134482282458,-445.350325835024,-440.865162701808,-520.431496514108,-896.465912941351,-468.146235500397,-755.380209050333,-561.45494066112,-613.369439097302,-730.879180401617,-1281.79642852376,-738.750817045214,-1167.00881221991
-598.024649764018,-833.527217246748,-423.455676132513,-585.088350294212,-837.583310744295,-336.289398000227,-348.218116048528,-445.944210750855,-226.47448541091,-189.230174367737,-423.232944386129,-234.594022118028,-56.4126571894029,-67.9855850205124,-275.528593707662,-235.023263948297,-223.88799195218,-255.572226678449,-243.777563092339,-206.020905028789,-234.81284839099,-146.922648156993,-179.729970624174,-251.962066809856,-127.637796713762,-159.555004742235,-94.4441462399716,-136.526370435155,-208.933978658807,-92.7857242701026,-143.350662579475,-212.870132094575,-278.928847719776,0,-98.067442626518,-165.127178293642,-242.651477497581,-305.000911807799,-87.348192404688,-136.619477239049,-195.430118883809,-275.658961024418,-132.134902484593,-204.501252629817,-307.906665234044,-653.681655563526,-756.626149583378,-566.106296617385,-579.674929935262,-720.520220724014,-514.498494111149,-451.101626021035,-505.00767309847,-422.899405817691,-382.847066247946,-699.8900758243,-530.0811872204,-610.38945593189,-644.846050738534,-637.91528182146,-612.065784047199,-1156.78844271679,-772.581346091655,-1003.05092167182
-597.379106277671,-846.142164251315,-415.492911313593,-585.808393487958,-826.890380718193,-312.876856060422,-316.207359302038,-427.279465986488,-178.919423637784,-137.046914949385,-364.14113863843,-173.26375371406,22.9964636206146,-9.50139998434477,-222.943271157939,-154.555792978869,-206.064393250405,-199.257516597189,-170.591468351146,-169.680174999256,-178.508724684403,-121.364742186845,-127.310135472926,-187.618401557595,-78.8885093682872,-101.195989058416,-44.4953021640136,-59.2878200900151,-122.789612414687,-28.1597451866359,-53.3952641464775,-113.592807085013,-167.394482860855,0,-5.28599581501677,-52.5905209737995,-120.195349015774,-169.314635696274,1.05151352359275,-10.793868215953,-64.988305805347,-127.356402357398,11.2538066431173,-33.2176435042413,-123.08629931937,-489.772287807448,-366.951855050176,-415.048973232283,-252.306839769775,-379.282107166506,-461.858335101189,-216.273376291809,-512.327331531018,-384.346292319225,-244.372957074859,-463.269541445389,-555.574957223858,-444.685533809122,-669.443120591314,-615.972664861194,-471.922119154794,-970.653206711502,-760.872011287699,-806.447716041049
-540.041417815555,-784.4010127993,-353.487446855569,-528.626413497403,-760.867488355728,-248.994962235607,-240.753531839786,-357.17766645877,-105.210034603527,-41.9372899828269,-258.837256996053,-87.2734480787747,124.482118924315,93.8251972591287,-125.071147402589,-11.4420249342967,-147.138710415184,-91.9967102249703,-33.0500610436393,-97.9448158238236,-78.3185429761844,-73.3139810227151,-53.8547167619303,-83.4640998735177,-24.4789531455476,-29.4079755486683,0.459441728583286,14.1467575774968,-18.0781031779561,26.927331850222,36.1309798985459,2.99541898830601,-30.2852611598953,0,79.7601892963666,58.7853877133322,20.5827848574057,-1.72737927382342,74.7123411310527,103.890276346305,66.1951717738381,37.6935818509887,147.235413203368,134.008256341454,72.9112461567567,-280.140061702066,-89.198513571573,-223.083283527204,-21.5420079833495,-72.3452993462225,-326.90343044483,4.34558659582628,-435.991606064877,-254.990432481457,-78.6000717065461,-193.003704148092,-489.956411807445,-221.896428878145,-608.509813433477,-464.552846610374,-235.36643003852,-699.047460892197,-650.759536165799,-545.682228823301
-410.702698718774,-614.395814627112,-252.985477918175,-399.924108853007,-575.644184866597,-183.31534925178,-156.364587786394,-226.465256277927,-76.5577772348861,18.3219160681547,-117.272568441211,-70.1545160010683,109.998884749789,138.933862318448,-98.2828537087518,39.4547100778772,-140.023837553433,-61.2008403668793,27.8754121108727,-92.2707525571347,-43.09882433785,-79.4477442643163,-44.0298852368405,-37.2619787570468,-31.975842371183,-20.4288991403269,-15.4052709598286,19.609889911555,20.1878504425745,14.6016949286531,53.9024375164321,53.3227068051574,50.1922270526384,0,85.8578601504417,92.1319796785506,96.1598736442274,98.8060090843014,74.6175375419899,130.283017224971,126.510667742681,131.661002602267,203.333591939106,214.651313404326,187.331308272237,-11.5731731545226,90.4076750320365,33.5092901084863,140.676026467071,163.63668419409,-135.502870531062,179.64106249435,-311.012434820281,-58.9462717351162,78.1852311083965,75.871824612096,-339.720295278621,10.724094292159,-494.144078729384,-218.828972932591,36.1134521597628,-379.909181805981,-451.564850979736,-271.201551176717
-242.784725439958,-373.088098556861,-148.563885651089,-248.782156514849,-317.138759453193,-140.234664448457,-92.285506808795,-94.2442794759068,-96.8398941930829,13.5044972883466,-3.27064664107669,-120.907499795055,-17.3059624897218,76.3221545697356,-172.011846272827,-45.690955621284,-223.764856016982,-147.528452775317,-46.409563804002,-192.159734048703,-121.067659039317,-169.109293128837,-129.342657823166,-94.5458120415192,-127.845942256164,-107.840474933314,-105.851652408756,-61.0495738626379,-45.0233705941668,-78.0382500179687,-24.6955423658423,-2.55898179371588,24.7759251510512,0,-4.55556590271271,22.1665900613382,56.1583942631146,78.7017781139312,-7.84741291366041,50.0060471774971,77.7187524489159,103.379624858746,144.834066699372,170.553893230388,171.23047960957,282.235081179211,317.608742907172,329.749906603806,364.302801013384,394.368826452057,84.292564698252,347.384303523435,-129.204328569713,135.197160170306,184.26793137214,332.103505329388,-107.526329413447,197.616809744224,-305.013648347544,27.0732988190333,204.097026301417,-47.1026811843518,-193.029125190615,-47.134276164577
-86.7460444834138,-128.681155649589,-57.4664549637197,-126.19752846326,-78.7111338235664,-99.9911978945255,-46.8844087542063,-10.0147252913691,-101.717877898752,-20.4900321443632,49.9653818951325,-158.905857356781,-123.365243993557,-56.1741756389801,-269.687144418992,-168.802435200655,-335.858035616189,-275.963055370358,-186.198860864582,-331.096665825341,-257.739375325325,-289.467640687349,-259.573789050799,-213.82373394569,-261.913817659007,-245.586936593528,-224.984899856454,-185.011501386061,-166.400351633207,-202.499263120232,-150.812790475299,-121.398009577166,-76.1524733994022,0,-132.719655077514,-103.181635508992,-59.8523910638169,-23.2004271753447,-119.786520922275,-75.2852910632261,-41.951640139138,-12.2600084291428,19.8410751047592,53.5679891597102,67.6875226585493,520.774069530531,645.070125660546,582.975384084706,676.394025899919,657.96228417361,310.022763127186,538.813364926748,120.666263497247,278.056952833292,261.917948117645,555.989189335869,146.687793157071,340.596731522057,-61.0771463335517,176.845123739333,229.352882690699,245.096166497261,38.4770188040243,118.051941743098
89.8467477199661,149.609251825514,67.3949933987027,28.2630614199122,185.831143161202,-5.35158378476779,44.9258207639094,103.81854210902,-19.2069042602866,17.9367779587541,141.77573929603,-112.875395935775,-87.2516776621869,-111.181115806889,-295.8422172794,-203.673199291144,-378.879997519133,-334.746811922859,-260.930983704335,-403.069873917643,-340.601373300617,-355.475331552548,-339.427343113866,-297.668578849362,-342.832428676311,-338.444270502728,-297.167725766954,-272.990261535695,-251.866411933389,-281.878403524844,-240.307606232366,-209.973513087051,-160.192212238586,0,-214.172893464804,-196.561427675423,-149.695220383565,-109.718237101228,-189.409435172436,-157.362667189755,-135.139275597628,-112.100708498184,-69.4941418215294,-34.4835147836364,-20.0790723124178,671.126328807529,982.558729941184,757.656752404055,981.907280140434,911.053706707929,531.290016429978,760.009187451866,401.105880272554,419.223523212956,425.934811391668,742.33895426459,358.19413962562,516.980184801413,159.50604874184,268.596910816299,285.242884855783,456.447817039482,208.349560245579,311.259459867296
381.416368889773,563.245856102028,299.962343054861,327.17732021051,607.469008072859,198.001763470963,271.770056600683,375.191216792727,196.710280530752,234.901161367971,405.145842706348,56.7128875948045,140.684847632282,74.1179004338354,-178.797322191733,-65.6570401549582,-281.204809422055,-233.019292328292,-152.587174726509,-323.237491377277,-261.494091178074,-291.162161331974,-275.013731514026,-235.48654138616,-288.140031283911,-289.087920490514,-255.789325889035,-236.61948963905,-210.190677364741,-244.237432449773,-211.316348715957,-174.667706262648,-119.641951784305,0,-181.442218845661,-168.030312199174,-115.508557144258,-76.8536965639672,-154.166357179174,-127.494918316931,-108.06638060825,-85.4266906646279,-40.9207054812271,-13.2841692842691,1.53953311340673,755.324051145853,1234.12819293487,876.514703131481,1203.47031781649,1108.33793561862,728.567663882289,1017.82716892558,636.70960366773,623.424578272006,737.9742558034,940.770933165764,535.77001882256,801.345698937658,339.286932164965,444.470817132986,565.712003100784,668.525099017453,417.573651591554,662.536350108573
736.139598611838,1040.78286156076,587.212921115528,700.538969174733,1097.62641751626,460.317868372172,584.482182245664,733.641908348828,488.242085022893,559.033351127155,747.315332816857,310.702221064451,482.679498021335,422.379152304432,68.0109435744085,218.334402783697,-56.1224909717496,22.3205565983212,129.931396909909,-94.3805466645784,-18.0606685612594,-96.6743390991272,-62.5618597867135,-8.95235964984785,-99.3298368798951,-86.3054605114943,-104.451930777914,-64.3255052727335,-28.1665673181553,-87.4341588609184,-49.3909653854236,-0.659473892504602,67.6388606455024,0,-36.3121402117827,-7.31456109339778,51.6349732083914,99.4359608088842,-19.0184730070776,11.0312166294541,40.9074860714962,83.3234005075666,87.9391889095604,112.863365089964,141.456461184011,715.570106448144,1283.73366687597,848.025263132191,1221.75668163107,1152.24391579386,758.091329406025,1166.9276709119,679.039206147095,734.351624865715,964.566882550957,1099.81263596066,605.506557297909,1069.66785475653,453.191487381427,640.04444483774,924.140750523335,924.028774440147,667.492406066001,1109.41611027637
948.545169353684,1337.58757526448,758.977176979692,917.603892690129,1370.85828050058,636.085112567875,789.981101459205,938.170188883035,690.140429510107,761.845434200583,911.920466428679,514.536058100815,740.195602046968,653.534262088695,317.913042174476,492.307771386425,188.369711694342,300.731505862974,423.723249380729,169.21666746389,260.363785914475,123.24669144472,184.333149091133,262.20645933866,124.397606857329,162.591697415295,75.1560937492107,145.929877054618,200.087683672091,104.383560495041,161.774005766324,226.192085414035,305.780557182018,0,140.838812161366,195.620438438954,265.935934719012,337.147206426112,130.998971531193,178.953197595813,225.32190693189,298.29248351448,228.798956159307,273.293267870265,331.978935042329,481.961579967322,1031.83215759951,553.161504046688,895.959430295136,945.700348003992,483.335503490957,959.693538975057,424.866578285982,531.141102907718,779.543105710555,1039.27301761916,428.990612044239,1073.4606505616,424.143377144465,628.386718839989,1018.2599010609,1078.69185805198,782.388177475876,1381.27104684626
911.346197853678,1320.45922827465,729.508900956513,866.151607497281,1296.58518989472,644.980448461552,770.434294516716,871.390161867625,700.180464610616,731.517828033509,812.185262406361,571.490078501235,787.669252302304,651.700568295117,454.320556314379,618.554719997425,351.085403711947,469.331070184191,576.106202431851,344.353477404431,440.386009066759,265.473977674034,348.149902446472,440.192877851154,284.306046048562,335.033934685972,202.20943397365,289.448127344264,360.410879869647,239.996222409769,314.261652456007,395.022263718633,476.989235020662,0,266.465896205415,343.207864368942,426.622891563843,518.106712260589,223.474423636117,296.045421353032,364.032382225094,451.647434078149,322.886694168349,397.852630903605,485.765440386994,168.222937397782,579.396031764929,138.927327394642,339.300394111672,585.332869966064,63.0809064197442,431.325031946814,25.9810831327524,140.222282816397,284.345795120313,718.383736392732,105.306200128972,795.542375204065,290.563909577297,436.841491417445,821.58976763869,1015.13003658753,705.510128580606,1332.34012667039
714.581643250435,1084.56218395897,570.14108174978,647.611928638084,1007.26597535487,533.174976835609,595.659450199197,637.01978164385,575.996836586121,569.117726608834,590.133668504602,509.656361738268,682.919045755484,555.548290728824,470.539158518499,591.697484734033,408.636281512396,498.891773166099,569.639868277928,398.658005605208,483.677572119227,315.059431293377,398.394688515521,480.872910622745,345.409391099335,386.348578431857,249.6682630676,330.705543324983,401.522408900695,284.739741142536,357.167918556817,439.366993621461,513.765504434329,0,307.211394473746,387.095045594714,467.477053174842,554.466284457566,250.066744693292,328.330976431682,415.879946929786,484.498683011689,351.982518189159,432.991786725272,521.602694514974,-40.1002943379557,170.675602152349,-106.92842943746,-92.3892949112788,261.761206498819,-195.912276251164,-36.1793514372976,-234.210489975996,-82.1073178034819,-43.9820649120372,327.198210443373,-69.6580423311467,492.133459794265,215.470314288016,341.464562316422,626.310012105065,794.375474163209,595.324311385123,1085.60519972696
537.786720405029,851.965799753058,422.559729976528,460.902952577004,743.125519350706,397.211701280714,432.318972265176,434.01596940612,441.887485567016,441.155616014557,426.568811947061,402.042042889363,553.585790252916,510.239618738759,406.969019116908,484.715647709843,375.948919692286,433.581545423262,475.592276071592,364.531022707881,424.871995048118,299.993853734795,361.367201313371,424.579152252255,317.53719584813,343.102578112513,232.246597563135,288.087699306739,343.709667732738,257.506584529926,311.010607141652,367.956573792075,422.280520363928,0,274.491336538749,330.483526067367,386.576124289606,445.388160268751,228.244149275401,284.800079267491,368.736071674692,397.773852606667,309.603504526322,359.946608468731,419.245209136838,-86.1363185183751,-42.5654288928693,-104.15001713438,-180.412712401633,43.934762954668,-187.2641441,-146.376404499812,-222.905199679641,-6.6699817728072,29.1447375159274,72.8341900865733,31.8809141934273,357.299213592096,292.718722590472,463.756886933545,612.264300060361,542.634877768795,593.987518728781,852.487662862886
499.737685037294,784.256407834492,381.456214338111,430.135797825093,661.125127162558,309.994219759006,381.974634055517,382.65548886992,364.76805038021,417.465697803715,391.840140866931,289.296023276423,464.967976995049,517.887176763299,290.622704994097,369.835465466978,276.555472726468,325.273200901172,369.360204633264,277.516174287014,321.522509045808,240.66637314853,273.743094921588,338.022078362229,236.024109912075,257.337561221962,178.163779219738,208.162117863224,247.190673835456,195.848411111547,231.426558544327,254.528206908416,284.72553546495,0,206.760159498693,228.031568732674,257.91696002297,286.253851891494,175.420735650219,205.902684935941,252.948312447229,257.102501878839,219.235200355647,230.125660917486,254.660948291519,7.92495717777421,-50.5653576588276,49.1963337197107,-11.1555346450151,-52.714343411103,16.3488214169027,19.9399561221984,12.0951104945762,223.390521989885,269.686561063063,20.3419980416748,299.278403943712,339.145927404164,485.183963334495,666.362778270244,694.397846695184,366.747843953036,693.491614579958,752.171320350122
535.70577872765,810.220660682928,392.668216446595,469.501056471318,683.925262600329,261.390290035507,373.877836610238,400.765383222376,298.658535648489,402.674498622924,393.068899479635,170.794614357121,369.803093621089,482.96576868326,153.368315134007,270.185848787928,150.713278518277,202.529651804955,276.967602235037,162.435825168545,210.554565899537,151.824154059041,166.369682886961,250.193110875104,136.986914693025,160.329691196776,102.960596869737,128.016810245406,155.418317129314,119.617961138567,149.713117288348,159.257186150409,173.069218434857,0,133.838180573821,133.334193624228,151.845498309217,163.996531133528,108.891415817079,127.208601782184,126.194069623235,135.303308500137,122.694578704344,115.349061985071,113.906635478103,179.140236486864,73.8442001226126,251.286652783459,198.767444768834,-2.74497001168498,291.446148344416,183.234157061498,317.648746566059,433.068465567777,362.71437152565,86.2623110297992,556.008902046166,267.144226919857,677.188595648551,775.62379836992,696.428087285693,299.895549892519,785.158893484516,733.105185013071
472.622970961808,728.583506136547,308.884092751998,395.69485486736,608.742726205689,164.56886424953,259.819378620734,317.432211005383,143.244385258992,249.419301569623,288.987574805781,18.4472254599887,157.660031544676,316.160987985704,15.4922402203583,131.895418098327,26.0034434080216,60.4240545767,156.99256080463,32.4874214523724,82.3679910737752,40.662283837665,45.2900669263946,131.308317731535,27.2625103713434,45.1688118664423,5.97307539424959,39.1355493233243,57.8400411768154,25.2043369420592,52.1001015903713,63.4967723064675,67.5604860526212,0,47.9144914315802,39.798715379522,55.9847965518304,64.1184073337815,30.9010181243348,44.0011182050083,17.4629172254738,35.3972160873762,31.6979006617661,24.023023588409,5.75351806476323,292.65835468315,192.805827777394,383.056656801381,282.878460592058,106.156030217448,457.703839101828,183.795686550445,489.5180453862,495.220722718936,240.108970022723,112.924950992299,640.227226523223,55.6054000880714,723.095857432999,704.552475868211,517.885583962885,256.032487306293,740.903060419054,632.476662269952
257.782903900508,487.252523069593,86.4903042742664,175.563420383612,386.856503786843,-21.2705497843145,14.0008074064025,102.236964308833,-110.38410127315,-47.1167575164526,69.0787313748133,-163.284651734059,-184.092096192198,21.873097868893,-122.547890673361,-87.1612666938597,-92.3478459235901,-101.472092681559,-26.6425614768172,-98.2264355054778,-72.8069591947951,-78.1890467727622,-87.9668808646071,-32.4682396866545,-89.5552006446051,-89.5237589714459,-101.183998342538,-73.7251332809828,-68.4921688160311,-82.3397381677176,-69.8795495871266,-70.8466325666751,-71.8758588460619,0,-62.5390084209825,-77.7724640577662,-69.5439115701808,-67.149829357856,-63.3235712318056,-59.8667303416826,-82.2650066236597,-79.6536839832713,-64.1064495207906,-74.0274377783332,-100.117573763601,267.040404822075,207.205965362567,348.466436095561,215.015845456421,135.782269320227,401.800281905179,78.038737659043,435.545247674257,359.380814358702,28.5715585749139,22.6221991750021,499.149158363168,-210.983283322487,569.088987927685,456.500473976964,198.472024041387,137.076593465405,520.018349577597,370.578185869568
7.3840368751482,213.390000369778,-155.915528821589,-59.5461347848095,143.174066391028,-210.686770490826,-233.89691495047,-120.633365859911,-335.742132577404,-331.58259764632,-151.629021145537,-297.002171456846,-487.101814842474,-284.564191104355,-222.994700736992,-297.689320817878,-172.855834899965,-226.32746559217,-211.517079307753,-188.152107253563,-201.480043128771,-159.495434355007,-190.62077448585,-175.022773134936,-172.2452918126,-195.355529145895,-177.398738147998,-169.741866901359,-187.970985559399,-163.655766598255,-170.687581047427,-200.38805385268,-202.234407159188,0,-158.237660195188,-184.903644530591,-190.484204891032,-199.114288695411,-140.56265997697,-149.66535255484,-162.02359928711,-186.720891153873,-139.727133237892,-152.856831837577,-181.932485978934,178.034241735193,201.075757845407,205.417393059219,139.865305493371,131.306601123591,220.33169796919,11.342536812024,272.694234047398,123.408438983784,-128.96605489417,-85.5037114257317,264.009700128313,-375.578444685771,331.969771566862,144.244843987795,-113.567078296496,-12.2993322418743,230.595092440936,60.9320396303228
-168.120644052155,3.56071665798606,-300.303892119918,-207.672394591899,-38.1519810383829,-301.032764104373,-361.80034456752,-248.236434828487,-420.92399241111,-467.888348016683,-283.672037603409,-321.406061435935,-581.972547739715,-472.360696493744,-236.966482784183,-372.157999038791,-177.593490477977,-252.525447690518,-297.118412664732,-201.274616826088,-238.826101545387,-170.627348861073,-214.451490400711,-225.424953192064,-182.08426762778,-221.819625938625,-187.879090472948,-192.677496332063,-233.512582672578,-178.50910879643,-193.391878068271,-240.255966395292,-247.895915743919,0,-179.215254462802,-214.459099818805,-226.873380071019,-240.026442961183,-151.219688990165,-161.410611770341,-174.558949036932,-209.433511598737,-139.041461802573,-141.643099986211,-175.367788819779,115.249151294388,311.440243185339,75.5087552425827,195.144266996302,240.084542934028,62.2786793516233,46.4101774800573,140.252633250757,-75.5306214417388,-189.01876007886,-74.5480269734244,76.0053486733405,-378.990616165584,143.269470026545,-101.891580954599,-298.374537632507,-48.3040804508432,2.57829507132315,-121.643648777708
-268.806946813516,-145.675726670291,-353.266355859836,-281.309369557964,-161.630494466342,-295.422868771788,-377.586270105027,-294.82562063374,-387.253968376091,-466.851386923141,-327.959901632521,-264.239411377262,-495.23611432994,-511.569358725096,-178.129387864762,-311.566457217891,-120.50855654097,-192.026475123353,-270.492353632251,-148.046171019588,-190.408222046174,-127.601866655532,-163.374963720958,-190.753087497132,-130.717624087424,-172.083970809532,-138.865853473572,-143.960030522858,-189.675643098399,-127.327187483482,-137.834465203994,-178.061787332583,-200.029938508463,0,-121.842242524658,-154.267784436861,-162.790012355313,-171.314896581277,-100.559599219568,-91.1951169230686,-105.778412841426,-130.887146775685,-56.857801585878,-40.3564691236005,-79.0761980927561,17.9317770883685,424.205204661019,-60.9591823555055,252.569670283967,376.125900422501,-87.5694959168312,74.901275606701,9.32379122164821,-243.12157803166,-233.581416051444,-2.58849194103314,-95.3673805037282,-320.142012059129,-19.6949630128498,-280.175992925767,-379.643083381485,36.2017303912286,-165.585045467483,-160.442497073705
-333.740119291305,-228.531338812258,-371.155701894689,-315.270848079235,-207.452688802589,-246.741025171668,-350.349242736661,-311.228287395494,-306.331250790722,-409.810437732724,-308.596217273996,-165.324985442898,-353.407425867072,-453.817741665317,-80.0013107856645,-199.280562216745,-33.9433876438776,-89.4835371050601,-187.138684203113,-52.6839646430733,-96.0819195659594,-55.0205238720731,-70.0916566801014,-107.823690526878,-49.2889134087677,-73.5791609694045,-56.852195251659,-58.561746660212,-88.8745349733798,-36.46695957435,-42.5467771141832,-69.209625248669,-99.3929900276031,0,-34.2589173614059,-50.5181004004094,-52.3567054288264,-57.846809304484,-32.0849029363753,4.38583944582171,-5.81350938434186,-13.8015884582832,43.1922320792061,67.9547521492852,34.1231346841285,-208.409186355387,265.472198180018,-293.279545976729,47.0985683942197,261.92283094959,-310.839010740195,-79.2901009398809,-200.720685380438,-448.554702682884,-368.049616081678,-62.2266994135026,-323.532691911654,-338.837754053458,-227.667213092415,-450.074065728014,-448.413012305056,57.9594775915583,-333.57672789953,-194.64252771049
-355.090770276819,-216.998741540057,-351.201652109166,-302.386277896796,-160.342370711541,-160.600664654365,-294.891337980269,-301.492102775151,-188.854485892992,-321.607961661657,-241.921580735245,-21.4371908822116,-190.57244682984,-330.206314870038,49.1897046791094,-72.5692126847983,70.2991524644622,33.6274287117624,-80.2370293828587,65.4603323764059,21.8460085920479,33.3348062605733,37.4463796636986,4.94108514524348,42.503472473512,44.395400925312,34.1515617133222,38.5144782006409,33.9288486669822,63.3237576282729,61.6078595918704,41.6557536524558,20.9447660970689,0,47.6789359147625,54.1211719999777,59.8627456568474,54.7199362008027,33.5261269521722,88.1714042497976,81.731344812892,92.2479133477438,116.748735940123,136.004800563745,123.596122361206,-468.404643738556,-148.085693589159,-556.623553938217,-398.736571979181,-132.721077395271,-541.060119355308,-426.021400825885,-419.884321676619,-639.072524521595,-585.877224183474,-263.869915886888,-531.563432411126,-448.234306069976,-416.651769926885,-571.231245241958,-509.866181003294,-61.5983623071376,-465.515636187074,-284.914250254334
-280.686526313921,-126.301196059315,-239.977739418626,-217.429184854135,-76.2123641838006,-6.82759926608862,-165.418236430077,-235.024496617824,4.00670321801761,-159.355185169529,-144.832519615929,171.059463944408,49.0081618291221,-119.707768901263,187.907428143647,82.4623940676939,173.83333884599,161.018803118202,51.5355104040085,171.973471919194,142.767004858726,113.75996445249,136.047387665641,124.241559292374,128.05174396317,144.448805924779,109.656230187854,124.051840372742,145.811446099896,141.628310812674,151.946957731659,140.388060984058,139.639430921919,0,117.622020736298,143.98576103379,161.588509469982,163.331160973812,96.4814953769995,160.489268442642,165.518573884559,187.416851608895,179.032947217178,192.980154220728,207.447555269991,-540.492054238815,-461.640998562448,-659.071629975385,-728.846293673646,-485.418806342165,-598.505314249514,-752.23280940633,-470.736456596268,-673.469570910078,-756.954710661366,-387.264963171969,-552.206721952094,-521.365722610242,-439.195080609952,-533.851769447889,-480.617656806074,-128.672283834168,-453.588960797386,-305.814133925538
-89.8010206401016,9.28848907734475,-21.6090898981996,-44.0726907292038,14.428161427352,207.534942045302,66.4015679788894,-76.3001181471352,273.562893651133,107.590915566194,9.70648025194476,378.616011098576,374.060870748264,189.603855785335,281.533627901328,254.94806429452,223.242622171167,250.867810562817,192.85638412633,215.594932394582,226.567542583737,143.235316844547,191.578482372957,208.536271132851,170.830389741717,191.235706841556,132.69039897927,162.146181698398,209.104945016475,166.987857461135,195.641370969356,206.555449357386,224.395162065724,0,154.875502121436,198.612529746221,231.616695094185,249.160308995293,133.221387561093,204.819688489579,238.616937528097,263.279771581862,230.6568342266,251.037230116721,281.349140603955,-363.738203255757,-461.572827654446,-515.448862764532,-697.381604804401,-538.353080512117,-413.1044078803,-838.750920432166,-291.491538816129,-493.764327126937,-736.518389184451,-299.415763201554,-341.922370278427,-449.102903448061,-263.46374965487,-318.097496069538,-312.319333874849,35.6789733347887,-273.118921344815,-140.125098082602
158.74821340456,176.356869867986,240.231623948689,200.311753703638,155.598748690561,420.700197523263,351.171045014712,172.579130006319,546.114875063614,433.455497873274,264.522291107247,543.714834622765,696.990602666654,538.122259457355,292.954429012482,389.629937678198,171.420972676058,262.115372362982,298.979265864011,164.415853157256,238.737301739708,89.1222580602286,171.689844891964,227.944075669805,129.265906637803,168.23106912012,74.0564004588352,129.612546969686,205.037694097772,121.065742748856,169.20534490487,213.575486094603,247.688408361806,0,125.828543996765,192.617174912544,245.881698076089,284.475164552639,106.172748467854,189.0858843961,252.202119274762,289.751566439574,232.503458181563,271.810966453239,313.321155348504,-101.459684346139,-276.429628100927,-230.536024098094,-411.870572029107,-345.539411403729,-107.754411263475,-634.01924838187,-16.5664700931745,-183.966305770647,-484.4556429323,-87.5602340794149,-42.1155653924329,-239.787885599903,-16.446862728488,-31.6443388759827,-56.0904876332146,336.123523953196,-28.1460310547874,140.924796464801
370.675073990688,335.993354531992,451.503740627477,434.813184627578,333.385462111699,574.560549650452,583.692252956439,416.421018911716,740.494939128634,711.380604384917,552.504934413238,638.584257147565,924.083216683292,816.759598653446,258.718480627018,455.701813206158,57.0617933931497,216.453800223717,345.654045466232,57.2430508336598,197.120607655353,-18.1853462369236,98.7651230970628,195.979742561674,23.4272418416577,95.4182564154404,-35.6163102072046,52.3573033679309,157.266339686176,30.7815953099995,95.8456659630849,169.079533600264,223.775607123198,0,45.3657436772153,137.925005572129,216.022558120064,277.526141356878,28.1011212923531,124.328119155207,201.196891655144,265.400176414488,179.491133122443,237.794776509578,304.738029291139,90.9222664754258,-44.5015525425369,46.3984734176817,-68.6205222188509,-43.5634801081848,147.618738630189,-217.121936485775,183.203264072161,119.500578918934,-91.5552582772054,162.554355915508,187.493080227832,48.0048721653257,167.034057781118,210.395687531098,196.69993236379,583.630248325632,171.026948879092,379.979211414489
485.696902603838,411.467804936385,560.286272948388,560.89441098416,436.869542870669,656.201831415726,693.631388533184,534.582524673116,837.488466434733,861.245487875059,733.818997303935,690.765332832663,1033.45854109583,963.69217675738,256.087955379681,483.787948642246,-14.7639322311555,186.426869233523,359.599029375912,-13.6151076327893,162.151089542229,-92.9571289240572,45.0700622966835,158.949290945175,-59.8284573675948,29.9815254547222,-113.339578104753,-6.91162429730482,113.188844437679,-38.5267494888799,33.8001188024585,117.470723488171,195.500771505875,0,-20.5439905169968,83.7824036609472,178.713089565343,256.4549734738,-34.1021929977121,63.2578441540814,143.34826989553,224.841931785864,115.557423298639,181.618504518506,285.858471988759,204.569760566595,262.035443832142,244.580570890776,274.291593089057,331.254495123956,285.325149427635,271.288606365191,259.443518083751,329.903474666995,299.722042901788,465.435878496661,308.538519267673,364.745695966613,259.818692250338,376.103975922592,399.881826107248,745.084871963931,301.034365529294,522.275243666687
503.719771203531,379.511115407017,581.615516550806,567.690560453572,417.433438783369,676.592343634529,702.312279981315,530.759395548149,854.603439754814,891.705946352006,780.154109981227,716.706843135494,1043.81849515119,1003.08261417634,296.609732637244,501.18160330117,-1.15677547652076,201.124598637324,374.465725909297,-5.77017452328595,164.052910818482,-86.0565481431687,48.0617136881783,149.34536804482,-64.0010761369573,19.7160272274136,-109.221264382296,-6.13963191928591,102.008357618039,-42.1262587324191,22.5516917314623,99.5428464706753,191.812761736713,0,-25.8793803195019,71.3934642375621,166.836751029168,245.492011771631,-37.6328952830242,41.4576142745572,123.021291816779,205.483110867818,77.2409160215329,147.860847863925,284.41896833552,277.811285820884,612.780130842238,349.702538099879,573.002895509755,709.954631095921,328.142487595289,654.324662464878,262.562662117404,425.656026684331,567.661451289531,772.073383113366,350.926296054678,627.900045719876,298.621102810605,468.573425999265,538.14728429392,870.312774842257,374.446568950195,604.318676077826
459.196143349059,307.542241400819,545.941657974554,524.971397856246,356.941329782878,624.486265985967,656.76548293164,506.41626747798,780.729530070844,838.773420589971,769.697514055324,658.591115577475,945.249485811007,954.948921237475,291.592621045647,467.261517570012,19.8997788253027,196.762859660502,362.202171270462,14.2705694985207,157.23483097312,-51.4730670824959,60.1789118520154,142.474815309455,-32.805070585766,36.9235062577994,-68.3024962324751,22.9530131979858,101.836301216999,-11.6383330661865,39.4006804741065,106.61777657439,199.344647337681,0,-0.77217165779661,84.8437796332568,176.264698776819,247.716667754541,-18.2288262029699,39.2656149472075,128.043347972574,207.151497031646,61.8490662829574,143.943227679229,301.476151406356,308.191372377631,838.087423638385,365.234725978539,717.473207469138,931.266064002248,304.884744364869,798.721501752256,232.146940389896,408.150434143921,637.524332333236,931.955231017602,320.105288697506,723.033479612199,286.776550936436,456.536680408778,559.765631522134,924.534645063608,370.342502058858,618.262101474085
