-20.9514705586759,23.4888458858512,-16.0942092180832,-14.7167768976166,8.55457967447666,-23.198860134174,-23.198860134174,-15.5142377147289,-32.1884184361664,-34.2908151358259,-38.1331263455485,-26.6061927163808,-35.1607723908575,-41.5404589277553,-23.4888458858512,-37.4806584042749,-3.4798290201261,-29.0710716056368,-48.5001169680075,-23.5613423237705,-47.7751525888146,-9.13455117783101,-41.9754375552711,-60.8970078522067,-34.9432830770996,-42.3379197448676,-42.1204304311097,-27.5486464093316,-67.0592050753467,-49.4425706609583,-50.602513667667,-54.5173213153089,-45.7452523270744,0,-54.299832001551,-48.3551240921689,-28.3461072264439,-24.8662782063178,-43.3528698757377,-59.9545541592559,-34.1458222599874,-30.0860217365069,-48.862599157604,-33.9283329462295,-35.5957510183732,-29.0710716056368,-35.0882759529382,-34.1458222599874,-34.2183186979067,-33.6383471945523,-34.5083044495838,-41.6854518035939,-31.1734683052963,-32.2609148740857,-42.9178912482219,-29.1435680435561,-29.1435680435561,-32.5509006257629,-30.8109861156998,-30.9559789915384,-33.3483614428751,-37.5531548421942,-29.868532422749,-38.2056227834678
-105.286461311648,106.669272980441,-80.8614347375748,-74.9055213033391,35.0815561200088,-116.312755767839,-116.602741519516,-78.6894546882596,-159.330487023813,-168.943829212643,-186.595536745724,-132.262981826015,-174.231699548356,-202.980741431415,-119.863624681753,-185.312002196954,-26.2262319972023,-147.07612275539,-237.671578135593,-122.237518887577,-235.391581701465,-52.5502845702949,-209.249498495237,-297.726982018532,-178.056979056698,-209.737028771027,-207.327614618309,-142.09963950513,-332.548692985431,-243.158449539551,-255.694507123062,-275.43012311029,-233.734359438244,0,-270.1208514408,-245.900652111499,-149.943373413531,-135.316571483416,-209.33320045801,-295.502450320942,-180.072760705321,-160.881596274554,-242.291405372783,-177.518353676765,-178.615549226276,-141.058918408088,-167.363026191536,-163.76106217348,-163.742573927967,-160.70063662362,-166.35098914893,-197.79651784812,-153.499621675771,-155.034708941062,-203.571918459623,-139.445508528351,-141.910387417607,-154.888259521091,-149.96724100737,-148.190350006282,-159.759639474801,-179.276309604139,-145.277830420524,-182.952226604247
-222.289524619898,182.197885898407,-162.201026784905,-162.785478277788,48.1499190286994,-246.490405715195,-248.156367243207,-170.187281548611,-330.594391391518,-346.773573267794,-378.188792801119,-278.349702956506,-362.006407752007,-410.952110700223,-263.871346894413,-385.2010373552,-89.5056931737077,-318.18145553806,-483.356077867993,-278.65766651566,-482.045391300498,-140.077543562225,-438.776827320165,-599.911994357968,-384.597297094197,-430.427765416737,-420.752807364715,-309.191642017049,-685.809717248852,-492.325940838887,-544.223322160649,-585.279070767084,-503.950219471463,0,-561.554369200037,-528.770195631548,-338.82946011125,-330.099033452281,-413.301220311194,-607.146823250031,-407.68736330476,-374.277438506464,-503.169250451812,-398.411863933361,-384.3671108459,-281.220371380475,-323.572577584154,-320.646699642664,-318.426496951445,-311.410358698252,-327.420709209933,-378.753299143555,-318.064960867944,-303.438773972527,-389.479382934063,-269.692387409352,-284.868010528323,-297.838791159529,-300.511839928609,-288.033069201919,-309.820532088253,-346.74471488559,-290.468649002043,-355.651546075186
-267.417231711473,115.783394885849,-151.639683546212,-208.460637613971,4.69577836831357,-301.528812870856,-305.471132352902,-217.302971745765,-390.564202274996,-400.187074661182,-426.367964446256,-340.777675812747,-427.216393569255,-463.346220119059,-348.214952966682,-459.062822558243,-187.369025621944,-406.219266627936,-547.45131052946,-393.896419216256,-549.84504239848,-244.672718689912,-524.738349770267,-658.594858530806,-478.031619578948,-485.037559699813,-463.92506780109,-380.894415142808,-783.389620475878,-540.832614773092,-658.406544090111,-704.957609986108,-616.345831956888,0,-655.138287181798,-650.792216500818,-444.481581326751,-507.040418040967,-438.226660744688,-699.065409723039,-536.287329340954,-520.145857885054,-590.80253924821,-522.06017692429,-499.059726604532,-303.947910152365,-331.36501339279,-336.809136730489,-330.191325822704,-320.534778512398,-346.825704954437,-380.777792037608,-382.108455145952,-317.643150421271,-389.600339618028,-274.560623796601,-315.024899529779,-302.057171800677,-330.688325803155,-297.359404989934,-316.303290408354,-355.426005563702,-316.513983484468,-366.028204238103
-232.802968706214,-54.2802046370452,-38.2278680187213,-202.479976880749,-67.509647425705,-271.365493896762,-276.961676760707,-212.333789589581,-335.916781038004,-332.894519000678,-344.321963265219,-311.647110537836,-365.045547169237,-374.146604348104,-349.142962104045,-403.538149975751,-272.675803065547,-389.571498871809,-440.831924699856,-433.847485315221,-441.821766634454,-327.172577245338,-452.656190574432,-488.435809193672,-424.845497106151,-373.037722248044,-332.532285418379,-330.90109261852,-618.362402400423,-394.898809720666,-572.565825094561,-604.110643891918,-527.976908693802,0,-540.952720540113,-578.583280487708,-422.358373633694,-602.690166866035,-306.47634953568,-573.770758480378,-500.108952687769,-534.451663630285,-497.388335279465,-495.671836512174,-522.741546996136,-220.076837186956,-227.516138827358,-236.517179808035,-231.817390862765,-223.087067374868,-249.644532193698,-253.415616101153,-347.522906859942,-224.251694952569,-253.202692061736,-187.657597605721,-245.293121529785,-205.79704905517,-255.502157491857,-203.887096183676,-210.745648647912,-244.903130496385,-236.071238447286,-247.978876498143
-200.163067151357,-153.131490693923,43.4802261242403,-192.614508422135,-109.189795463542,-238.690649768472,-245.674681310467,-204.279644901624,-287.814712830544,-286.757476177328,-297.42827010433,-276.592875961559,-314.335440354908,-320.553518271581,-323.565497402225,-355.908784796492,-291.304997475597,-351.505816819506,-370.947935515712,-419.014250510748,-361.562396308777,-339.225297780602,-375.650256710524,-375.590779829521,-340.093897839121,-293.906661160911,-205.879947708776,-283.715045648777,-503.471766866006,-286.892961998877,-510.59355875557,-511.779016392622,-425.954477031646,0,-457.225438669781,-516.946270591063,-381.184847995483,-622.267685298334,-218.283682186611,-491.747140108477,-423.138094269563,-499.564469686135,-425.986130873893,-444.125145134801,-564.838585995356,-164.920224257751,-188.856583026205,-182.690199634961,-190.996062919932,-187.757751666797,-197.882824652205,-206.099053418126,-311.13998938299,-179.956898157884,-197.522350180165,-162.987635029088,-199.812765214417,-172.817259073447,-209.376882442001,-157.201937892549,-162.522665224512,-200.796529873486,-183.850256801278,-193.581724006597
-181.382809843672,-135.908341281609,23.8302044704142,-181.053068889651,-111.50676995222,-214.442054904527,-223.871971045097,-192.309837183287,-258.375385643799,-271.972708790139,-289.994296999321,-241.772360466107,-292.913278941642,-309.003360644123,-279.385600033745,-323.081463050372,-237.67654569171,-297.748234909378,-347.393604035384,-332.502556631578,-323.298402080085,-256.397105860861,-301.214123350494,-352.046205646613,-242.049905616096,-264.626802840334,-111.720725175892,-272.424911661483,-494.265815340405,-248.27905827839,-528.6519504884,-475.42769322021,-362.195757722798,0,-448.133778953467,-521.995128917304,-359.908300882384,-541.490749627402,-186.647803129719,-489.747185131308,-381.565919198277,-450.306611759896,-416.613121112364,-428.71018706226,-595.008617762835,-156.11964509474,-213.935387649536,-187.212243209642,-205.294651751775,-211.421464667491,-190.276368945071,-230.152507405843,-257.854190569806,-185.572292236644,-217.858703192878,-194.612556186668,-176.582894239506,-194.57042891467,-188.17196968321,-156.749377682437,-174.469425561298,-217.275917507974,-167.688971373972,-208.530410721114
-148.063909054215,-99.0058328595494,-24.4503134127101,-151.91601418316,-102.926931788766,-172.466410141337,-182.614806537934,-160.18670129584,-208.290711865301,-226.484999367546,-241.0473216948,-189.537772609257,-245.626845938928,-256.207689389759,-218.145595099653,-252.988210941247,-175.381895496555,-215.263738499297,-272.23851976612,-211.139499207151,-233.010933840999,-154.830809943877,-174.847200650749,-272.537357362115,-118.454977606217,-181.368996663142,2.36044743953915,-251.510200173788,-418.877410359843,-180.89980270725,-513.173583554975,-381.914696004921,-254.902444826956,0,-400.428417004706,-490.611978887089,-315.280404525377,-349.87468897793,-123.415013127727,-441.587033917955,-344.521081869479,-354.685490619966,-382.177161378998,-404.495390790713,-530.493509857231,-134.596019070235,-203.169986831522,-171.477767293909,-186.311000975373,-199.410234406252,-149.687288573946,-210.274179496241,-163.445826510484,-161.922550853813,-196.454209319448,-189.702741115918,-127.943207581483,-179.509844730713,-132.249046955178,-133.433724948966,-157.869043508661,-194.941742360971,-132.414122494709,-190.917971389784
-114.112575402291,-95.2243024031383,-43.2686959738908,-123.053091929512,-101.611922214914,-132.424054964144,-138.238722938307,-128.351210829046,-159.749557689134,-168.301905446351,-171.054908283467,-148.925689645836,-186.681337267448,-183.528054226713,-174.816995820317,-183.416269896968,-154.782074844232,-156.183448882109,-182.594889426011,-153.340720957496,-134.618398231135,-123.341826125834,-77.8592085984027,-157.775568791498,-61.0101058854153,-108.377228960849,97.3647487652822,-275.45106413043,-259.690950074752,-112.3569514379,-444.226371029464,-223.424983913091,-107.992909301144,0,-311.40327674994,-390.885021282268,-256.845448921574,-117.181771970954,-52.4684002810983,-343.018234171325,-281.299845594955,-227.176547805164,-307.134524539092,-339.915084456381,-395.093046349714,-102.395351964483,-161.373566539951,-135.851651315968,-147.584583993801,-158.473961561597,-106.297727610969,-161.258562760178,-92.1882096823138,-125.890419910594,-147.301355089481,-152.564437717516,-93.0361297956899,-142.089433992841,-82.045126917566,-109.858452175896,-118.932963716676,-146.542766808211,-100.047739051061,-146.372521818782
-82.8273865475415,-86.3836905433628,-40.6696705542909,-92.7727454137722,-90.5509329386487,-97.0922370277779,-98.09019965542,-96.1387959446228,-115.593198316667,-116.591956910797,-112.193665995098,-110.951827883946,-129.684920624931,-122.31151701821,-134.621255724736,-138.129964919931,-128.706611559447,-127.817591342839,-129.413428273503,-145.542738674638,-93.4483484145416,-107.396009697204,-77.4838488462977,-93.9550849478335,-93.4560438095519,-141.657568291109,160.74210800629,-377.224370189559,-110.983333701624,-80.6290364911373,-357.981972132426,-50.4960950935622,25.1491103213209,0,-223.819838716488,-254.293594633567,-213.293035071964,79.9291504630136,-6.74559019899559,-238.550180724248,-176.341512334837,-102.811896414414,-204.058387046454,-230.650589502317,-238.367044733905,-74.7022841779255,-123.128817037094,-101.431644928692,-116.586184390687,-119.434591833787,-89.1459035493746,-122.438225512779,-63.7844464291408,-102.867686920053,-111.669378153648,-113.66138388567,-85.7849933953525,-114.555563951988,-65.5539412288585,-99.487196845281,-84.993196732241,-103.684548180312,-83.579840316794,-107.515273498124
-34.8252769362519,-49.5242948516082,-23.5602592379184,-39.7874490895783,-51.9786001188695,-39.0988272746992,-40.7307912825242,-39.9023660068747,-49.1971326960099,-46.1010222567492,-40.5554509854006,-40.9394646272073,-53.512460124386,-45.2932048300524,-58.1156793300139,-73.657753252757,-48.3319004161918,-74.1493808528596,-67.0152427402462,-88.2445089760721,-63.3645835409717,-16.8778408420266,-90.5251011571921,-45.8770191107531,-89.5496834781028,-171.509870956421,242.125607184491,-394.424895666618,13.5116610318503,-28.8488149546829,-211.67500944644,120.24428678036,119.59852198814,0,-100.54634287637,-98.9715604039789,-169.777931279176,205.984723596764,48.8916537339137,-110.104918498564,-32.2313088098734,10.4193752716546,-66.410438784,-85.4238038409146,-71.6819158176598,-37.1650386020478,-69.703849925879,-51.9734351076157,-67.723146729906,-64.2952395903252,-55.4412085900849,-65.9655079157612,-28.3870242874067,-60.8731546093273,-61.2493254158191,-60.480471970712,-54.7137850133846,-70.8334539369865,-34.6417663527525,-57.571294009171,-38.7358783798269,-48.2339162160246,-44.7491757011351,-52.2068194102115
30.2125398956075,0.911231595942033,13.1981500640166,34.1759471039699,8.56617138308212,40.3258238959449,39.8253243457891,42.2444466599566,31.880476272969,47.7652161314432,58.7680908265766,47.2757240925347,41.3582166633232,59.548730809759,39.9497922216053,30.9900788826752,49.3041466050822,26.0021660061372,46.6432364798091,31.9780974571269,28.1748338543064,105.137926052458,-9.450572590319,74.2778238266498,31.0111017489503,-30.5352130101567,325.956229775012,-152.978028497174,176.777942737013,82.0314611070756,71.8127286910245,307.053654611708,186.74375067335,0,125.365509385691,104.445535898056,-63.724669661077,281.957624206831,134.213565388634,85.7034572850732,148.607874110921,139.168616429878,117.720143297189,96.2686197943024,121.456208139257,22.7303869807627,24.9025284551979,28.6334513543667,17.7284112759354,26.7189719324305,16.2013816252612,30.5120199157803,38.4437368874888,14.1844416356988,27.1726271387488,22.4898859936846,17.5875562372596,12.880251327323,37.1427878883615,25.7148868730723,34.8954638524918,35.8330386790156,28.8377298214346,35.502045239864
130.183447893136,90.6576823178824,88.7923439050527,143.452473944225,111.04584234065,142.476383388852,156.175319674337,163.768004591464,136.63937062312,169.912952916254,199.859629146334,148.057049611302,164.314733561785,198.618369669413,151.304372916754,178.294953583204,149.706519773874,174.194600572912,220.726738632432,178.41474024477,213.58593930011,190.507364333345,191.909497829065,305.778424720862,228.921979343123,273.085455340122,365.984550656051,281.141960833829,459.371651395682,253.962762617271,501.188176792212,595.602004133828,303.921832675442,0,483.323063905252,469.791845305066,199.529064457679,417.137621431825,260.548566814149,407.626929400721,422.644072506562,351.321433934464,399.458283546173,357.71202448229,398.109136784091,127.404785961093,184.726364340363,156.583630705015,162.342318750705,181.269134906222,124.663002323842,181.617495339766,146.109134051508,120.243217866131,162.808974559432,166.154660751218,124.860175875711,153.545030632142,145.191804385695,138.954647391467,153.565559833739,181.363919588947,135.051563858322,169.607082840972
287.751345726748,240.048688111725,216.170923127273,304.717893737627,271.669580235848,284.520757361036,317.726679711206,336.686199057638,293.155917868474,335.401590490084,390.699519833467,286.052505084998,335.127351697318,383.14533046104,303.41236772341,370.189634990016,291.638277797003,370.507935274035,438.648552296567,354.218422199809,456.6424188224,278.691792888839,450.075563562096,570.972111709667,429.32289605787,562.800456392255,378.913066051464,644.96621621949,824.523042654713,485.428440566318,936.984068673565,983.463340932736,485.971933053493,0,892.922950085307,1005.7729186279,596.022193018284,644.378689835848,445.460538512593,839.033590813036,787.427724208139,633.146490680229,780.361948764855,687.389960888614,728.053733802283,286.529826137479,404.034696106979,329.137186079,372.616852546443,403.731722417598,274.171932698946,389.409515253358,299.236875856816,262.961823429246,344.146512037899,381.041174766032,269.347931822502,352.710141648358,284.829742676937,281.750432462253,319.409348055225,402.741094194064,278.600558213157,361.606042611687
442.216432718919,375.486836162748,344.07612497309,456.602835770214,419.089311692116,426.450431091974,466.844426142677,494.156166086307,453.408852666583,496.877135518417,559.898134702984,431.856508677615,503.746137310368,554.837183724501,470.55996902174,550.738651929466,450.648583608049,562.141251709274,617.792560777396,548.203519049699,649.076199497882,423.881692875747,651.459633070798,701.374506674823,569.165429707682,682.172436918965,392.816775335379,750.020161423793,1056.86366933061,703.699926968303,1162.7635576999,1212.30658801635,578.676719217881,0,1149.79455625807,1416.07057233134,910.593240379408,751.780255123675,625.536410433914,1178.3623912349,1048.18084665235,815.697072018293,1085.09123857426,936.797485387685,902.173534492645,434.554537500185,585.069181473548,477.093975619068,557.008402176985,595.368941390708,419.208142490777,571.331282633555,445.605953816123,400.899178053285,504.09664562992,570.827406764104,407.113766325658,532.717328811139,413.22579554692,410.304987780358,463.208891665655,601.25743876349,414.032923956405,540.601961559602
497.481339169493,410.285610758054,391.523006452649,509.066251433098,460.574358118399,487.059673148151,525.044369763949,543.948676299445,531.123022031172,571.621149422742,613.606352253125,511.815840314906,585.303537370704,622.424660736643,574.76508274846,642.1376855089,545.224314821314,676.726945175755,681.043572248411,700.847321531849,723.387007573765,577.054605708854,745.56035380405,649.713013577204,645.584820435158,665.771836937503,405.305078212728,683.373254294664,1018.5874982969,782.722817805574,1125.45811661256,1034.25267427705,479.18331412399,0,1114.98510432844,1385.11772010227,971.088919432208,537.901088067731,675.238687052106,1224.98286059325,1015.6351652938,779.646027692916,1126.09612728096,969.949258665696,790.032957207602,487.352549694429,624.817445638599,524.960506272212,606.969137538998,643.063504675707,485.518365774224,624.385984174754,513.20274655434,464.270549418404,560.326508971519,620.478975470915,469.142005188449,594.063823426794,466.348176151242,463.062017005028,511.607804311283,656.155339368474,468.764239153751,599.968589204187
450.970966137302,356.627308732586,346.967175514766,461.250242030238,403.521820659874,448.519729412757,489.557326079574,489.175375727279,513.12011556764,544.788981957254,561.541591498254,497.725667476549,566.598804271234,582.337479670565,576.538248706737,630.704834707288,526.303548137821,680.345485651758,640.838621469518,737.938694028394,694.619713784904,609.186936955804,742.154504864329,523.802577078379,658.705218899425,613.224253910148,382.595854477541,624.997740314146,780.881539458909,676.081274029347,943.002122270944,520.890987026654,255.078163032691,0,865.903887302343,943.172209496556,792.565317230843,123.419971305444,552.57870725121,1012.71661921331,726.516733333632,589.389811516347,932.679814138101,815.183805511171,539.172945352246,449.570317204456,552.73210395956,485.397909170369,543.78542211601,569.125293863328,467.768654571606,564.000320608997,499.476075081203,451.648151680587,521.977548326869,549.876337711848,451.282234167286,542.410455288969,437.998617949043,444.764861834531,483.802508715052,583.93163828471,439.627174410563,543.758814470132
362.373387496581,271.142803827808,256.222993588062,373.601582498429,310.371271992062,356.141097755102,401.976840678952,388.824424518616,434.600874287546,457.752124750607,471.10691480418,411.921074213043,485.306952658556,490.473173137204,483.596178633332,537.125745938913,388.913597113216,563.133162378286,530.975628971478,610.14435277696,562.979494138549,439.592728208985,608.790929275141,358.115872940962,530.974599230212,477.854579706284,256.092529876194,571.653222005897,419.068342563495,483.549228119502,682.730972687357,-79.7836974082176,-75.6106724265402,0,577.799547131127,344.896544302954,425.723227977824,-238.713521279171,350.045619727021,697.512507985975,297.590097410223,322.19925752219,638.066405420979,567.10403099435,332.152819853503,375.222602069403,456.810351015413,409.109182714899,451.804325223809,465.022899704647,412.219474602532,473.652592905714,444.819846479529,405.716101943748,449.181835820192,449.448694786355,390.729778887452,449.538042154055,371.725320479905,393.057602100965,428.560982172984,477.156509793862,375.328076178109,454.973139529885
253.71623688378,167.551348470929,143.102377728323,269.329417550113,199.43346274314,238.162401418207,277.247794220208,259.455478179539,315.477586122999,335.406388815596,355.479766182,284.665181995216,358.60019700268,364.294691945129,319.435545332002,376.325390937749,175.217607759821,350.096463688214,362.14060144256,354.200957647282,335.202426454636,147.288666776027,345.037900220771,136.948645157695,272.528940461004,232.813330786933,30.1406192825499,484.912157338034,17.4733860500218,374.923182529945,400.297730594586,-601.10463148116,-568.686815640476,0,369.222359951256,-196.216094707845,-116.818840830629,-498.435475330156,200.767356913017,374.071756127263,-241.006999140054,-53.6191231956671,292.509629893945,240.540935509053,149.791916698548,278.725005931055,345.436196747328,303.908061192733,342.734814894221,348.081951713432,329.342747092875,370.889004491152,358.513306087186,324.975442591689,353.351119273582,334.288159579339,297.160590158615,337.107587071527,288.547344014736,308.002122442476,336.978539336861,360.842982541764,291.743307229042,355.857582408288
146.593380568124,62.0174498322784,28.8488175046802,160.282008278703,87.6831724514373,118.665408895623,142.660275105532,122.800721284496,193.018069646603,207.037536708892,222.88418305746,162.467263355957,220.527146880583,224.592384483465,147.266803547767,207.570747559565,-16.3546485927347,130.566825867911,196.691067058203,94.5342105918408,123.112834398612,-98.2147842115091,78.9808532502468,5.55956668430313,53.3828907478485,49.0375791915007,-174.832373898767,452.223722002258,-186.599534024754,375.445199172791,259.246831639436,-979.85874065018,-1123.26574614783,0,281.8870440908,-549.973135001795,-798.923443510547,-724.448817660157,147.240983303663,131.174171492348,-808.925688433976,-567.617546742246,-46.5398501590008,-170.184194869957,-86.5302417140943,173.906761446475,212.482718774836,191.440665303299,213.888117220185,211.441572328131,223.854158584973,249.329433453069,255.104967700824,214.153897013512,237.665461660874,198.772316581227,191.917299294704,210.599119604365,198.573377414465,198.719406210646,213.677543676017,232.306325143351,195.178346875786,239.178557947849
90.1166986111204,-1.06808776590597,-39.0310684193332,88.0850160149509,20.67022035547,50.0743749397224,57.4899164215186,39.6541965072168,126.687894645883,127.627020827653,133.186521303325,100.102421960706,141.42175076298,136.254691211052,51.3796601126884,115.851000772594,-99.0906022473267,-2.84980501886875,125.616760564685,-57.4884337995157,46.5605901192304,-197.794860160152,-63.5962586697085,112.75951912615,-33.5748040507565,45.5256955648221,-266.158052155492,464.081651892682,-68.1263734000947,305.721393251964,302.265297474187,-1216.61639709165,-1535.99099008817,0,276.351263921018,-684.352886663455,-1590.41163914502,-892.356281426817,108.956828499216,66.3374345098009,-1222.40224027054,-1157.58319449265,-254.31320561502,-596.135517299899,-352.057779361757,102.161381376293,108.984062514985,124.315611066009,116.224421753651,101.784288206176,141.066399668912,151.967919369965,183.85492573458,133.440565285602,149.419875411917,96.6166152875614,125.766896741089,115.137612871161,135.160656430563,118.005355414462,123.110691960162,134.149137535833,124.069344542848,147.463503171853
64.6879781686248,-43.8952418703371,-67.8722961885567,44.9736899695482,-24.9018889716362,31.7594828789475,15.9030641395539,-0.157382861221533,106.393772114847,92.0449778501774,89.6695226783372,84.6895730355096,116.934861832292,98.6873589415011,32.6678510566265,87.3524978256515,-87.5730691454089,-55.1357709058168,120.250936052172,-91.2864736466298,56.1900552842944,-156.76902712213,-106.724621688603,310.027276623246,-53.7788122323029,87.9024193559031,-218.154411349153,355.564253390787,127.422786979193,98.6957814764414,299.370586450821,-1346.68738934528,-1735.66168175718,0,255.024582674765,-700.025176799884,-2408.85364002368,-1003.23852026114,20.9388734267688,122.916596638031,-1420.78968214937,-1711.94033582483,-318.167457058186,-970.251513948982,-597.644414859864,50.1783899538023,35.7536219075425,77.1911605506389,49.8721580507925,26.0034609774617,85.0983080449465,82.1448987976983,137.650056749344,87.6067607318712,90.1379212031644,30.8410539540764,86.0479549396308,49.7956240432495,92.8516035818762,68.715507998922,68.9762581489043,67.6035565626246,76.6592522685153,86.2299653824664
-13.6650002502993,-146.958215539046,-134.647408190563,-41.2829192884574,-129.994607164544,-18.6734339648997,-62.4834748414486,-84.5981323031391,47.4050495384704,18.5462203985778,6.84043207688264,33.7915999033135,50.8172007622805,22.1785049558304,0.351965667102706,21.2675176609556,-74.0562116097141,-108.268186548267,56.3723007187251,-80.76498106376,5.99128502020896,-40.0760234333845,-151.049084020379,328.154531536309,-63.8405597467551,8.81399780829911,-18.1163731234015,83.5729322600825,131.418536175323,-41.9458425515812,80.7382175271445,-1325.63914535052,-1723.70534379723,0,166.130853105409,-696.163293943077,-2931.43357618711,-1181.003410997,-55.8719802113705,126.110136370096,-1498.150620748,-2105.67067198182,-368.457905365039,-1292.57735820529,-811.304659312489,-44.0140986283186,-78.5399540354781,-29.1079037543695,-60.3988612035788,-83.9525217270838,-5.44910178915906,-28.8254681437623,44.8019067525118,-0.854707932734502,-10.7209127664702,-79.4271525238093,-1.5549215905727,-56.0928880088327,10.875891926909,-19.3620795884863,-29.2814862652567,-40.7302157131857,-9.89587545838932,-16.1731558351368
-155.079882241582,-306.710809926948,-258.68223995161,-185.272315506903,-289.934154472422,-132.921409743812,-194.895812141369,-226.992385336429,-76.4074642832399,-118.495962758448,-139.198150948213,-79.5840567670965,-85.6533601751534,-119.305193377845,-86.9875500349706,-103.73819416031,-106.578022488922,-187.454829848717,-85.2701134998216,-83.1993764373291,-119.661734741025,66.6257721240954,-214.428824407469,166.518607974713,-53.7413385079072,-152.468654828699,261.145262603728,-194.114594931867,6.46808779647661,2.96344554124226,-199.718249347598,-1075.74865807941,-1452.79545335232,0,41.1968659633701,-675.732400649246,-2807.59150267749,-1440.58474674821,-56.1453745266139,30.2825802839419,-1481.91705468341,-2232.93541269558,-463.020938363316,-1546.40228906865,-977.463241556528,-178.286083744886,-242.6121934868,-184.823687194771,-225.113031498388,-245.055962078252,-143.210940329091,-194.213378116169,-99.8972420023196,-147.189796301143,-169.712610987575,-247.53637346364,-144.791243165205,-214.802295285258,-121.487747017591,-163.354680893646,-186.577019402344,-208.847559369629,-147.103679957766,-177.72874179714
-290.668289309016,-447.959164652467,-377.456611085673,-326.481922862116,-430.837165104568,-245.104411564494,-314.073512958178,-355.870280618953,-201.029808332844,-254.76851344276,-281.029911400212,-194.683451316118,-220.284914030633,-257.819311779211,-177.900919033699,-217.218813562899,-158.707025944728,-244.350257338446,-213.258761727673,-97.1622724732235,-219.677974309048,105.312781354131,-241.975233961606,12.9856404134584,-23.9185820838144,-251.618033609611,452.707243640385,-328.485526074205,-121.510908158766,74.7124442974475,-329.396329254063,-733.235471705742,-964.487885359447,0,-56.2713169556973,-675.144822174298,-2139.82436026113,-1603.94076998629,-27.504685961812,-56.1600092313374,-1325.59251407592,-2088.41335326612,-526.634335208916,-1663.36693199019,-1095.66697715096,-294.14314724961,-395.875570997911,-317.791885373045,-377.926027088636,-401.066379278054,-272.544557263118,-351.230557223147,-227.815290507362,-284.020818938928,-324.653470959363,-404.751598955319,-278.340960554142,-362.953071141718,-246.729527006877,-299.852837928427,-335.830360463588,-372.508752631655,-276.634005135412,-334.74816893692
-374.067411051812,-542.205370701715,-448.428807082255,-422.284420383017,-525.503218707599,-301.122639579346,-376.984237201142,-433.050960490184,-277.795309414847,-341.745827845431,-372.691743307662,-267.069798310481,-305.973972937918,-345.698385407953,-235.043793243062,-288.910018743307,-205.106885387254,-263.606368252049,-287.163919191156,-113.93280817191,-255.182957428957,76.9711925204055,-212.668000810983,-74.175397518996,12.514779214742,-234.983466149333,485.356082442842,-301.004498570639,-289.31206787917,55.445588040803,-300.771236267061,-502.863826646491,-402.584293320675,0,-33.5340265425448,-718.733886568519,-1328.87219041982,-1496.60388972291,-3.00293744940365,-45.0816905285955,-1017.68123884811,-1711.78594788383,-479.600502295598,-1575.21583598859,-1137.17775064298,-356.663824790369,-490.718662218314,-392.656416694081,-472.016904949627,-503.850644963509,-350.499119606615,-449.362756762641,-299.620335916465,-365.141281751327,-421.340808358632,-505.379213573154,-355.959872789228,-457.567295072858,-323.10360954249,-379.489670067229,-431.259687096806,-478.251980321887,-357.179930874299,-437.538026492785
-382.370519071093,-574.637866635043,-459.767633009965,-444.41356904303,-558.871776368686,-292.794929175466,-371.397404812331,-444.06452576845,-294.708074215698,-362.422750527558,-391.755535753358,-288.596114802696,-331.807591932485,-364.159142012496,-252.842393771507,-315.871606725146,-222.007159684167,-251.106808027799,-308.338114208395,-111.374603901029,-231.447441903226,43.8251674712791,-119.707377789081,-110.659177963924,85.6429670590706,-105.036172182229,457.476691783083,-133.306071978396,-365.365728044101,48.9707860357405,-129.781726890437,-222.55981736261,187.93227791901,0,207.051531596097,-611.073989406578,-521.553831289764,-1045.30190326193,99.2103007164639,73.5754665786732,-536.807971193936,-1061.62108899349,-287.840932380679,-1224.08545057146,-958.313776408009,-341.869825403877,-478.873869079793,-381.149685752294,-466.610181143256,-506.230345160035,-348.449021752842,-448.079662957843,-298.756211938708,-365.154986568847,-421.990038249063,-511.577922816658,-350.342806805854,-465.286003986388,-327.836324470617,-376.496395780812,-440.674975917719,-485.135322427482,-364.439273195294,-451.333304374485
-289.224990531268,-488.885432462486,-384.966918437099,-348.719813084846,-471.607809014523,-207.048575897156,-268.335384937789,-343.943186809327,-226.231218921758,-280.607648894548,-293.961147589459,-232.531321360779,-259.131396641127,-274.311474305959,-193.35790252268,-241.446364093419,-152.487934944158,-156.079102205652,-224.212183849614,-27.5531186580105,-98.0475124014394,82.941316596258,71.0596180226574,-3.91309761803594,217.550530085598,164.846404332059,444.763176064682,171.186688272883,0.0847946552158287,175.822297753456,256.917555525598,447.70032697425,852.038028708048,0,666.38126313556,-97.1135295725358,381.601646774253,-304.435314804456,340.934005911753,291.495156674225,129.369693113709,-135.71606860208,55.2941138001703,-606.977994408585,-467.435446409705,-226.148041420969,-321.448407352738,-248.617235012994,-318.227149493266,-358.577795855758,-237.706558977098,-309.710242074997,-197.747421168272,-251.839985509297,-295.743325015234,-375.944182375107,-238.287743125139,-339.897751208193,-233.694507641633,-264.005490268179,-323.659739169545,-351.506656777917,-267.871425204537,-335.786984006853
-92.4923174339135,-264.09822566603,-204.435384830496,-125.846919227071,-235.135087592155,-29.5648721325408,-50.6149978290164,-106.98854681634,-51.0382892871686,-70.4426329708677,-57.4221996489293,-74.5499262912716,-57.7713003898048,-48.3927203736849,-26.3390096433793,-20.275823354918,27.6672427693963,63.6479412013725,18.9047078806661,144.817743932841,172.455808501525,174.657006547833,324.471835960399,303.816380613688,302.589677685895,499.668653171181,340.428204777513,467.39805708318,809.42563851377,368.024566176157,752.523687412039,1485.85797120998,1597.15098348075,0,1182.21409076059,852.870300246872,1411.39327852161,580.654248842766,628.143802010052,612.617824248233,914.73022201094,925.515226149953,528.842066293256,186.243133200537,219.406900223268,-23.772471756235,-45.0252649918199,-9.61385726204005,-43.6315606767826,-70.5998701334829,-25.1077560335615,-46.1379380059947,-2.10921422273389,-29.2616423865833,-52.3327327986315,-105.073706818598,-33.2616500476783,-83.9969944658351,-43.4164888547535,-48.2944023936701,-82.7580687361973,-86.6764947452159,-67.627309160165,-91.1338434124981
175.691307986908,37.9143023454346,57.0102487483193,173.369636873731,89.9823507249903,218.864433864033,251.634620112738,224.136690084591,205.500863843096,234.904797691984,276.760884526536,157.62331843201,234.127952341414,284.295462455767,199.13130669687,291.396973156867,244.527171898338,338.880180396773,376.064944157217,285.91928417288,480.517578661318,159.459305199296,483.257956959302,663.403913551143,146.739235630357,638.591253281745,-43.0837784547543,421.09247695525,1578.42769643983,362.031862980304,1015.38071340113,2610.70128936814,2371.23572836959,0,1429.7658106531,2077.74770272827,2489.00019696283,1540.65787030753,746.990698194532,1000.91531633609,1758.11418680716,2000.27364159004,1082.33316775764,1060.12883213176,970.112977880358,225.700034160499,291.047525811649,284.829796142759,294.914847055423,290.651400612169,246.720308214615,289.808053256226,241.423339548081,254.576579762578,262.742270408014,241.158089763943,225.840356136958,245.06890386247,203.308197543722,228.559081000027,231.975311118373,250.268119880498,195.768048427513,233.667445058615
470.835192507863,352.553775358915,349.094793568581,492.175474732695,428.770987934544,489.796992650455,582.85424962249,578.377512277935,487.361369367621,570.41981488241,645.057485774405,406.364202757649,544.683321379704,656.117089511409,408.30599553338,596.998052270815,399.657071941687,559.110035824183,742.231589100035,286.635606614992,692.050881948965,-88.5725151313685,436.778906178306,874.792417487097,-286.295937187409,412.827579959302,-731.537309850786,-90.5830285871132,1889.96291994321,-42.3727979392676,876.160041315648,3637.6389957232,3093.40225336492,0,1091.98254949114,3313.09313502938,3483.30518805446,2573.71516330386,533.280304907197,1351.19539127598,2606.48108602008,3039.41378581194,1616.46190918495,1952.48211092676,1765.12798138465,492.634666767852,650.27138237703,593.68882548776,653.984637317372,668.733911006965,536.337385113015,650.396067803652,499.994410899525,558.708604441597,606.500684652314,614.39866947962,507.45159828919,595.877249234171,469.21237079297,530.076031803549,573.034122477962,610.993383389615,478.74465827736,585.769710488469
724.916006640127,635.834669832505,603.403711137936,771.958069264342,727.905478084428,712.177056596007,865.223657036621,877.030527797366,720.438715585551,855.495853919653,968.262696269025,607.199470196527,798.677058456704,972.710619984369,558.132665374585,827.248491284289,460.019796641424,678.894926543987,1021.82222134745,189.671845270209,762.040370446996,-454.472020538374,264.062886342581,873.698172724509,-739.768360808306,5.0599620723869,-1480.03845639156,-688.547680034085,1713.88279030927,-709.93799885338,580.409408854006,4319.93517151803,3670.45738674719,0,218.602327812824,4170.98652768684,4211.73782168591,3508.73274362934,44.1901791670826,1559.59827557146,3239.48550163025,3917.10038470234,1950.52172521733,2736.52064499479,2502.19952043385,722.53791000223,968.288239893147,852.541495512072,968.607306212669,999.783190019857,783.738546799109,964.003697230717,731.721031522009,828.635146480499,909.712351175221,951.76067652342,752.111948313703,903.628484327364,700.156282752467,796.459996840874,873.596377177889,933.879468105488,723.60900976414,891.641796121247
837.987185425581,789.743472642912,723.659619549386,909.754284374487,884.549754596311,797.577928655663,992.130500304657,1012.78332924637,818.657821788116,984.903795482481,1123.37270999869,689.818787235675,906.373302474301,1114.16082584332,613.051263058333,917.261993432282,440.431630949278,698.750216403523,1124.79595852518,123.331399472897,714.636901888719,-641.366781689673,136.523386860703,709.790207581543,-861.369662274174,-239.831467819369,-1899.9167999068,-877.150878070618,1259.97513055344,-1261.85247573171,460.388041167502,4250.96731692492,3909.21010668263,0,-652.138937656966,4222.17278467553,4506.50712260964,3983.84847618468,-435.633694741347,1573.32203310303,3341.66381247124,4410.36201731311,1897.73216662486,3224.40090734386,2910.15279568961,822.836612964583,1117.99428365765,956.996279003783,1110.9048478007,1159.23558114066,892.091669526883,1107.70256543245,837.865106036002,956.38253023664,1048.93429836397,1119.7466576519,859.37660455838,1050.95161998665,801.672472118337,916.452543358297,1014.56682186037,1092.8940287468,835.851372387633,1031.99822554435
780.008611560792,723.641168392328,682.750311742376,852.16843431085,811.967732125605,738.079387107764,932.867819311216,939.847864597532,777.388983739531,932.69944651626,1062.39461992553,658.024660420697,856.488721805642,1052.47285997741,589.218719019907,872.092613882772,383.630213780256,669.157533518314,1053.99977137012,189.001645177465,639.75571531298,-464.982498874421,184.259351261773,530.905023700903,-511.0451391638,-152.009520883425,-1719.99264367074,-569.186339614617,804.199164432561,-1333.24207786498,500.904341888423,3380.5292776826,3636.52325502283,0,-938.668747315771,3300.33758367971,4401.04255748588,3817.44210637789,-592.201273427499,1388.49743719569,2904.37450627747,4421.62320806735,1476.97961439962,3364.17894650287,2821.30510374491,770.867152224472,1043.8284690566,880.295641785531,1026.39796804936,1080.65304886858,834.61793693737,1034.14956344804,777.635509180603,897.070164471898,979.000830179698,1039.46520010664,802.92830791611,982.326190386516,749.484714443517,852.827305529453,946.523324793138,1022.09588235094,783.651429274831,964.30499318657
640.65813078213,485.215020071718,571.420666745797,681.464933018718,573.428665369591,633.204563739912,788.332647917808,749.315442191487,693.691790923817,804.610068004717,894.443391260797,603.979974319968,760.811814037145,906.967721428023,574.283438060315,807.275647111853,350.606460838887,687.303811095344,957.099668537431,397.060410559162,675.262501785287,-52.7964862547281,445.638808390382,523.370233651091,146.883934847741,209.304234117278,-1009.90948581396,-11.7154681006954,540.870239547672,-763.448519702338,509.931446412767,2280.31998289809,3082.08712537776,0,-566.224533215167,1833.95984847069,4192.88401195877,3244.83365737075,-347.850268230478,1061.1531299802,2323.37047385881,4130.85825022044,955.725258123636,3297.18006828779,2379.36928705067,644.794466753705,834.377354049199,714.951135712244,810.411702131209,850.142014124953,696.547724228457,835.208180260225,639.766158493503,737.648720479126,800.064416141103,795.190423787365,666.597167120439,780.78617057948,631.410589778364,697.06978052436,758.904206309706,810.403469857381,649.749734769578,783.22935649446
492.953531055623,210.623666774157,453.779452651456,493.766883518154,302.479895649389,544.549753886582,644.562743152866,544.34411083955,619.861798648753,677.729696699003,712.566636160998,567.865015969705,686.08500397905,764.0458480366,599.484331019751,779.129204736607,366.379589556749,762.956542221452,911.25995678175,640.66576939211,820.357084666008,326.13981783156,809.241673862578,678.155495916092,804.255961941878,674.53912433466,-144.130632266307,596.716245029468,452.328864679369,203.95665285363,534.812275439208,1484.90860237651,2647.22784166564,0,60.2684565519058,586.194213655924,4083.54177775303,2618.64055400629,65.5380375117068,653.100512160535,1955.74387773908,3757.30726291274,558.055864324053,3120.01665492578,1833.07904873799,496.606257640505,576.240810623125,528.262998540868,552.890691959197,560.885950535967,534.843882213569,586.579862780637,498.185786859218,549.002090752257,585.269372290303,495.793915826677,509.959772370267,532.235095241677,500.477104738255,515.125969161051,531.609475181532,550.798329375118,499.568244830086,562.536145437153
325.882297778413,-2.62083979514583,299.97492173506,301.927437003974,64.4947305236587,441.212703350325,483.61798139441,338.951676660505,514.31521453993,517.891389288744,488.717911294214,502.21075877542,574.341630286571,577.183303645185,594.758303404665,699.885876597204,398.287578878342,776.157611193733,795.643799267164,776.441822263272,867.18368362562,553.891283450454,1025.84270864078,733.830720546103,1186.98778354401,980.653361845308,482.975703666076,1072.04253135271,333.678689852632,959.107422686397,610.184467170747,841.374666674397,2268.44425328864,0,468.2759198333,-166.306174176268,3853.74550296366,2045.10787334585,310.349844106614,133.682461683497,1800.05894651841,3272.90217188514,256.422717704102,2779.48816337342,1276.57085120775,311.467937753396,275.518746483564,304.545462724669,258.548100345305,227.867637394436,329.520130915635,285.824894921661,339.488782898216,318.474380757734,312.696776345453,172.445983674158,321.424958514152,247.564060817653,331.311463874473,293.661017766989,266.391770813372,249.706331545559,319.146836090438,294.436403858029
137.126679718164,-133.569660360789,101.130294727576,104.335417723484,-128.085414141714,302.343987878752,285.46545647953,128.624252172567,352.771309246695,303.052944404134,215.98938355727,382.595570162052,388.621924960844,320.351333455346,509.891156676746,511.713500835792,396.07520579813,649.162458397303,530.591599042386,751.72514449457,681.579499959328,659.718699995332,940.146771730125,516.893262386323,1188.96952565917,920.43811890673,718.234590418894,1169.18664541785,34.5765571597717,1086.45033998161,485.13890991141,-21.7334170162134,1690.11840499706,0,417.689076333357,-775.145353204398,3231.73306245255,1476.95002538502,214.862534406816,-517.279222118265,1686.00469452797,2577.24474145338,-34.6136331062765,2269.9300041609,730.023492295479,91.450841560453,-44.9419725366623,45.7147102757416,-50.310061752312,-109.407762536849,87.1614357263917,-35.2355457847282,150.5712753631,57.7739622492451,5.81088503057189,-139.254816745075,98.5679784489893,-47.6092831323049,123.043928797654,43.7694029740077,-12.4452204294303,-65.0135523905877,104.066443976564,5.87752203813424
-29.8841063757807,-214.457322854941,-77.9381450386689,-63.7358596195017,-262.867588710535,161.870355679717,95.622430114016,-48.1397728509202,181.338715172545,97.9622438361584,-11.5069318153946,243.727403243522,195.911069752479,87.7800575774868,379.511598585405,300.965958587519,336.788557974578,455.394479377868,257.229039339059,626.232830186085,414.695899309124,658.43701333098,692.579163206873,214.651778673291,963.135102227599,652.875009077208,683.091532209355,947.567858522435,-262.21946271257,812.217013645543,131.204867807499,-805.799871403726,1056.80168737402,0,53.3730771577265,-1399.73605355646,2344.76085887258,995.563651868793,-104.492632619166,-1135.90623066148,1544.06644808452,1785.75023184003,-251.965116914092,1715.23081560771,315.087248921311,-112.57514549048,-299.557756013886,-181.959742511717,-294.622488720568,-360.045751965401,-129.964119919257,-285.999462524286,-43.1634343345091,-162.049273526909,-233.550894950622,-366.430946629473,-118.66371392352,-277.933983579517,-78.2461352000173,-173.208602323767,-229.459942577186,-303.209418459913,-98.4260016999187,-218.530475522448
-133.806581025412,-269.052536621109,-168.929647942104,-161.375337469207,-323.804972256514,58.7603382645328,-31.6930768705374,-143.981167259402,61.0446265198111,-19.0294480610825,-109.948414227416,130.281458113683,75.6390392158021,-23.6774322710653,259.654607270845,172.301596164491,241.463792217292,296.437822361625,135.67494277985,477.565077752566,268.501170023075,554.2177916474,509.369659796837,111.887371051367,750.218038707138,515.373366115319,592.438556949846,765.279622284996,-229.449007991401,604.758178624712,-72.7579902901698,-890.467045787193,580.889213894869,0,-256.003844343625,-1659.94555007046,1418.23528541741,763.509598962192,-381.062110210316,-1519.68660472528,1368.31286117249,1090.18285898426,-319.550531191192,1215.10688916552,191.291970368554,-238.155879486208,-411.793713710469,-303.185608707246,-410.665399023627,-464.417787544815,-262.076621710614,-398.934138518722,-200.205270209922,-280.977105514979,-335.971754370396,-460.708030733306,-269.412968018749,-381.844605735466,-218.445723709523,-294.611357714321,-327.601452857874,-398.858533810211,-227.294717395348,-318.81491203364
-170.109224622373,-280.371777546619,-165.236785698188,-185.510356220474,-311.796257259746,-5.46118568036881,-93.2620515973524,-161.587065638688,3.53700028689607,-49.6715818970854,-107.652215285207,58.8445308009885,26.8066447915862,-38.6076104252595,162.700184813997,111.178391336834,149.004390896861,166.651606129483,120.188115142128,321.652818682511,206.221799263158,412.764894093445,379.074356947707,186.484369711462,602.264775200714,507.532892429558,560.463779154814,723.256145803376,75.346093992581,558.529797854718,7.89131374188178,-449.723876162111,159.025672814571,0,-374.839572137355,-1335.1630220352,416.419398959812,742.381304751171,-483.651625800527,-1657.24743018365,1032.41557106933,497.869112457879,-324.818576334179,730.091075321053,354.223617740912,-267.762771615706,-394.624258825822,-309.761169961428,-406.780884813286,-443.373906932149,-295.61228535719,-389.433363552615,-282.509745118037,-297.459512887612,-324.986319400996,-439.395068908271,-314.121717998268,-369.551880776849,-264.142321799564,-301.316315506331,-321.167382730123,-378.131232782062,-255.450179159135,-311.53318989393
-175.062053163584,-249.461338312926,-129.850799081997,-185.154194802143,-269.804942004604,-62.6731497047931,-132.865058241421,-161.07860506664,-35.2058298064779,-69.6274145044015,-104.521403528423,4.51950605333127,-14.0058355827662,-56.7136553474726,65.0337209222106,32.3388697134197,72.686600396365,9.89555912632207,65.011252156776,140.19419788489,75.8379850255964,299.410579013719,159.042008209553,212.565845770546,429.857965243441,386.372081817217,557.770717329731,612.502941081498,250.883967152988,468.800701201886,54.7128327520439,-265.447292337581,-296.243338234528,0,-493.759913584734,-835.13250639089,-624.89371424667,721.245768979785,-502.080769319322,-1639.88723213687,394.639329563424,-80.0848714704922,-411.777170149103,170.22958129957,612.677654826309,-254.657214307388,-344.381502319041,-275.372607753401,-357.345795912115,-383.799240351041,-275.016646538232,-346.68819751762,-292.155787342583,-265.537373766946,-284.15771901585,-381.950250605572,-281.652709429694,-324.061060240929,-243.428945590876,-250.039547364552,-287.908234816085,-337.855724983687,-223.82475846292,-280.053828512638
-193.101616774884,-227.609867452797,-133.061479739298,-214.140381327904,-259.151805044512,-136.138561513216,-191.21011244704,-196.774234398025,-96.5334786015415,-132.629290319818,-160.046971586505,-66.771913138232,-91.483671908013,-130.292822131221,-44.7675010655744,-91.5817037005846,-2.62469472897633,-161.322629505639,-65.9533290534072,-42.6663099219453,-124.758193798004,206.244464423196,-115.817491180982,113.217409944945,223.656276914201,140.571154359889,502.496574181376,363.763805276504,126.125559698711,245.901591103678,-133.233309834245,-577.378974172823,-678.416240330237,0,-733.67464453329,-655.84200213685,-1385.95146698747,610.188730799184,-545.428400543811,-1506.38887545033,-390.300894329667,-617.172072107285,-590.939016202984,-427.140841492158,799.624563620477,-258.468655075112,-336.492099322142,-270.916239122452,-335.372312912695,-365.141843703209,-260.581351003162,-344.326808516232,-276.666635501276,-249.003856760863,-279.658910118213,-365.35786442493,-244.478958511018,-321.471337436884,-225.770258408512,-227.769788613775,-293.039539652104,-347.077289069776,-208.025455025056,-293.458695382907
-247.149666945644,-262.347692118108,-186.501183885275,-285.360027371394,-308.271429570404,-226.967990528159,-279.025749390067,-279.451186488495,-184.816475222813,-235.455007651911,-267.148965542617,-161.956748536353,-203.058024850258,-248.593169203761,-158.98272788066,-228.646588850844,-99.1195080227638,-298.580573224525,-228.252817015949,-179.107579861651,-302.624332872939,97.0547834960619,-301.55939034169,-65.3932350713999,28.2038026094655,-83.9706009118746,353.394173770278,61.3501075700101,-174.240465690798,-43.6601468698463,-446.98273525422,-1039.94124347375,-971.544470219797,0,-995.672934009552,-847.897337215495,-1766.15998123308,417.187318834861,-614.794532321765,-1338.08728038151,-1015.90383832401,-1044.71308755168,-790.769633742936,-945.213228220048,866.969438465094,-291.437460447032,-376.292032895287,-310.568538166854,-363.416233710168,-405.30153764822,-283.663961066189,-388.218210255337,-288.233538411058,-278.922206548754,-324.891851977685,-405.36173593245,-255.292741663813,-370.091108207174,-252.499267666206,-270.206485918281,-343.310723149724,-402.287876658965,-246.740613991581,-352.813400530143
-327.548165871224,-339.187560753382,-254.264810868172,-376.859449900506,-390.536793467,-324.807447973532,-383.263751861224,-386.725656749486,-284.05982114219,-353.066159947687,-394.958962935094,-262.214998912594,-323.360928434707,-384.725275646537,-267.844053531966,-359.947312214248,-215.145330419883,-402.375011325953,-407.13781970035,-272.477456682115,-447.384315943313,-23.7674005875616,-404.944174468468,-326.340180217846,-175.111183771368,-313.819818729101,148.165364515473,-309.174486869777,-598.646747229653,-336.905834662934,-821.454355071104,-1461.34354774588,-1273.69688326299,0,-1200.45368789909,-1224.61136511097,-2063.50951010559,76.956124217381,-674.836544076786,-1297.13007749071,-1428.52352294984,-1405.76577555656,-993.822434993788,-1366.19979510888,767.712079664266,-340.996654938782,-446.61824069897,-379.666462204253,-426.839367821627,-476.78946119207,-340.551207852631,-455.370633022665,-341.56206081841,-344.30669678045,-399.540753424727,-473.577532571851,-315.978441405787,-437.717762335649,-315.962203359484,-346.915091706589,-414.288928394609,-474.402303164371,-319.485325919235,-428.04562946116
-397.073295731035,-397.109709049157,-303.551130743795,-453.164220543925,-450.863479991113,-401.823519623178,-473.628219552772,-476.99760244789,-369.185417677713,-451.533454589945,-504.740290408135,-339.846047564538,-423.046745267529,-501.554307854489,-355.338824563849,-475.442550952599,-308.638067891775,-490.896386447569,-577.363327669114,-353.166372613378,-579.215433194025,-113.564905100999,-514.770274563965,-616.411404712848,-377.181317652073,-595.026845311405,-4.76204772299264,-718.667371863495,-1097.9972755243,-559.947196950188,-1240.66616566053,-1803.2914088047,-1521.14463249256,0,-1353.66455648776,-1612.1986621616,-2384.23120078301,-406.747193889115,-695.023288551716,-1394.81385202686,-1724.93429510776,-1743.58586348822,-1182.4669794069,-1716.46639592042,450.439946325681,-390.201954050429,-523.946789244063,-449.386137600966,-493.132589169449,-540.967324328275,-398.360901994698,-520.98308974806,-402.9249769714,-405.292980563998,-466.974304445781,-535.556733850141,-381.612275773965,-493.285554789161,-381.409380348953,-408.735758480961,-474.752820270492,-539.112419858082,-382.226626732311,-493.313181913836
-440.344711518327,-414.741400701676,-334.211063849522,-500.618039364318,-475.079559539576,-446.560288994582,-534.650592319112,-531.120666973189,-430.501193906221,-515.290468790009,-577.583600427281,-395.761817655902,-497.626879711916,-578.58431954646,-424.111130121819,-565.828457457673,-361.923791386793,-567.861364372287,-692.51338327855,-434.069553671488,-674.437153872328,-167.216628768815,-624.86649956612,-793.194072326049,-501.609758561721,-788.24623499072,-31.9720447352042,-963.594138641041,-1440.76088741593,-646.572014730316,-1527.56333954753,-1934.03059961795,-1548.64174042943,0,-1421.76913000294,-1829.48964601017,-2494.86769722151,-867.308610634495,-659.971234468855,-1432.98132191966,-1880.26550821252,-1979.5501865261,-1276.88412210668,-1943.21340139145,-20.6609978327194,-427.561138587483,-577.291886923951,-491.681684735985,-537.174351290898,-580.002323051535,-431.974733750617,-566.272761575291,-441.543744182424,-436.581978171635,-504.268284120423,-574.700491768122,-416.305298896376,-529.229664428308,-424.895879678221,-441.007393569654,-505.620241696683,-584.739209766389,-419.118742976817,-538.375016930967
-476.899273442132,-425.910692426463,-361.385201882478,-533.664529716819,-492.701347631019,-484.867422827046,-578.288512817658,-565.463688844893,-486.134209348627,-562.344492434823,-625.739895252996,-456.409626305898,-564.248596181427,-631.581152424295,-501.138214776736,-641.323299028339,-418.74805125137,-643.459324361396,-759.567035100984,-524.934152297631,-733.593815986901,-238.833958640838,-695.645011155915,-829.48545226576,-541.839912219593,-794.675853373669,13.6433113832098,-937.208187899022,-1474.92614178757,-635.07835374093,-1518.1231633629,-1840.55511941834,-1372.71514347336,0,-1346.70514497509,-1766.45246350306,-2341.78090044616,-1146.34278242826,-595.819392753343,-1266.74541388142,-1861.12000342733,-2039.48537658836,-1228.53962101758,-1997.41457420437,-472.419856891112,-452.388273651388,-592.963569413166,-505.613173644276,-558.248640400694,-597.071914692447,-448.706804605774,-585.064999919583,-465.98603158145,-449.068842009986,-517.577497280436,-590.028377793933,-431.725137192469,-552.251742312375,-447.941108173526,-457.671760231045,-511.994556849868,-611.156303309703,-441.772106727486,-566.439964580985
-511.514924116802,-441.031009737076,-389.563024246368,-557.641476165561,-507.86454373535,-529.189661960282,-611.91865254866,-588.866784177712,-547.579535047082,-606.214133668201,-655.778035124176,-525.134276948009,-623.516391973772,-672.955368140569,-590.743814344229,-711.66832719709,-508.707262428883,-719.380067317993,-813.257073666294,-624.847744371062,-781.812917990182,-358.938348009038,-728.000472363215,-818.096376783766,-559.408618500504,-708.078048198383,36.7306415938934,-775.140240410727,-1296.73856213694,-585.744286433062,-1276.85190083533,-1634.31487064432,-1158.93886507673,0,-1126.29631311725,-1472.86735001643,-2128.3889733253,-1200.28323883702,-518.280838939147,-951.634775932625,-1741.1411827057,-1966.76622107585,-1085.82516103203,-1926.0717047085,-754.814780054234,-466.439237103805,-579.679921648699,-507.00796164735,-560.69497045128,-590.782780167445,-462.603056457314,-579.516292880873,-490.808669740447,-463.686880854327,-519.201764324633,-580.567247970284,-450.268963744937,-559.106313874614,-459.229893388748,-469.798118877763,-511.160131934197,-614.122264253224,-456.678849221715,-576.687272854255
-517.813250520642,-424.583564949908,-404.047356595286,-553.43983536998,-488.074899179179,-552.752555962907,-621.299973250622,-582.398273723055,-591.646610387219,-628.165612255373,-653.146125726671,-575.496015799845,-654.65972020026,-686.06191625376,-660.199042007457,-753.140764583017,-594.304522798383,-760.507431744805,-834.800451251628,-693.642959364106,-783.817626033103,-477.317272010946,-698.32579380139,-769.139436492024,-546.980765889832,-605.995647158245,32.2587608387158,-620.172649181122,-1019.03044429148,-470.730659093602,-953.162765897755,-1293.10173238537,-996.305114790361,0,-798.478401447403,-1052.87902302335,-1933.8496310351,-1085.19632015662,-373.75196595828,-609.784196847735,-1561.60172285103,-1828.47553145131,-909.678264941346,-1783.86899869025,-844.199677982427,-457.142493396471,-537.272164456299,-489.271959510795,-531.552365556222,-546.260135715678,-462.361848353872,-547.059860666066,-501.091902482311,-472.988122473398,-501.839062225589,-536.029523310696,-460.137513844454,-531.472782938581,-454.504667338615,-470.750337552015,-501.843251882529,-576.529298249959,-455.534203720183,-553.304434931439
-479.376331267296,-360.441645532169,-380.202005568351,-508.410654141364,-421.922622203522,-530.220823420896,-589.384153728955,-531.62546047831,-585.554405409784,-601.705666044025,-610.370052177602,-579.737324333018,-639.77881211969,-652.852382308952,-669.704729122561,-728.429396482798,-614.169481439056,-725.129897737219,-787.496227372593,-677.013958252658,-690.516595374911,-499.703666608553,-576.07496910572,-637.512428781994,-459.292245523759,-465.500620154977,64.4027713132567,-493.097323291914,-691.504416956589,-295.856291866923,-638.010064064303,-823.40879449279,-878.989893899144,0,-440.673182548695,-608.589502676298,-1704.56358640105,-936.384714751242,-139.422869369959,-306.945549936714,-1309.19380609161,-1651.89094783978,-713.021371696801,-1583.79355433542,-847.153881050821,-408.51189815749,-458.129306796719,-433.367096648671,-462.03868840899,-461.191284956962,-427.114674877194,-481.124390801139,-472.386796038166,-446.984825702213,-449.634316486787,-451.348373779424,-433.736859749057,-460.773965392326,-421.728521895903,-441.014157554817,-460.670232647588,-490.893079410467,-427.305201738412,-486.687005156114
-428.367952862732,-294.698187708933,-327.563468046834,-454.669115393551,-355.47135473553,-481.910063392084,-535.191048451409,-469.388397127681,-541.649768074842,-546.188960502661,-559.196343438843,-541.361973644745,-593.661815609186,-596.810210746772,-613.227539704232,-655.974486552148,-550.173354160914,-630.242782750273,-711.113399972378,-573.439037083743,-561.610764706804,-387.364635074693,-427.881470379229,-510.894183719751,-345.877781580665,-341.44113705894,144.458378388146,-438.377360313302,-466.932273753436,-201.61486248788,-450.913947818961,-497.563374441826,-832.694880027929,0,-199.319340152981,-308.436041983591,-1504.4410134579,-924.457740851956,59.8711497818726,-99.3537603447308,-1061.25099246528,-1508.42588049502,-538.560144275661,-1394.97054501954,-907.240660260886,-350.719074823181,-381.551882987878,-368.954799507469,-392.518874949396,-383.50071145685,-381.644410776599,-410.800306967666,-424.370661198238,-399.574144957683,-388.60020494546,-368.242905901577,-387.067216505206,-389.048935115696,-380.965741129225,-394.976766481493,-403.046372381106,-404.374902054341,-389.046711045745,-415.038682921381
-403.33281898717,-269.227438151014,-284.464450064566,-428.703729875849,-330.631230791568,-445.179608362576,-495.508046527169,-438.611089303437,-500.101127834937,-508.704098169346,-534.867323453968,-491.009075968388,-549.82296854763,-560.848016793553,-524.879183038444,-597.61588779743,-434.489681901105,-534.505392592452,-676.428300116603,-434.363552747587,-498.077461372329,-209.944627449346,-345.299056986104,-523.687860223615,-282.331874625361,-338.958536589707,223.567039577266,-510.082326492769,-497.783968273741,-248.798324610807,-484.91524131321,-500.661292795367,-878.353607053407,0,-149.901681098058,-261.132581311332,-1402.67221376071,-1112.31089264663,109.650936072993,-30.9060084479195,-928.55445098559,-1461.34154006819,-456.17755991707,-1303.28908038825,-1061.3365679709,-331.111329974945,-360.792706232388,-347.861385303628,-369.204919063995,-358.69338242409,-366.469006205887,-382.039507052635,-400.949222199118,-377.901105897741,-363.920219799361,-336.566264735133,-360.078568875801,-363.265659012034,-367.481894186043,-371.071781315657,-376.318822979891,-374.287014313046,-369.893551632016,-385.898597961544
-392.352610373811,-259.209886964477,-258.279139744905,-412.342590861839,-323.148757024472,-420.116868289299,-468.812699272076,-426.768895618671,-469.257338586986,-493.932296635472,-525.820771126435,-448.113609458285,-518.492819746506,-548.616691691266,-445.187949670671,-571.267065134974,-317.995636294538,-467.521140937036,-682.560593215318,-309.650963082899,-506.074746644101,-71.4214079548953,-317.876087282583,-657.649434844209,-242.690776582717,-424.516314930801,276.841035414089,-610.516035851686,-688.69125361866,-275.700418505252,-619.803368529386,-602.904271602202,-932.231127736271,0,-174.795790785361,-333.6390587757,-1250.0416026996,-1356.02852196204,96.193683456149,-47.874752811854,-881.361369903898,-1412.07943338935,-444.329239309258,-1251.90088511862,-1206.96406014206,-333.403167877264,-369.928469829039,-358.151554096832,-366.385947691558,-354.612299229596,-363.040311855225,-380.889776465704,-397.579056510654,-376.308937715601,-361.602475441936,-331.488318560357,-347.22169818064,-355.880729542989,-367.463792491583,-362.729217749374,-372.296008155036,-375.487512097839,-359.474951334919,-381.438208178109
-364.640510739276,-227.713206986693,-230.598386879652,-375.103683853992,-293.310974864119,-388.374284561179,-432.555585465739,-398.24674689182,-438.942035786356,-474.175911298631,-504.723757519043,-414.671648313361,-491.990405025344,-532.358745218862,-396.862959578519,-551.186209384073,-247.59345059563,-427.872689403956,-689.160799089069,-234.81389023723,-539.947200644242,-16.6733951865808,-305.471968288415,-804.375340863522,-188.15618772472,-487.9925644138,293.069298538907,-591.948309626433,-814.395045959048,-164.019434687512,-637.495001594025,-541.250144084665,-901.946227293636,0,-134.816722423452,-327.913208376306,-887.057642886826,-1466.23674450849,148.542598095793,-53.7684042090718,-810.8085895108,-1212.30457364825,-413.982908696587,-1105.31310692661,-1252.72662062414,-305.641728132314,-339.370806206673,-340.759530226841,-328.626386956889,-314.790177666372,-329.233394165353,-351.956324498664,-373.882967335149,-350.605933116954,-332.180787781534,-293.703005114297,-315.940607290423,-313.606263363189,-339.630443165509,-334.808426412973,-340.306128003488,-340.951708382236,-326.220940549072,-351.624804560501
-302.77280816891,-162.077914360165,-181.343215606141,-310.622547488372,-224.717116842312,-336.382666109679,-370.417984382453,-336.164885802573,-394.656630534062,-425.950829347501,-451.878809155275,-372.659173477881,-449.29907674978,-485.191879958642,-363.706670517362,-511.733483499606,-220.785982112637,-395.060986023864,-667.668098386861,-215.464316712979,-558.325810091094,-26.1915735125416,-303.993310503563,-878.630744344764,-154.270569944099,-483.069688914801,235.518635626914,-450.099184142218,-789.72128802094,-30.4225200327098,-481.745772276003,-406.006492094368,-811.593315493502,0,-27.4012935842203,-235.705422671978,-440.149617419048,-1393.44387706004,238.689357700432,-10.856864468775,-693.254686400881,-883.781566346324,-327.216231673671,-840.360882042392,-1209.55434868379,-229.089366248486,-244.003179619949,-261.502448686378,-236.977550044696,-221.870186376655,-252.541849053757,-265.153136207757,-305.780871132824,-278.881923572305,-251.051998040366,-200.514504824812,-247.478090004419,-222.79594956659,-267.226841795095,-265.611875496593,-256.022252449123,-245.905911355449,-254.734885510387,-271.361057983194
-203.005560681224,-55.2694831259339,-93.930508914592,-214.918098891655,-112.744311981723,-251.346291403876,-271.938152000518,-237.49708269901,-313.841217583514,-336.536294377684,-353.481590871094,-292.836425713902,-363.32906275301,-397.112430742063,-304.635896416634,-439.125360415849,-185.13545465621,-338.721139378658,-596.825651032089,-214.816640445312,-516.054086768484,-65.2469892508621,-295.432300041864,-828.71255306887,-171.998569284954,-418.901232694234,90.2941987876039,-287.078848358556,-672.920438829833,-20.011166381911,-270.384600397805,-385.999105925997,-764.903810596462,0,86.7169960774231,-150.446877344488,-191.828132879096,-1195.80435723849,275.935818469097,66.615865661172,-586.188866598956,-581.91606969892,-208.527325828983,-547.236221477111,-1113.50134254733,-123.49313531538,-108.293917216173,-138.223522587262,-107.161735960546,-87.278736427305,-144.623934236036,-131.432502786084,-198.981611880353,-168.468032670773,-125.397491975486,-63.2101338899564,-141.851442174418,-96.5834043044269,-162.621175640737,-153.046228043346,-132.941261347136,-107.302482054771,-148.512513028316,-145.375411405383
-93.9189407125866,70.8360034725884,8.60996839714803,-102.850854662273,15.3492685576511,-153.127469000323,-162.911800651038,-130.027347033939,-212.362420902371,-228.635343580402,-236.683817230177,-192.017622840941,-255.011127691402,-295.330978913971,-223.30146659638,-351.662891329225,-128.493500587214,-271.51143773337,-494.380827660804,-210.654932513078,-426.069338939646,-114.671839380825,-276.813582663191,-691.378787850654,-226.438088206887,-345.554071723319,-89.7913184151635,-191.943196992812,-525.203693594893,-100.741822997189,-144.764840245955,-446.711138646396,-843.331339971921,0,148.893615949039,-93.0178818837862,-259.255459281925,-974.530111749361,251.822164022117,121.990157001212,-539.857665324639,-422.668205078023,-109.430317365296,-309.271565476519,-983.25491561351,-25.9208696621199,20.4129922417649,-23.6762206108069,18.4404620689505,50.8725159747212,-42.4816866089182,3.48642215581077,-91.3707886446271,-56.2043897413212,1.45242082931614,77.9771354885684,-33.5150203858951,28.9489283845059,-62.4614483986691,-35.6897209900092,-12.2372709576542,31.3874846846046,-39.0092650865346,-14.516261116322
-9.92395040433995,175.090088262821,82.9343219249235,-7.5595004132219,120.530150074411,-83.0569192506295,-86.5103020064473,-52.5657991464778,-133.626146951344,-142.230411219828,-147.052487173689,-119.860059825035,-173.511303233777,-214.040780015375,-165.337203542655,-280.018229881408,-90.6866574863243,-237.075873757315,-406.13636348483,-220.530100646391,-361.634540841151,-160.127628164152,-293.196954409097,-562.590215207304,-297.926068807863,-326.602320446599,-220.134744293814,-195.511944089066,-367.445636590062,-148.568802380459,-155.993227039145,-470.45466676069,-1035.07632810519,0,110.00379518549,-52.8283591041124,-516.905646931139,-848.515430440312,216.868994721754,82.1479579722246,-573.323100284923,-418.186778077719,-88.1798428115307,-164.468162734327,-855.494434839319,42.3144085867433,111.176661480658,51.3214964342074,108.548638284948,155.21765185094,25.523595361363,102.673702874423,-15.7159873200353,23.4874178900135,88.2989255109114,183.972823702126,39.7619430525391,120.90146353071,8.42416224828663,42.4764701215045,76.5521060557112,132.705823756857,40.1434574885457,81.3130642211619
40.2757719218941,240.27818019566,120.855134282739,50.8061953139463,191.276759795885,-51.2786317892873,-52.2198428403489,-13.9515840026312,-90.4019250977515,-91.5634015820789,-96.6137180354854,-88.1103230410872,-129.514070498591,-161.616100433345,-150.937203409129,-235.418168375422,-93.7378903985181,-249.248564492291,-350.31844379422,-265.986923505557,-361.7366904536,-202.462562803562,-377.752148193471,-482.948155578821,-389.994127701065,-389.899288871453,-270.525536438416,-294.658478307639,-259.82371091748,-151.349368725337,-271.749279913878,-519.642245467222,-1269.75800197711,0,-39.1788528761603,-87.5532924030248,-801.505921205905,-890.541032066267,172.548035229626,-54.2213433265552,-698.242355126606,-543.613140897107,-172.667777299368,-147.720892019361,-803.904394211242,76.5302124986201,161.66943170365,90.0445827751598,161.530006231202,215.337535408009,65.3703174837719,160.661344573201,27.481476158328,66.9823254333248,134.002453152753,244.235498440775,75.1253327739314,173.939151183864,53.5544812096963,80.242480248785,132.280681475444,189.880026848814,81.0776689745348,138.925467808887
37.6207710120017,249.523039805596,117.126602223162,48.7800259491603,207.450887276509,-60.4316081604801,-65.3371649609805,-22.4061944578121,-91.6273914649418,-91.9511806377796,-98.3236680860132,-92.9977501508232,-129.685215958006,-158.778791263325,-181.324914678687,-240.588585051823,-144.109324117098,-307.756448914734,-343.820981519973,-358.340305625219,-427.219010001645,-276.05284657843,-524.652745725189,-474.259738623161,-516.184811780423,-544.572138649661,-292.68042309905,-480.298759102978,-346.043840927665,-218.111405909477,-470.340841212808,-775.093936438625,-1521.76412355248,0,-279.20599444142,-298.430522896541,-1103.68733027474,-1099.91463414409,52.5631169595238,-224.947948812141,-919.968250325815,-810.076447133262,-346.991354468506,-295.718215793734,-909.46463504486,57.3731788227019,150.273382726497,76.1154124058341,151.511795788947,205.849383303708,60.3587500996155,152.67004229579,23.1693028566685,57.9115381273662,125.742463762723,237.000797185259,62.7008724061189,165.794293051414,53.4857163085124,70.2385924285778,130.09746985239,183.538353821979,67.6728216361271,141.901306987296
-30.1653895367583,191.25768670425,59.609297661835,-21.4898536664562,146.723510473279,-117.888908873347,-133.332807518082,-87.3335459715369,-149.815671471747,-155.451565675306,-166.361208106514,-140.355216124755,-190.054760520583,-224.343987555827,-249.704433651004,-311.172720057627,-234.106420048252,-402.029686593597,-408.172167130419,-466.237515006421,-540.416400152186,-369.969075550655,-677.17358349643,-568.733362914628,-619.349210193328,-738.794349765017,-289.481125038397,-656.778872783475,-680.9683597679,-348.601463438539,-704.991775933063,-1262.88465131337,-1800.83634482983,0,-548.692718977635,-715.797011566102,-1489.98180789674,-1432.43206207653,-130.61748323403,-391.605204863671,-1211.22289881037,-1218.42675614424,-567.930194085365,-586.819221069706,-1179.24889247221,-15.19285333148,59.4087122849919,-4.17779074900572,56.3439328145727,106.914098283831,-12.6765369528022,60.1072723718585,-43.0338130416265,-17.7543762634367,45.8913859750681,147.66651436341,-9.69596705171186,78.6714417843325,-10.7200410468957,-2.59746152195668,48.9714860502604,98.3211897372277,-6.13820965300317,67.7867754266668
-127.104041663426,91.3460663596304,-27.7969300260222,-121.05709347926,34.1881465066132,-199.39336340947,-230.113743869888,-187.621447451431,-237.706191472851,-251.364694344662,-272.705549888991,-210.562973230161,-284.168872005806,-328.294919658287,-318.849065329084,-408.254393099574,-318.803309635781,-486.598068951153,-518.723624619378,-511.72908030222,-643.524879482686,-379.827224531746,-734.451038496915,-712.288221776205,-565.325387754181,-811.467436156131,-144.938099200777,-626.465858451906,-1070.70529427797,-365.485360779859,-814.453241082945,-1822.54539044477,-2094.57040850424,0,-692.653886243365,-1264.4436025231,-1940.4089035865,-1847.4026230503,-226.297266199214,-548.173305493535,-1533.4058410818,-1705.7189522508,-793.922315548577,-953.251382822471,-1543.6539318518,-104.595788756196,-73.1555330470276,-117.945671354667,-82.3451874010038,-39.8169807134784,-117.097528643636,-72.0267136058848,-131.850023720296,-122.107009379512,-70.5861299863849,14.8020013785724,-108.533732403969,-47.087785110516,-100.078082237149,-104.864805413964,-69.075572458015,-26.6561770505049,-97.7557803103839,-51.610045334465
-230.0514907378,-37.074954954671,-124.88792981569,-228.856203765131,-102.586427113042,-283.505090645117,-337.877113163909,-309.798926905676,-326.03385242469,-358.501411572328,-399.037583173311,-282.969527528893,-381.267891079321,-447.906047815008,-365.739552955155,-498.340791639243,-365.559963644703,-533.588485004549,-638.881902789691,-468.988894828635,-690.919086410891,-245.020283269081,-661.40324107861,-796.438470006809,-323.815505300171,-661.144220550109,178.516713776981,-326.888241157472,-1259.74375281967,-172.669930012038,-694.147880371177,-2322.17167773625,-2400.25243650313,0,-570.961259552702,-1856.11721903423,-2371.65686582681,-2331.03042827432,-139.543885516273,-694.971614216558,-1863.84309214546,-2204.48233513984,-1006.57174220959,-1357.29579428157,-1952.38577437515,-203.84278978233,-219.936636009163,-242.12550283138,-231.125183661963,-198.203763163414,-220.406584290544,-211.769516046035,-216.691099830311,-230.835621231331,-200.036601916384,-136.725304225756,-206.799226699666,-183.318262584856,-186.511855483078,-208.312646300768,-194.023812734289,-165.355198032553,-186.234050624406,-184.781935114314
-337.647365298637,-183.356761056877,-229.23376874937,-345.638436869339,-247.356995382108,-364.051208225241,-451.156249533182,-441.154337815474,-407.736979676732,-476.230741186795,-543.125966996684,-351.552510698682,-473.762664711461,-580.487283275226,-399.082429760462,-577.737359463419,-371.108127440211,-548.929645431099,-745.695594893164,-390.49349065425,-680.943328313171,-51.5458773053374,-524.691017598069,-770.473037556407,-53.9881327552601,-384.870873277717,504.82583994499,37.0503338981083,-1182.3519673985,111.549060563781,-469.603003485282,-2658.29355134137,-2683.82878203021,0,-229.820819529808,-2363.59171051986,-2681.13931676991,-2787.44699527671,50.8402835586995,-810.321298870051,-2108.79774595098,-2633.17540802259,-1146.48839342239,-1735.40088424011,-2334.77841563376,-313.398503588039,-376.946033613066,-367.372792703447,-385.294504698751,-363.671694694014,-328.158457401054,-364.037759743061,-310.363451475951,-350.590395024051,-349.175672825902,-306.015201095768,-307.511976155363,-333.561594776076,-279.918393730486,-318.819212823871,-331.644615059999,-323.365401667286,-286.361238665863,-330.286590285407
-390.160077060594,-266.968616616251,-288.700004445262,-410.872369159925,-329.126546270163,-390.659423000893,-507.364893876288,-505.231121720787,-442.077127238187,-542.212673856797,-629.907065979042,-375.314065321362,-513.613332484843,-655.749530083999,-395.419298356266,-598.153940554119,-319.958626787636,-510.785329745061,-771.980431543292,-310.305352664662,-594.4681163378,69.6561495071048,-373.648800088907,-623.081158658814,79.7590382294622,-126.743702277092,646.411570800284,244.560149141449,-911.817437209002,342.496518704351,-296.99804743605,-2634.81692998298,-2783.87757647753,0,154.11814998874,-2508.34421690996,-2730.40439536601,-2966.24549852775,228.841835441099,-817.983567379134,-2073.04609988416,-2823.61446719124,-1077.73434218553,-1930.12543590181,-2511.00717901396,-368.427666341327,-473.033911584329,-426.826735421692,-473.981949332841,-467.471197504659,-394.60927566607,-463.311243901037,-368.648945416077,-424.207342454483,-449.881006024437,-416.047332125625,-366.03636578856,-432.325979778823,-336.335695446057,-388.669971042717,-421.320312029888,-434.853592018881,-351.315472254744,-427.796865042035
-334.14796476037,-238.974094733837,-254.419611786619,-366.677392568789,-293.004990114553,-325.469052174295,-451.0652127135,-442.975701118192,-390.820016266826,-488.626279996747,-576.087873445433,-323.261900323665,-453.397585781557,-592.997931139662,-332.161074811767,-513.769171454671,-232.264618951909,-411.383273471101,-660.850486296991,-242.599905544458,-426.37491099931,53.0805794888803,-224.032433213947,-382.441105162412,51.0316609639091,53.8132805753134,596.441061586375,281.778487112897,-538.585697643069,471.989040719734,-157.409027560336,-2181.19477060899,-2569.2973733816,0,437.236622088176,-2071.6994231223,-2500.76734555546,-2721.50612545377,341.977469057228,-656.60632381551,-1687.55929064286,-2674.864106223,-751.12336391702,-1855.2856024138,-2354.79176025843,-318.360969301896,-426.080727108883,-361.84726766183,-414.783909959002,-420.887199737349,-351.572856426246,-416.732716739064,-323.662076197553,-379.633797444095,-407.428587602004,-373.175138178429,-323.769160212756,-391.199338403413,-294.769704208952,-347.179104899038,-379.855208285488,-402.985934664183,-312.910519026072,-391.800259039279
-232.433714679247,-191.97779204138,-181.020612409562,-268.250246438698,-209.531551648499,-234.447807977912,-340.44368476481,-322.941357753463,-300.597991465859,-362.493305215969,-424.921969404739,-251.19170150872,-342.889448360749,-440.311183920871,-267.404329035328,-387.397867995551,-193.766121542371,-325.588387300797,-482.402646509127,-240.578129651595,-269.216931848389,-93.7297572546928,-145.775717214168,-168.936010086983,-96.7776775523173,111.41086096292,426.791297541514,211.150200241219,-173.61924317756,447.69276251795,12.0098738288529,-1543.6325508848,-2173.88112862311,0,540.261985053386,-1221.14955820642,-2220.37421679882,-2251.26634449187,349.684058112138,-368.397811817144,-1164.31322856498,-2341.86007601767,-312.767216574966,-1630.92064547288,-1961.84120238973,-211.702588605159,-269.055567766865,-224.360186439487,-251.831666375149,-256.3589258049,-229.233155609689,-253.226484479071,-210.873652235047,-256.297262770309,-250.125288173977,-216.131903359429,-216.322112834897,-242.399342233128,-193.190321974938,-226.237375546882,-240.299706621977,-247.664806756033,-206.646483860038,-246.069045453534
-145.222786313474,-182.091142984074,-123.887811520202,-173.863166602907,-140.337911972786,-171.961403919205,-237.231480982775,-213.38258354752,-214.188302845232,-231.520435981236,-251.899822516361,-200.409566141355,-236.982361856153,-279.790279831363,-238.52417516086,-284.599341859906,-212.302122120129,-289.324825730326,-327.000508269876,-295.909676319081,-195.198215844155,-269.119622797,-171.134551758118,-67.3264096122483,-280.733500580427,38.2292135361746,187.205109200896,59.3358181922734,119.62716472693,221.806956370159,197.539422303798,-945.219716162037,-1815.51680838609,0,480.491265812021,-325.654892739081,-2068.83297891293,-1820.35514657845,242.426448256644,-6.00055145302031,-741.911553626928,-2022.02506376372,92.0476822610588,-1382.23045348175,-1487.22202362704,-94.0208665011468,-75.3295680091545,-80.1543755643055,-72.3547866914838,-59.6066301896202,-95.183098464104,-60.6614825805436,-94.8923068964864,-120.73058291295,-66.6928794759246,-34.7963594223489,-102.957548301963,-72.5697050900031,-91.3905767153852,-96.6433722583458,-81.7160474074178,-53.4660663616541,-98.3512128830819,-70.018540853038
-17.2628019629365,-92.4756518109373,-32.9122744343742,-31.4627588381871,-11.0830138772754,-73.3428450325278,-91.450545715618,-54.8156177744197,-83.4716738723171,-65.3671106257862,-39.650764041087,-108.286498377411,-91.6760457214866,-84.7980468118584,-165.26785815201,-146.224650380023,-161.713008725035,-204.146371940571,-153.076587404245,-267.928833439878,-120.627375942394,-307.773104950346,-172.34043223714,9.98063545889523,-351.206656460344,-31.2658841672778,-34.362746385256,-71.1502968226709,400.272423814271,-72.5247368567946,395.984033413324,-302.777984154627,-1471.24791260662,0,427.504569850558,466.146384183642,-1888.80232924227,-1420.42151065376,119.360061858695,463.913379448572,-425.957331962446,-1672.03126340163,476.570014018451,-1070.8216083958,-972.057981460425,57.6446063014754,146.064786855801,88.5627111872053,127.973916138073,159.992892755365,60.7700343834039,147.970837946286,51.1401846983383,44.8800261162036,125.921406513975,168.583814404537,39.0747042419123,113.657465664651,38.4366865418774,53.4825661350774,98.0875292476717,160.678762128839,36.085282768451,123.718000638785
168.622854056939,136.963742389837,110.804923022019,179.122263157271,211.903511391066,94.4551250447732,117.284810818844,180.829093227292,98.9356963877607,145.630912388414,206.366027588871,52.935652297888,108.023003089889,156.186583492138,-3.63612804882069,67.8766874094545,10.736560231851,-11.9836127618529,81.4888600054324,-79.4653851054639,42.8257685544233,-163.799907536071,-30.3571673265524,165.582376308118,-223.375054029916,45.0013449542441,-146.495806224022,-38.3051661151426,708.005226136889,-183.931640144848,636.534386639194,459.998291369201,-1014.68773691797,0,540.662874245538,1198.19450491921,-1461.49389451832,-973.687662843666,101.37604712429,1038.96012243198,-136.516521969152,-1190.10941309803,858.363374208848,-678.838022734863,-452.130632007851,226.046758887797,371.515831396806,276.837794039711,351.212929360471,392.87299682305,242.39130003357,362.949194519675,239.214425796527,238.629484576559,320.399905480227,389.222357526132,218.965621884799,319.917132454899,209.806032619353,234.178774984082,297.176200108454,379.261973901092,210.801367492559,324.039437664779
303.048261636067,349.178304216837,212.058041537865,346.749248007284,396.091138423292,230.021020857923,281.740030404239,370.46297191373,231.227541067466,302.133630797239,377.629641847713,187.726126008062,260.514656219998,334.15152430988,146.522720553539,250.092234411372,180.629405112218,178.085808578257,277.44535591085,142.080492030659,224.414364600705,17.3075603095751,174.013387316662,339.725963062203,1.01865943582229,216.469590663362,-161.839799552454,135.785698137658,933.599626125785,-54.9983813736306,885.917113806187,1108.23548885491,-513.51799039243,0,773.019603108714,1810.26436963754,-858.439079280421,-615.221693852206,195.324721383552,1588.24895472447,89.1856887835035,-679.123624528111,1138.53350779127,-329.374067106223,-52.6023176228825,335.699435374688,521.140821051973,404.749371564376,511.193395780947,556.293398065309,372.410212333969,506.614759077378,381.400210645814,376.450344779597,449.603039616631,540.595115782565,358.654535722811,471.69412570709,341.779301120397,369.398098708769,434.457789616134,521.53261402492,342.011009660285,454.945078605032
316.358245510057,388.563898621613,214.682799195774,378.997796779058,423.46539118803,252.879159715284,321.049394096076,406.723180851134,253.828213118427,329.609432632487,401.120943103773,217.84303514185,289.327292448979,364.319374928216,192.100034531106,293.258168181292,231.986331620808,246.868708091987,324.937154102056,235.265651325264,297.631900362208,88.1910991656876,275.217638975308,399.527117028826,142.206589817328,307.669132386697,-160.027300784246,271.554931005802,934.285555660463,105.770411661314,1021.1539519898,1327.88867290155,-135.353677720653,0,963.978254646528,2096.57759562593,-291.702122772695,-502.319109786497,315.716461023146,1954.70530686092,185.805728260313,-304.609663544688,1226.08965443797,-108.694563332287,111.211015738464,365.022175652081,552.609811373562,430.93708323235,540.40436265389,587.130237497891,397.702150960052,527.88204072402,412.732034627329,406.582495507242,466.765492865631,562.820191562039,398.737159718447,503.535785631057,370.522644236342,396.824552676312,454.048445664875,533.637678343228,366.556919091201,468.156000335908
266.082044181166,296.666586888111,176.655492232444,315.483801349748,339.707432248595,212.559501139137,280.786963965581,333.791181384409,217.970036245327,268.549479379,323.458589297444,182.039503557196,236.670728616677,290.597753712495,165.173945741336,230.747800613931,197.702599285714,213.138039957972,243.360806552283,201.008014600873,237.063717015553,63.1580839858507,226.088995082733,292.355705591343,126.257653931234,226.295040079695,-183.20951632692,243.248772768843,690.022375822304,115.46758114714,924.127742782432,1101.54635679116,77.6855317631588,0,1026.3981026248,1922.86873246656,173.5123275609,-578.762467631231,385.932289829469,2051.88053028931,204.36819124555,-82.7747644020446,1140.48158648803,24.7044382067675,23.2975518054614,345.909437690318,490.034730629723,384.594180700347,467.518087610053,507.545361319856,350.976752054525,458.779593477346,364.478480643257,360.547488175278,400.287449374246,488.542812319043,360.529396021268,434.152775872992,323.882674049391,344.933901618838,388.402500684196,451.134187398691,319.164360530061,399.453147614617
208.139094487372,191.05516039372,142.433493040002,233.49430902399,242.806596898067,174.779159133138,222.242699748456,239.707101803826,168.962551215488,183.588754616856,215.072219675195,142.887173154387,166.710384149461,188.425059300723,134.685130103912,147.101869675097,162.84091789642,158.791573067826,115.988425868138,148.51397273351,107.745458309729,43.7293314625818,101.732290283858,59.1167007555175,20.3851841708168,18.7193326675163,-225.606220590845,72.3804651640709,293.539228452624,16.4658634552751,593.694602722837,708.91195031391,168.718217369798,0,961.559905626719,1382.41335839938,558.321975756721,-708.368532271002,393.7767639133,1855.13886354565,236.589432763765,52.3672667747966,941.704335876271,107.475558759071,-249.241872239876,280.662861134432,364.069407807176,287.908492805436,347.111995602744,369.662413181248,270.181688642466,345.671428502207,278.557357007363,273.818821399278,291.737753268079,367.498559668834,275.624887635533,315.377898199451,243.874833922099,259.204703158622,284.846152714409,329.905837276396,243.351991085964,294.688598818939
121.957449076191,97.2300477300376,80.524982530224,144.687056916028,147.864149590644,122.27905135262,141.509155562434,137.463991832751,89.5730911417146,85.8178858883459,94.5260173342837,93.0068719536745,81.4072933800691,74.8886492796502,94.6102266509344,55.3754794904538,125.861857829008,93.4461667064942,-20.558277067939,103.472736675091,-50.447008519219,39.1669852908501,-52.176483172366,-236.970500660713,-113.417730542003,-264.712726297871,-294.463941626342,-194.951597316527,-156.093341852137,-90.9523001717401,134.686374744103,404.236362906495,149.420014831659,0,775.179860641834,727.257406117688,786.354085938572,-839.234858382291,353.527725327331,1388.70413485029,261.927541286167,118.351170709981,655.280648536629,108.45237651648,-595.649985939827,158.565473055982,195.485003065117,149.420821600354,198.225283592248,205.136645779166,153.752799740197,203.33591830014,158.850905704969,149.1878226743,151.097670866402,215.309860411049,150.282769655037,174.257629677397,132.377192880183,143.764690930627,154.280549508538,187.775297111379,137.436286662028,163.11787844307
6.78404016372631,-4.32537941439212,-13.648625625247,41.6766523701094,39.2372789775684,35.0804168613455,38.8476318032802,20.7216637366438,-18.7105468535969,-21.6078811421261,-25.9976649252991,9.14527283638485,-27.0383846031672,-46.1367467968587,1.99492544533621,-67.6291821161744,32.2096471116001,-33.0641067419715,-165.585648552953,-20.9667306010116,-249.002628409632,-46.9530526872094,-273.576660597398,-537.608617436649,-305.396070591961,-622.582669519468,-407.565542713424,-551.46512885223,-583.887637582175,-217.666207121198,-333.842012244061,225.885504617089,62.8474580737877,0,468.306790262444,201.211164636422,793.801422447572,-929.755009853913,248.995969484003,774.994785191671,205.624060136343,119.599198708334,323.252271170942,32.7327289995279,-888.673041841105,26.0208275389949,32.073988572649,13.2808603658477,48.6678903946914,52.7691722760935,24.1320877714507,58.168354617773,30.4419362464097,15.317431450446,6.90181700310873,63.6484885585152,17.1856613217847,38.9999795940532,9.97501666501259,19.2022317815101,19.6610956809579,47.6688171105243,19.2702972024945,29.1709061382049
-80.1563421304521,-91.8142955800845,-86.2692491032085,-46.3053602230259,-56.1243459818816,-46.4055972068264,-46.905095803087,-78.4650991199906,-110.194385276131,-111.184231180077,-118.905374361001,-82.8206213846215,-129.50062154551,-146.542929750995,-127.584516080851,-203.260736714252,-102.526798907222,-214.393633076939,-301.817008964773,-245.079094996492,-463.818627947553,-235.204698477514,-552.250932327468,-767.784548630812,-544.962761714267,-965.978563262446,-530.410959426269,-900.464630536159,-878.826103456803,-370.949468958783,-711.530241182685,115.887494413478,23.7705099779964,0,98.1124472960944,-80.6381671631357,705.290879957715,-887.90045602332,74.6218832836503,222.151339369632,88.9662716433015,112.652638937883,32.9238026353823,-40.0945289998241,-1046.33713659172,-56.7169517418491,-74.2411174264222,-75.382098858963,-54.2040491490657,-45.6660602491529,-63.6871561431194,-46.7391610049427,-54.854994619863,-73.8136596661211,-89.4487416785823,-37.0090427358484,-70.6809012517736,-52.8198601660723,-72.5795085448883,-66.8308138168103,-71.2943203411003,-48.6913343542976,-62.9542915258078,-62.7537357257181
-131.092887266205,-156.514263011824,-133.885351244761,-113.65095188409,-129.676370048044,-108.591545609133,-112.282458494797,-156.249520466653,-177.714706098227,-186.478864802103,-197.408731336145,-163.702708946087,-215.679260181551,-228.579103319786,-247.450517634193,-321.834010841816,-218.068232824909,-380.788490422383,-413.767611135473,-462.087859750203,-625.696465441354,-422.293730640579,-775.442036452685,-866.820670214647,-724.028584442319,-1129.22428050337,-619.633899194976,-1073.53288188857,-924.268689304171,-491.570430952626,-931.687837945121,57.1628623855893,67.8356953685493,0,-255.323753355768,-159.255074197118,669.40379008127,-685.268449238663,-132.310610849331,-146.338776328266,-4.9977719086115,149.692285095027,-181.500634917852,-58.7364589463321,-1078.94448061357,-111.764589900113,-142.525561238881,-138.681463180146,-122.490068781482,-114.134954002368,-115.040544877592,-122.470739768404,-102.667553914466,-126.627974569945,-150.759350646861,-103.099736673212,-122.711648878565,-119.146623462773,-121.696299447458,-123.191609416932,-125.705793258978,-116.746986176081,-114.41155468639,-125.826775695863
-194.985109113411,-221.088312430872,-199.149519851359,-189.193624153231,-206.032528216418,-180.654900489804,-183.695370058124,-239.766413960183,-250.355267031404,-272.99180786308,-286.603365238499,-247.773196249566,-300.410171096166,-314.559295662276,-348.009583881336,-415.58021483518,-314.35584550674,-490.989388308775,-491.084080047029,-603.216749526969,-693.049731039134,-561.536191143376,-863.047762936672,-824.637085524825,-802.374379181611,-1073.89302386031,-710.957536184119,-1052.49499408145,-729.334616790609,-593.758389764469,-993.141124288928,62.1447375601742,105.132105620579,0,-579.379025938216,-139.104090043016,646.455960800363,-401.841644181353,-345.553696362737,-386.424484833971,-33.5214800099371,227.190100084247,-359.926032401404,-30.569651075792,-1001.66855719545,-185.158846808492,-219.101600052048,-208.432157417231,-202.291786939941,-201.430639153036,-176.788563860525,-208.023074458711,-158.83544977218,-187.236718633866,-224.796888166053,-185.687489784138,-184.179721283692,-201.073929821123,-179.823950849579,-188.021808999934,-187.720202570287,-201.9537099533,-175.006538522665,-201.815366547306
-257.70053180398,-264.484124546766,-254.79786384148,-249.33085560228,-260.663799401628,-235.056310328484,-234.290767474506,-300.054229715069,-304.078320834679,-337.036124054098,-342.963082283611,-309.769460055477,-354.470832723969,-370.732379988924,-422.999259377043,-457.785517207299,-413.98126904644,-543.226540747913,-496.182063958212,-707.411773300248,-660.669383166714,-721.425259316414,-839.931379793458,-655.562531351488,-859.780289503986,-902.898854053064,-850.974502981376,-961.880328655292,-450.563415655072,-751.161168585917,-925.076859176548,109.651558566419,75.4016981185694,0,-885.848623808451,-98.9875532716498,496.187362808272,-86.5622205192358,-552.738293591143,-589.124733109034,-23.4579820149476,316.123514157295,-523.424718632686,30.9175721199292,-775.346703230993,-243.839984250105,-279.291786350791,-251.317663313157,-267.910529369815,-276.46908736737,-226.912668026287,-274.446350188181,-209.072387726665,-231.461892482055,-282.98246318985,-257.878225524761,-234.993451455041,-263.67185161263,-220.661934475062,-231.890813028912,-233.715924588116,-272.190071422273,-221.475440058432,-261.625137722839
-265.737293046628,-256.633671608305,-250.561470541675,-251.402028807973,-261.397126106857,-229.308585117946,-230.337122486408,-299.811552045102,-298.96906143566,-335.111399339028,-330.679996141262,-306.434707785475,-346.8017598606,-363.157663844751,-444.803365762149,-428.120124522694,-483.366614321048,-541.915654163187,-423.879932858639,-796.755912418175,-555.222805033527,-915.366470059793,-771.44363964199,-424.120297665903,-943.518904873037,-716.268146013504,-1003.75722210785,-862.557126051226,-274.502857144015,-929.572784284128,-760.813527920551,113.401513417076,-8.88280848986287,0,-1115.61844223129,-108.089289600215,155.121507101127,278.243927925266,-717.688717161957,-751.12796213579,-69.2880964339126,384.981245340467,-670.855926056049,98.3260132068148,-423.081712694691,-252.185534370543,-290.123156873001,-248.885830212786,-280.205057590616,-295.099148623533,-230.551472955417,-284.949966548495,-219.88513774546,-227.903173441445,-287.188702748118,-277.321415752775,-241.007963295702,-269.38052965664,-210.115702285229,-224.331201993321,-230.748771780947,-284.168423687364,-220.464236343688,-267.149988551585
-219.171292523796,-215.013713346372,-201.86493066449,-207.816030234983,-228.38468137714,-183.661703572266,-186.515583040118,-259.640933422153,-244.887380001977,-284.21224704467,-285.85058512421,-242.788786951663,-294.896623729349,-313.462645396641,-386.130627390748,-345.217368088911,-449.101182694406,-476.816813182832,-320.962570982826,-792.932820606894,-420.574408210768,-996.554952972857,-684.475197917601,-229.903348095782,-978.679011076804,-549.196326967126,-1079.5075672369,-723.686606510496,-234.308638879313,-1001.46006355916,-543.224437596093,51.0687858383785,-67.4570342063906,0,-1145.01737677811,-171.79729194576,-223.464793390443,664.179091613862,-792.96811673479,-807.672726566468,-211.533783263305,463.013380913709,-780.091690622202,174.658185433606,-39.5407612122345,-233.804221279322,-270.892866601786,-233.267398286325,-264.208787398635,-279.414763653197,-217.217052540714,-268.044009957925,-209.552485973945,-208.688173936839,-269.610863500701,-266.698527780729,-223.78925752932,-252.671038190509,-183.734494306632,-200.033148508521,-213.800343644667,-266.140538765244,-198.725810551046,-245.708841238333
-129.434411832527,-140.540181634236,-118.629651923127,-124.367494021571,-154.352287554995,-105.091064171051,-95.1410754522444,-176.448015203086,-142.473014860929,-188.007228977339,-207.567044911519,-127.467024820668,-191.752289212527,-213.648047663257,-226.719508358772,-203.790310207552,-268.119243025921,-309.603339358184,-174.815838511789,-608.403310918185,-247.652118417757,-817.98816936537,-537.989828412823,-59.2509977721194,-860.337457868635,-372.801273984694,-1001.41843833977,-537.323502328199,-129.476097708324,-909.52289908115,-262.355692877831,88.7129148981376,133.185862881537,0,-885.952017515309,-149.233384269549,-258.539693459008,1034.52553266401,-750.011440900035,-701.472739432003,-294.919621535607,697.189187677533,-747.809531499959,363.823297311163,351.435705319543,-185.61089592367,-214.777444873218,-189.236867940576,-219.768376041538,-229.987814499317,-187.23142774446,-223.814833904257,-177.942375105735,-172.330802015379,-230.135796034396,-223.199069129655,-179.600625437162,-209.979525145737,-147.556264420018,-158.443656818065,-181.597675424078,-219.598102138991,-154.625288858444,-200.118785516389
28.6231579798077,11.6008721819756,33.287148943828,37.3383870119599,14.9051566329479,47.0128574876138,85.9536209283442,5.74628572130596,35.0011551690888,-0.887787868056012,-24.4955756813971,52.6880861225402,5.90455189138111,-6.31113210085071,21.9192038150214,37.5631794319196,12.3659870149723,-14.4206693937166,95.4548969907272,-261.171660394198,32.8170272749214,-443.085973858626,-254.568598944996,225.866374701679,-566.252802955917,-110.314497700497,-772.856088426907,-314.04657751451,252.634896771541,-685.068713389265,160.135929035272,426.327727330228,850.759671994549,0,-371.80154077499,133.304426672244,375.560303945659,1483.76172850502,-575.381196561381,-411.02917646922,-28.083405310896,1250.5782503068,-437.74181237765,790.770042679387,819.835138294661,-60.3956259379262,-67.9415320195813,-53.2608261212291,-80.3752786607837,-83.0864743541326,-73.2713959657102,-83.1557185601253,-69.373222138298,-50.0969793417731,-96.252740585429,-78.6185847016488,-52.4935921406583,-63.7686318390619,-34.1460189610158,-33.7066497691215,-54.2827143091901,-74.9074982349698,-29.2385220249686,-65.355192275809
293.192316362176,292.307604630294,282.898533234307,318.683140389896,322.474683442711,304.047914682604,386.210224061359,334.593401665234,303.984708301381,319.839675584383,322.372641891478,306.671364658895,324.550642542539,353.834049741281,336.694209362832,417.334119552329,318.55318456963,414.891770754727,550.891425219179,190.596343519368,496.19787147095,-42.4339367760352,242.836244352486,722.613009538768,-117.113352160991,347.809751580482,-466.702659557126,51.9621306146404,912.682633439727,-320.749253393947,784.703209692318,1178.79611827742,2084.62927172571,0,314.021670605759,767.300297709942,1693.75296290375,2184.46651618047,-243.55007235642,88.1193457312595,845.072874793537,2188.46521512635,225.269085816993,1530.54032100577,1486.75133142931,184.225790881934,233.711979565687,219.931269079494,219.106937275853,230.170896367121,181.24424842091,218.640815589496,166.102920074086,213.890292088595,193.436942424638,231.313597022029,197.023665249167,244.780848928637,208.922955551428,224.855233861807,233.435729566094,233.537909304047,217.529002371415,224.029215967262
668.642623241273,710.353759588859,628.33653166648,723.024336080886,770.690831373975,657.342816377278,800.660445581468,804.336263805961,665.112047935068,770.960256741731,827.035525499245,634.648004754666,756.948259612543,861.485940668588,722.083499157075,938.490528334404,650.177186079176,971.928258553594,1177.28281038481,725.139960995074,1142.44498508232,341.01579602352,939.668755265273,1372.17375587154,454.341128353998,1028.58236460291,-139.417084661409,700.672859840418,1702.67869978944,193.35633086203,1562.72454806615,2359.6558073178,3530.52861165219,0,1104.48796408728,1726.02152009317,3394.32641203427,3144.5911066781,231.29505572902,796.348527261908,2283.32193682375,3417.28644665157,1174.23352550777,2556.99144747782,2410.74376514436,555.512516785547,711.574775670373,627.266223456278,678.381771815271,714.088323230856,565.259281887722,677.203403848669,519.33394748036,609.582294288573,627.454588868239,701.562593401338,557.936601777833,697.746726641702,560.662105805444,609.562005470933,665.609158254182,698.344412256943,573.040669366332,665.05928130294
1058.02588421327,1154.72818974459,992.089376910611,1149.87579632693,1249.43273496198,1019.15884585677,1229.0280761062,1293.75937116867,1046.39438736027,1243.43269767209,1361.42501133415,979.058744505789,1209.06654237632,1394.4909250872,1123.9827978555,1484.52277639072,990.211953423602,1538.77596818069,1818.86407623598,1252.54108321944,1794.03075302943,712.215796985435,1624.47154804431,1971.22112046296,1026.42918078045,1723.4684317759,143.419436622257,1518.53250987133,2420.25547257823,756.422799350999,2290.74093197603,3638.84487908845,4733.29031110014,0,1844.85965956149,2721.53842229126,4923.67387907618,4066.46181964013,719.553598485191,1536.79692606589,3750.14491087289,4586.62865553125,2109.55799068673,3588.20406915268,3363.75455135685,954.73274864541,1226.32596546537,1056.41242953739,1160.74999041656,1223.13562899572,962.598026566491,1156.38409603942,886.853038802515,1020.45481818581,1075.64927269062,1191.82012436687,932.932392760732,1161.60399172035,912.965091318286,1013.52553815977,1107.39342873978,1178.17460245309,941.882182546866,1125.36130796723
1294.12679946462,1426.59128629216,1224.35431257332,1417.14379276934,1548.4195057815,1238.52866132366,1491.0065631726,1596.98990487391,1290.7065564232,1543.16563223886,1703.32278815578,1203.84317480121,1501.97167727312,1737.6394943864,1381.69994011826,1835.3499091225,1202.51460276577,1887.04592968135,2224.05984254679,1580.33974137434,2180.66747037364,948.819890258747,2021.30809000137,2308.96560969641,1439.91512997025,2135.57312053503,291.662244928191,2176.60441524099,2834.32598502305,1268.60389826233,2723.03505843601,4347.80067359961,5293.09567206172,0,2325.59493735414,3267.74707278144,5716.90090400995,4535.51833943707,1075.47525030378,2022.2949453994,4560.50331120467,5206.74297656321,2653.87225570901,4179.06431625825,3908.22545561411,1200.6402979256,1528.18575660441,1316.02134702835,1444.90748132445,1519.92038080199,1200.84253102145,1441.2567222261,1112.18435098299,1268.16622546399,1342.65390777978,1481.17949507708,1162.34147736312,1436.6844219265,1120.00336438211,1259.39394226333,1364.78810163557,1459.95250500388,1168.92367016439,1399.76683158071
1303.39461775805,1436.90796366773,1242.36241541703,1436.34287117027,1562.57259655061,1241.72368847482,1499.25645838779,1615.24270660619,1311.01949240479,1571.60432484092,1736.875013026,1224.99825159514,1537.09300331132,1781.63599902413,1399.67104860457,1875.7497277686,1191.80795650424,1900.82968881163,2266.03926657461,1607.11205962331,2195.17326343212,960.857044543594,2049.8812415175,2314.60099986077,1630.38031170415,2174.22217454713,332.879372294152,2443.55354854563,2823.54811602577,1685.66922209789,2776.67677963323,4130.68686596035,5089.8426570837,0,2491.00492023954,3156.16272945658,5588.12380218457,4384.90748822906,1269.28541249631,2156.58464564833,4505.1223537866,5059.11509085664,2696.55016020085,4134.82164815233,3824.65971621822,1210.82180842565,1515.89860166284,1318.94549979649,1441.24348736707,1509.75737638628,1208.41115705112,1441.22221912308,1124.08871352494,1277.5227817799,1347.03437220057,1475.0375574629,1171.47353397676,1435.7497251802,1123.50512504153,1264.97909248839,1364.14718304916,1458.92856052403,1180.73562465793,1402.57875716075
1149.53115650345,1263.79174629601,1095.46782012125,1271.65796086565,1371.42260032881,1087.77537808959,1322.02399335052,1426.0741098318,1166.75476398563,1401.34900558123,1539.8893395753,1093.71734469913,1378.5458611693,1601.42840873857,1257.78983375377,1688.97629697767,1052.29598009783,1686.18693674697,2034.6052751672,1444.63966342,1956.46557120047,876.787936903116,1854.33041424562,2072.93520170738,1628.71852849172,1980.79900997335,393.462342452135,2331.19268907566,2504.98662040865,1880.43210482999,2555.15747524457,3355.63623584876,4307.42509011598,0,2421.31525068716,2664.90455455443,4804.40294329063,3787.84030023052,1311.53609693103,2042.42761415295,3906.61289986726,4363.9406157149,2406.34021761481,3641.61611402383,3272.58988717544,1051.46776097689,1287.60721548307,1133.97891974834,1235.73133981687,1284.32994377083,1046.53896106826,1231.96739759367,974.17670136706,1110.1293915713,1156.39287164011,1251.57624485334,1014.96357857575,1228.75018845667,974.915514326009,1092.11920380156,1177.28845180941,1250.75973835475,1027.21034149402,1206.91961768042
909.31958954118,1001.0040340336,863.654739073897,1010.43590206754,1083.67177389091,858.507566247372,1053.74121767311,1139.2198711693,947.345372020015,1138.33058027229,1236.8853598573,900.130036117576,1132.12470981496,1313.02710306051,1073.43897889155,1415.70943852134,921.361670822277,1416.82740250764,1695.97723555515,1276.78655299479,1645.72805939351,864.520583337293,1625.51889508495,1752.27841180031,1521.83248509542,1753.97709948031,491.713292661226,2040.3070704023,2114.55844514901,1740.12795463126,2192.0006175611,2585.2239272421,3194.12099640921,0,2148.35854984975,2135.10008413489,3752.81920110639,2979.43496549093,1176.96831425853,1724.16053577818,3116.90157627941,3453.25647682977,1936.42960228357,2958.98666925694,2529.042758197,801.714361648846,951.113484950141,850.708207341944,917.483882371208,938.533207551002,788.045990143791,902.134618446559,733.721508786002,837.459484003479,851.480708187053,905.902925096688,764.03772818959,907.319603228916,735.900003774153,818.856356019571,878.073775696412,921.90947891176,774.73896153905,899.126146339292
643.972011828699,720.571329350191,615.136726329788,725.508920351496,779.938202565586,614.009859867485,768.130046153572,835.160763276412,716.860667893865,860.083251971654,923.225274522051,707.061140683199,879.133476474612,1009.41375072697,902.637240083045,1159.13230785816,825.0672765778,1196.51333777317,1387.36395030455,1185.64416624895,1392.20200981813,920.715201655925,1462.2678909463,1508.15153441427,1411.20653615883,1590.72238583341,544.684077993313,1754.98930403007,1762.40877324195,1373.92875239298,1718.89347516308,1934.19606523242,1943.2482292208,0,1628.53541013102,1607.40768999071,2669.17890373177,2101.49908316717,885.009968704156,1176.6205018682,2243.53009329269,2482.63816502135,1342.59591357255,2216.15062810672,1792.59949336986,516.069289963791,574.14216897214,535.1961385505,546.854415707075,541.700858127511,493.769212488845,528.139598476437,465.049098445235,525.154371694309,506.692774249512,518.543919881187,480.502192575792,549.471830424373,468.291907948829,513.694284871057,535.948196427025,549.106322938754,492.430933013268,551.754121372356
445.739867728649,527.823096538958,431.912367249938,515.015622892144,566.69574869206,428.43758643158,555.643242418985,608.612408151218,543.657035608799,656.066318766663,699.579196741099,563.539628870144,698.605303637504,792.177115292915,776.594912518272,987.604104141867,733.8900962131,1055.13215337832,1201.85741704179,1142.03868102668,1246.32681547695,960.678544477894,1357.90120425895,1387.21484870691,1338.69863502362,1454.61993386218,543.167022312244,1478.76015588932,1389.18249898847,994.569449505322,1116.6550629662,1247.90870215027,838.604833271273,0,870.75460467412,985.497034379814,1696.24174214084,1369.66169491491,514.673587091938,494.931620056962,1394.40316123053,1559.74494243005,739.876027085124,1527.05182661959,1239.39428562132,278.741651683992,255.147078118337,275.011178163271,232.819590894822,212.462941070035,258.168212179899,227.306230493668,256.139555442979,277.409148751363,236.28269295939,211.042905222662,257.453048304115,263.394274770371,265.513740344768,278.241095752343,269.746884816286,250.369983746925,282.920883865789,277.135821681345
346.94036693966,458.259407433294,330.502880848146,405.876384546786,484.572807945067,320.211946845238,438.275039721128,488.311275126325,436.623289226726,544.809435131989,589.61592982012,458.556103112871,592.246989764961,682.383504352491,670.290412410058,877.304015013905,615.049740375178,940.071871081593,1119.42341698783,1057.9938801521,1151.91000336023,944.457321163034,1247.25210164588,1313.87164716889,1274.9224081387,1290.20613741864,551.302866201672,1166.98140233306,948.24694505242,689.863578450048,504.400125653727,544.064624283731,181.616624640262,0,41.1629260816658,316.528305545656,917.982528688956,1023.75296142031,123.943765279668,-110.99817340697,802.219102042272,854.919195800999,292.28166903189,1028.33259114047,1004.74978008829,139.038363257619,58.5659089980721,115.969351504275,48.1543653460038,21.3588575684471,126.660453767542,56.8325950689579,144.448203968196,141.04222498364,92.2288372936848,45.1645067988323,138.650070002112,101.87910820808,157.976209855433,150.898937552842,132.011851465046,84.1611384010405,176.504596229072,128.574418921397
249.135151170245,398.870603806668,215.150055381869,290.290854109075,420.721622171393,198.011413472563,309.224904866968,365.742852596747,306.706660859256,414.670120418776,475.549214990055,310.134940529381,450.946208554705,559.175125834882,493.685743653094,711.442296403711,424.785833542793,744.525118487274,993.806012157176,854.106927293167,995.301812265579,851.423606026566,1075.1206192258,1193.49950017257,1184.93617437694,1116.11560508457,604.415635514446,892.3884654586,508.635932914858,440.359284860359,107.821492201439,-101.754811271291,-76.8844888075201,0,-615.552792766414,-260.402962490122,195.448972049083,939.716563626637,-240.881326287085,-519.1627952067,468.489156000896,371.673689287368,4.46400491710472,679.111020598445,994.723568954053,33.0756114095394,-76.4044595595451,-6.22396745532732,-76.7980363492189,-109.735135106441,19.0698984309955,-67.8290853560228,49.0903729272328,33.1092394862726,-17.289082625988,-70.2858965319827,43.4177998703148,-18.0550005570123,56.6528079587742,41.1948227157619,25.4375634699484,-38.0689475881213,74.0780615644,12.6933665444809
75.2627015510962,253.476309203725,24.3986867603321,87.6882257721172,267.590248842871,3.84560514316327,89.7956387170584,150.672849118271,101.69246808698,188.460312923499,260.007183870855,94.9759748621539,217.617388631181,327.432991192359,238.537699855335,443.795485273659,182.170472876565,453.692794096798,727.675343087144,581.069368100268,746.098433015489,711.442909047823,875.353981288801,1004.91026582426,1101.7505111514,985.189775681214,741.275439741558,761.108873571225,145.398482139513,292.806130900075,-35.9098555736697,-747.009652173471,-281.600473999742,0,-935.656956080817,-749.001685613145,-661.211194323845,681.294665404968,-477.157010601689,-776.61138659743,57.617267825134,-115.692851790386,-287.17529559622,247.623642841204,916.858415916433,-119.152276726724,-247.05765183115,-170.570198727142,-245.097203382921,-286.666036342051,-145.572511452803,-240.341162500234,-106.814583586892,-130.800270106005,-191.433317413557,-245.142650186201,-113.344998967436,-191.604121502694,-106.771023538819,-129.63640103363,-148.781897052919,-219.749637478491,-96.8200414524492,-168.771827212468
-129.711094704369,63.8871417769437,-187.636443360752,-149.781891884385,61.6966160999624,-203.51169395373,-162.694387193729,-107.683794810718,-122.099686521037,-72.0027033882852,-10.9577530088551,-114.114115943143,-37.2425651523172,40.6666453366515,6.8231677030424,156.240809540985,-18.6046472414648,177.587309512002,383.090756570651,384.352929577061,471.044948280392,627.263129880407,718.563804508916,751.294846249799,1071.33775656234,870.982671173616,985.79232365887,730.606991472531,-167.663777797133,341.937896109084,-136.251511762239,-1335.84690456577,-557.945951016233,0,-878.834694222001,-1250.51232279657,-1456.46458949443,128.346236814441,-487.898248495376,-964.935192544309,-587.74115574497,-703.744865701098,-655.638637578271,-373.959218134766,624.595155729257,-310.034358075876,-470.104196379766,-376.249328736204,-463.867421114525,-514.259549882518,-343.48746769065,-454.907669743052,-296.699308582649,-334.591099598317,-415.661250351477,-475.916457260234,-312.051715689297,-410.879998437457,-298.026975481078,-336.078185904712,-373.420163744971,-451.919785685591,-293.190572738624,-394.249772130005
-305.243090493636,-93.7808158078536,-362.669312444742,-345.53128036097,-114.526173830676,-366.561063886658,-366.022568113087,-325.548921870056,-304.151352711969,-286.243700214387,-249.370671272125,-270.48407982283,-244.093928580413,-206.098122251978,-144.652397505381,-75.2752347672579,-130.203082408595,-0.730303396135344,74.1173141194327,303.567182489798,228.892919179633,626.454825586518,593.95272890127,437.405739366407,1032.05763452145,686.334162002887,1222.19202796732,631.603597593083,-437.800655296627,531.514510043207,-327.847127239754,-1584.36828644638,-709.824646341862,0,-532.821916189457,-1653.57995937439,-1787.95738321281,-325.533873391832,-312.759871940689,-1077.29700413241,-1159.37277326512,-1194.23413997224,-957.189741055156,-1007.70402732164,290.12604809077,-480.543736773318,-686.864490937117,-568.218200206359,-674.596643117742,-730.526078820352,-518.229279305723,-660.462727039081,-464.689077159483,-523.199153521314,-620.788420724336,-696.033481362765,-492.719776997881,-619.045251911679,-468.492118853866,-523.59877554808,-582.616129080198,-666.769771987526,-460.349573293868,-596.210726831634
-414.660162617161,-182.821721869401,-474.016157420866,-458.954563126259,-216.664670002058,-462.510497396467,-479.422330416751,-454.3578389028,-412.607440299036,-413.478062531974,-394.976646102188,-366.75953854383,-371.510964362998,-352.426848994305,-227.293661847505,-218.664824960426,-173.203088835055,-80.0240791169076,-118.756244547383,265.934658178072,70.4666037276497,614.287369314315,474.63475902363,173.183726583756,904.463829417834,467.578156251385,1289.63076427092,423.429901980537,-519.928652059207,675.161220178308,-486.174674570284,-1327.01600913203,-604.511856246752,0,-139.480627163127,-1634.91909161662,-1639.39165374029,-354.143659024968,-97.998811594212,-1057.73052970489,-1309.1755951767,-1399.59368251818,-1009.93514125021,-1417.67139392348,151.640305284001,-567.284106746747,-802.699272481043,-669.054408917078,-793.214935112216,-850.471014264839,-616.296222595335,-782.45270289792,-559.920073054106,-633.30810822126,-731.163455769764,-821.711740402289,-595.886154087807,-742.958689810686,-571.567036304821,-632.683623870271,-704.478683664837,-786.709904154258,-560.508534971715,-711.645832063578
-410.562336778936,-187.376049104954,-481.863465432622,-457.487432306758,-222.315109899927,-454.066065676365,-474.209264878733,-458.244477785283,-407.964134076282,-414.639267344441,-400.546824493626,-373.843746036526,-378.257539461467,-359.141860062775,-241.039482563259,-244.935723986312,-168.053747761042,-89.4144831606325,-163.37230318783,222.387719111346,31.2425588489824,529.051930601256,378.743201164978,89.3499474008309,712.143837785554,331.140992139181,1161.70957972495,224.301363956613,-322.75010696041,638.155076279007,-470.476242079654,-768.456546645103,-333.733059522729,0,9.16940289414822,-1099.6786456142,-1376.82567201648,-120.307533547871,21.5564315777548,-899.902322128738,-1085.64619410935,-1381.69268363489,-808.837868388463,-1560.48115052149,219.548206723627,-534.02449740342,-752.872170063885,-624.034375332301,-744.953724966816,-801.095249826525,-580.695560372657,-738.824667597225,-527.944583184958,-600.605243714347,-680.59210965576,-774.948335258649,-564.167818792763,-706.755162611501,-546.013319407099,-601.084473447987,-670.759327380727,-743.360196437224,-538.538810429101,-677.667904567436
-303.877338503199,-135.172517983615,-392.164711566457,-359.483197841554,-159.276941100178,-351.81717520624,-375.546840439543,-362.921525975955,-305.376138037568,-310.194457225853,-293.532564686316,-295.13006755383,-280.149416885972,-261.1530187559,-197.168706052677,-187.481879279282,-132.791862597766,-85.9483528479372,-127.461890470215,157.29349103457,35.4861057172904,416.637670500558,267.542502672612,110.604687259399,484.802814688032,231.324259971012,904.468211153854,48.1834116411809,-18.0419385467305,383.738039718198,-346.68315042876,-267.381977297538,-72.0829279573989,0,-173.232405514148,-394.245197735105,-1258.64581039211,30.8606047094812,-17.5484315606319,-658.059728238848,-806.575258676001,-1312.71783038628,-523.175967182405,-1550.52089091259,321.898111378081,-418.074608520322,-584.124710014791,-472.882082064986,-562.525340435323,-613.969762250375,-433.834057919641,-553.133073956757,-388.169037624447,-451.398806308128,-498.59734433395,-583.829512443402,-422.325806936152,-535.89912365349,-410.400027730882,-454.246119471181,-505.603373427993,-566.450832926776,-402.622320241367,-512.587930824053
-199.770217238115,-95.5101737946923,-304.15015343227,-264.393489901591,-110.426069874835,-251.560928931483,-284.239048696091,-278.847498546539,-208.930822232015,-215.612571714472,-202.216810472833,-209.605538908535,-191.52454095767,-183.665879335918,-151.691348291227,-154.906753686176,-95.1709290715007,-126.1141597279,-138.535325462938,65.6606191235525,-38.1854397726618,330.617529503461,76.8272483313634,54.1955226646843,220.00618115202,45.0890294831138,595.581894207888,-183.752272115183,165.602238050716,-1.02776232920029,-255.443286251239,15.8500577238204,36.9469623423211,0,-471.528528971162,55.1806560730881,-1265.26728820981,21.8503978710774,-155.775412475953,-410.134173061866,-709.99611760621,-1261.26532499762,-339.879230423172,-1497.34598498409,336.778110287408,-310.744325900185,-428.095327858721,-332.834269624061,-393.63965515687,-434.500134996003,-299.40115093886,-375.887958431281,-253.412660107002,-316.09280629977,-330.208395209731,-403.424596845749,-291.942049640867,-377.751381057041,-285.286454422784,-318.702579197605,-348.823855188778,-400.82413552748,-269.945677293913,-351.621837036922
-188.295803890406,-105.618070614507,-310.601965829201,-258.276786651609,-131.009070621737,-235.381638204226,-278.026958337612,-291.942267047592,-203.172172485504,-224.690794520102,-227.786007714155,-193.091272552849,-207.171769879262,-218.442356195641,-160.719225313767,-214.544424802501,-87.7474625820493,-211.890446012922,-243.862667037753,-40.1427884041057,-194.78085823379,237.119504528126,-152.34819226584,-111.259250765246,-42.0940202783415,-197.040109400777,319.308155673839,-432.274815438916,167.826858210781,-315.277161723173,-257.157594403741,142.548815161067,-39.403013653718,0,-638.607701999034,138.902810787046,-1296.85090205991,14.5833146936016,-244.1265571585,-253.047943681528,-841.582227520125,-1183.34729772178,-349.871210185636,-1451.63964662679,281.572174961384,-278.10197308809,-379.891643817314,-291.14772873075,-351.065965606574,-380.494457429614,-271.491859745157,-328.623159015945,-210.831997735827,-286.542607885476,-292.144150804669,-359.947757942088,-260.157131603728,-345.258707875613,-256.019860244854,-288.1275067771,-314.822626941254,-360.996449932947,-241.088692443517,-312.801120716398
-251.608266876563,-144.607647832302,-390.735971049975,-323.064430513292,-201.238126970571,-289.598495350141,-335.11086585088,-373.933217775437,-264.308157200754,-312.304961086079,-336.145743662445,-243.008012846691,-300.096430688538,-329.533332889396,-228.946095130843,-330.577197312753,-132.483897126183,-313.783190951977,-386.940655491161,-163.008454642712,-355.923710025337,75.4997822937926,-345.60200132948,-304.720383495613,-269.441353242536,-404.167029185607,108.517279081296,-616.180501074169,27.2288342981611,-455.123898542413,-349.4936818165,158.608474035805,-192.517440853492,0,-659.856828767025,29.8438186966564,-1292.24870818632,90.7245491612897,-216.048794595733,-241.60964016727,-1108.7942587935,-1046.45068985432,-516.152754032842,-1420.18863945968,223.624351184178,-311.883482667155,-421.671510557219,-332.4350545257,-404.40977566081,-431.072081637651,-321.155104843332,-386.352491767059,-241.097671989923,-329.380888534333,-354.750281877314,-422.678093793647,-296.30980821744,-405.574015221739,-291.955131845232,-334.08292926619,-378.347232103695,-417.200135149501,-290.995356263715,-375.568255930804
-298.60405106556,-173.465271248346,-441.84786778417,-369.92472039433,-257.749124311102,-331.263816402331,-373.609157769734,-429.908006849779,-305.514252238117,-379.581243210043,-413.436631711377,-289.433681490285,-366.386747607321,-409.915137482085,-296.105580871124,-417.375402319905,-197.351236427182,-396.825804583184,-491.16751575268,-298.899422619971,-472.62338517961,-111.822457310526,-495.723298800657,-470.715115115781,-471.472069695634,-568.344943465022,-70.687081699652,-742.633920161928,-186.99925410599,-514.090181603032,-471.245295511792,26.3449809702207,-284.884152397476,0,-640.256748617906,-83.0029443371171,-1181.09678341018,157.210577587286,-143.517795161152,-288.761400504862,-1319.48154917544,-867.074940807039,-684.934979128573,-1342.56342250593,180.530632727458,-340.704109714617,-451.198365991096,-365.590561129466,-435.622746644129,-468.009299890948,-350.284681860682,-428.487917734641,-263.48369782659,-351.368834877416,-397.058332290734,-460.923831844685,-314.444901585406,-443.435631488127,-310.737601398224,-364.759752952639,-425.356251729379,-452.243489467357,-322.893116315196,-424.493221520213
-276.78763658966,-175.023253381098,-404.249840785573,-345.981675882214,-260.797315659775,-303.595057607436,-347.220355187907,-411.772737983135,-284.732777042347,-369.116029003574,-403.837395080362,-277.990655304984,-350.835120974994,-407.492177774731,-305.853767227458,-432.630376163088,-226.810160473898,-431.860386433163,-525.357507354832,-400.734424194095,-543.6306319162,-226.845564840894,-614.868180345497,-575.53852230935,-631.518312415677,-701.601797548334,-240.548839191323,-828.333628294091,-380.165418743339,-585.962093383631,-534.82930322112,-240.794260948316,-279.940078983927,0,-611.370312841485,-167.0428406921,-899.965974589314,115.954358962276,-108.807813141838,-262.064376164271,-1292.62598835071,-655.950307843367,-706.176558398146,-1124.12409460609,98.4864131967022,-310.47550084721,-396.325229281897,-327.912651795724,-376.568225230837,-411.49873808767,-305.783986178513,-378.441263460437,-231.001332952026,-305.900612013139,-349.616292565727,-401.335834070825,-276.998890274317,-392.886700978603,-273.806194416794,-332.722454635678,-384.458669289762,-400.024286426455,-287.839002622558,-383.777650669766
-237.823825892552,-178.999860844871,-336.734803446884,-297.92511763828,-248.35549493841,-250.435105286817,-302.149895076165,-370.571584126218,-255.566591764089,-330.930065251283,-367.965704354799,-248.488891652013,-315.546234844255,-381.316446834855,-299.707469780692,-429.557662121267,-242.585962725118,-445.828052453275,-534.950150131133,-461.429339835292,-603.17262938129,-292.032803757729,-708.568015604954,-620.605884701563,-732.840809948743,-786.952916247344,-412.49165986883,-842.666695408929,-506.875708714192,-649.961167681936,-526.444454588754,-517.373534869634,-225.646213723981,0,-570.128650962303,-288.225891358917,-494.059035490196,-30.8331482259627,-140.28012095302,-181.276993942728,-1009.56583329416,-427.999983905834,-585.972116421493,-764.865876727837,-79.0823436036736,-258.000696967618,-303.613611118228,-260.656406796049,-283.327020523791,-309.568630075454,-237.948283207341,-287.040870426985,-184.54964818691,-242.955654262097,-268.288067671336,-305.172006943681,-230.236779920801,-305.76433421042,-225.694897452253,-278.523561252123,-302.963682275274,-313.022255671517,-236.206680934392,-300.189039881249
