-19.7915275519672,21.2414563103531,-10.1495013087011,-10.8019692499748,26.5336962784615,-7.0321544781715,-15.0792590872131,15.804223466406,-10.7294728120555,-15.5142377147289,-22.2564064412232,-3.76981477180328,-13.4843374529886,-19.5740382382093,-2.68236820301387,-8.04710460904161,26.2437105267843,-14.1368053942623,-28.9985751677175,-18.269102355662,-43.2803734378184,-11.599430067087,-39.3655657901765,-46.397720268348,-51.4724709226986,-40.6705016727238,-17.4716415385498,-27.0411713438966,-35.3782617046154,-30.3035110502648,-15.2242519630517,-26.5336962784615,-26.896178468058,0,-17.3991451006305,-22.1114135653846,-21.3864491861917,8.26459392279949,-12.6143801979571,-16.529187845599,-19.7915275519672,-9.35204049158889,-11.8169193808449,-8.69957255031525,14.064308956343,-11.0919550016519,-17.9066201660656,-11.0919550016519,-11.7444229429256,-12.1069051325221,-16.0217127801639,-18.9215702969357,-10.5844799362169,-5.00225421643127,-30.593496801942,-13.4843374529886,-3.40733258220681,-15.6592305905675,-8.48208323655737,-14.2093018321816,-14.8617697734552,-12.4693873221185,-4.13229696139974,-15.9492163422446
-89.0530853942539,102.385147250745,-43.3018908311235,-48.4277365896169,129.309116116836,-29.0901227388793,-68.2884006630387,81.2978699092223,-47.9387497696946,-70.2073714517022,-101.981318937727,-15.8577848306115,-61.5904911482291,-88.9635572549537,-13.3802438723701,-36.5159097211455,122.568403934474,-66.0638689654489,-133.682769985833,-89.7313243016995,-202.174541349512,-59.243824452709,-186.353733009926,-215.153869997129,-243.873218109821,-188.920802107468,-82.0325832691371,-121.785061730479,-164.026733503117,-139.729668103501,-66.0765310344343,-120.609543566521,-122.112023973182,0,-77.7012852394922,-100.27838091869,-95.2435198436284,42.6226422077471,-56.9550887537898,-73.2108757208915,-88.835596080496,-39.2279716945258,-51.7937230484027,-36.2045226356919,69.4896897931685,-48.1362942938079,-80.1092428480781,-49.0062515488394,-50.0722967838524,-52.4447344455445,-72.107853994853,-84.3451865618953,-46.5257975023343,-19.3857958666168,-140.743161690239,-58.2556550039416,-12.4703970380493,-70.0978985227574,-35.9700016205531,-62.6380481377293,-65.4440078828053,-54.5271863555594,-16.1278257926441,-71.4013778611728
-158.140692117976,198.470524839452,-70.8342359697716,-86.1134709756067,255.51919181448,-45.9436203576043,-123.262385181334,174.03424671483,-85.5632338686439,-125.80769312942,-184.533823002358,-29.240367021771,-112.87669172037,-159.473540276632,-31.0575422833823,-65.6784354614228,223.437495723096,-124.987484791532,-243.06095180705,-185.624432478759,-375.883796818343,-132.102430352737,-355.506117892087,-391.80916855056,-466.601659336107,-345.178947117811,-156.892091586484,-210.037637771678,-296.747160446254,-255.335191134011,-102.702446442841,-210.252614438877,-219.188855074739,0,-134.122871357525,-175.281140882841,-163.943534832776,91.7371416550039,-101.537263550022,-123.253941761586,-151.816470317616,-59.3740887196002,-84.6272213869178,-52.5482528958868,142.215459847976,-79.0280394573303,-137.870884353847,-83.0109739104961,-79.3890302372411,-86.2910009789675,-128.8151665893,-146.384773565625,-80.5863850422339,-25.6053202118009,-257.124018812254,-95.0230700307799,-14.7676164219397,-121.965747495849,-59.2828139515964,-107.542020421331,-110.798499085618,-90.9470386893279,-23.4841451820569,-124.76806876083
-135.582429885642,203.643637578997,-49.7889978199668,-70.3074823489055,270.579182829263,-30.1037752123812,-108.100947458448,212.703624116008,-74.7196502463235,-106.082451585858,-156.09175225923,-32.4152873423047,-101.013711284633,-132.753298057116,-42.2928750557528,-48.7433016458755,195.189850307935,-114.888329356721,-203.22947326809,-210.003531091621,-336.008981492143,-171.171593644138,-337.160478613245,-324.467650363516,-454.134763347024,-287.647035465405,-153.262545962746,-146.154384013311,-234.222463127539,-222.324707755886,-34.9401288409839,-145.960615317278,-189.017018839942,0,-97.4107284955557,-126.679837275883,-121.787169576212,117.281154757078,-80.8783550057967,-80.2451786592974,-103.489487643379,-22.0277221554005,-45.3252820464047,-10.0821196977398,168.395058033025,-49.8356395853362,-99.005768000811,-56.2667113109494,-43.6638002491349,-53.2903338230574,-111.551353057038,-112.558462240913,-64.3162049350477,-0.778253772063812,-228.630314707328,-58.207858119683,3.07128206754975,-91.5117939151875,-43.4561352128249,-82.5335288514699,-78.575305772577,-59.1224538790352,-10.6899290092435,-96.2713924005871
-45.1735492299477,152.741341782524,4.14910206051581,-1.75767190438175,206.496773822196,8.46330409083431,-32.3587648029441,204.256966944304,-21.3208884858863,-19.0090933996497,-29.8680284629049,-18.008385102287,-28.3410301229948,-20.0554243475662,-26.3336513825432,28.3601314561619,88.4694900535356,-24.3857445082229,-24.2170760716316,-133.660016059041,-98.1761644926491,-144.552619813764,-128.018659857092,-33.8202890944072,-221.524687087744,-30.4623762128397,-67.4138955497096,50.3927715936322,14.8198960316804,-59.0783423925828,126.648237003226,57.1940405085981,-56.3593448140501,0,23.3754900548062,29.9048237646287,6.27040192651188,131.360189296078,5.82140779078655,40.6800828809834,29.6499707683784,60.8166155979319,56.8818917954024,79.6616023913301,166.864320908902,24.8987048585718,17.8248483409207,23.2153951526372,40.683430126029,38.4329989437394,-33.0647323239353,-0.600348677464824,-4.12903141150625,52.4240637466408,-82.9857721824183,36.6184767827292,39.860053948605,11.1048346341845,3.80853136368874,-2.29934423838213,15.1234038890061,30.9767871359009,22.6142137502301,3.38519160931422
26.4182776262874,161.641286900263,51.6874202834249,70.8864409012227,205.414568119992,45.3257089983256,38.4457512478142,227.075430441949,33.7941476498846,65.9525025149086,85.1288886277283,14.370356021933,47.8754449311991,86.3980205964289,19.425786955916,129.001207204713,54.4414008959115,85.2321846031752,147.987216960097,-23.4308823190008,124.902931871361,-88.6330536940253,89.6119005517664,235.768305473284,-9.89221382939068,216.458011639607,22.9903000953349,239.383456309542,255.607378078906,88.4472976834909,294.921235153566,239.512958989705,49.4002859091534,0,152.414845560186,168.670421948258,102.742327118606,158.921741646768,101.396692726015,155.764360837806,123.765734531758,126.414532403186,151.227342393116,154.671420845222,187.711881777548,90.6028395296562,115.673268701325,99.1361981932633,118.383660952175,129.984086947714,40.8730465105734,98.7175580588674,59.3321197934826,114.198490509243,31.638514580814,124.591501268938,88.143588530499,107.363401909003,55.9800030428506,69.8594169428092,99.149721529644,117.920003042955,68.2770200034361,97.9208375775423
61.1688995000892,200.053761607457,82.7198740822738,109.832232013205,244.51927826365,70.8130511068886,79.0947125155717,263.909144834131,72.0849848569594,114.469291487085,144.116325472107,45.3626405200091,97.4364693449428,144.514396120064,64.7292186722399,200.751941542111,81.5217052673572,163.195262211534,243.164725209855,59.0272930604722,253.640504306794,-49.2172200407394,232.53492561218,380.930876318067,109.683038528591,364.604432719415,75.3622352076118,360.109858578317,388.699381116242,170.995273354764,415.445853659221,318.314196838636,56.8686293298395,0,253.315106799178,237.04274354004,105.734645276845,124.9831308716,167.587004991666,233.76412302717,137.846475706189,106.982020192505,194.810547522488,160.427864989542,169.622085814037,127.330604046794,155.514306267018,138.916663468736,161.554310908205,176.712104560842,83.7998682088907,145.526921609131,102.866399998417,154.621615392123,76.7033043595633,171.69307142262,126.265129590552,153.988867395245,95.7167249496597,107.444126085308,142.504084243577,163.218196565001,103.429173459045,147.354197813032
79.5705143071475,181.598522417555,103.408071145269,114.892924079648,224.048669923475,91.339821805427,103.049147775048,251.645133503823,97.2501104127733,132.658947629426,164.261436549813,64.7211590550312,126.708875859759,165.155375658869,96.2849215025162,227.316364039142,102.546737012291,205.189663995323,277.641206165012,117.451020312854,322.605918927431,-4.2211320340555,319.143995955566,432.75046684282,202.688327012641,435.892412009885,114.097258185051,418.165255405912,431.017477919239,220.601471213149,462.501989038666,317.302361160511,-39.411097727333,0,314.373697566803,262.507669285206,28.648096253978,-43.0032804726665,203.267747208831,280.985367465783,121.239618166353,-17.2611436816828,195.92813695473,92.8387509352757,42.9722421829879,140.762497292993,152.436897250162,141.869846463672,161.826972987234,167.391240607187,96.3944384416178,145.251357460406,119.217115514507,154.747932868705,91.0099018028623,171.558281753098,133.511789483389,154.377052310886,112.262432765586,116.22060506636,148.723765888331,160.27285724448,108.800271543331,151.480039493513
86.9093549943806,125.227075306816,118.898633453409,109.295181638125,160.827848747702,113.763138498438,119.429239423536,204.966698265103,114.035469546823,137.318613856449,162.613408578009,86.7067219269894,145.872383397368,165.62750976441,134.316772703864,230.21220265272,136.963182101267,226.796328111978,272.61568842179,182.686397067012,336.293674178557,93.3146892161906,351.649823171725,407.421361571122,274.929027715045,431.484316347628,168.310339245068,416.104367945218,404.055069356926,251.194414064899,424.296915021429,265.244690440546,-169.314126577249,0,323.654160719796,250.426952869969,-70.596306007762,-249.07912914449,214.175297097121,284.561722811022,97.9830540499198,-167.206019981788,174.078514270745,1.0141985614673,-129.632812962268,130.574624656214,120.133141249327,118.82694802526,127.401612387089,123.181533989005,86.1075011239346,112.336967915578,110.188401384048,128.359821219877,86.4556954190664,134.242845263975,117.734596995982,128.247034321578,108.389019937711,107.763728819138,130.137889067661,125.587241379093,95.9740512816768,124.916284268464
79.1985492244627,72.2476217727671,120.594615425543,97.308557537905,104.674613005649,119.58552322246,117.450783953408,158.692483149316,113.562149091265,131.10759029464,144.896626314754,102.991855746933,145.913035007663,150.219478609881,166.568868632655,212.935018749947,177.055141831477,225.554448092126,235.541257401292,240.415280781328,294.138000386833,203.162211064398,326.302598447308,320.806684040833,295.765547377954,359.960631467471,209.358469110802,360.555137640313,330.177962404462,250.262991401753,331.236029667518,177.016229779128,-224.614982577068,0,288.833272072395,186.701818791856,-135.630491592282,-339.803215087955,195.135255088671,235.319624183301,42.9281978891676,-242.735695717686,129.497440149985,-73.7100905471465,-243.881831096594,93.783291228577,70.7575999762441,80.5611558998435,80.374825929348,69.8079495645415,64.0376082826593,65.4768257643207,82.770275105827,90.9130508799388,61.9790044923212,79.6877942171565,89.9397390569303,89.7431464576223,88.8987384639315,85.8324149979171,97.5756002994134,81.68094724395,76.4207851688556,86.0428691927031
76.0757112542702,32.6758356949656,113.497605477604,83.788592494229,64.2151975416206,106.095872348739,106.238988150788,123.361223677093,103.351268305657,117.677099935359,130.35408336942,102.341579402594,131.526003225896,135.018497485038,166.349520296016,179.946058067856,178.399615384108,207.615149333162,198.038965604576,261.68856550361,249.910306056402,253.174513862515,283.303394944515,248.850466385498,281.713894535754,290.505479283115,207.635456238605,279.15217498709,291.820406906319,222.235765429551,263.109635506119,127.047913979206,-153.679822305652,0,255.557631008427,136.648852195179,-127.142489549921,-284.508485641806,170.311633226906,188.090977200418,-5.04840183782385,-213.894778338878,93.5871469387796,-105.429491427796,-253.611743986949,62.5562241041573,42.9024430995978,56.4039913212829,53.6467092209674,38.1575537454963,51.9930505516587,41.4658989155326,62.749394501357,61.179917787226,48.315751504802,42.332352473138,66.7813464765983,63.9799008880784,70.6801268140752,69.501774802355,74.0353903564762,55.8262190789481,59.297023216664,63.9937594697042
102.07656402804,22.6182564541274,121.269683027977,89.3167752946809,46.9841526186661,104.42446767245,114.573596287357,108.506186623002,107.258030491208,114.40196443506,142.168365488288,100.989445769777,128.854557148561,143.359564677628,146.73534864635,159.03586102664,148.380111947086,194.388139201645,197.302727742234,250.118342775752,246.480279151891,243.50318842457,259.225348514209,254.940990780922,259.059245117983,271.441914378294,185.748800184602,188.824556587731,347.610668455363,191.453897806295,261.067899657404,184.155850077247,15.7836724526846,0,254.293418390638,176.275621463248,-34.7645880755084,-152.547802156728,176.409283045001,198.200108178509,33.8168049865578,-105.470971381692,115.824325337759,-72.187837000962,-171.532582693826,75.2943826092481,64.037047833021,72.1290650305869,68.4484425101147,53.7142886076798,67.8652314366818,67.0886726302086,75.8263202853172,66.2676655458023,75.6946786175945,52.6225916216891,73.2257876367819,77.7817174292906,78.8074801618283,85.8809649962347,85.9758904189137,67.5307485468072,62.5770517971547,80.6281181961037
125.899896227303,22.7518274138661,123.823274917856,94.5871784485107,35.1657200029447,105.74035155913,121.731489195916,92.4573134517609,105.643117538306,110.722346997356,155.174772339307,89.5566760051429,122.29895317017,147.841518954584,111.291757172271,134.983358416034,92.3427549697888,164.864444642905,196.313661470679,196.758883242079,233.903288840061,184.991070051861,220.747864082459,268.002052992776,206.062456653247,240.143084122327,146.321246739604,75.9999346408139,366.562280598041,153.410385907031,232.435471795679,241.99082602164,187.660747330646,0,232.825946647639,213.453160299942,64.7930788567399,-34.4395373134423,178.168669839719,202.921511320121,101.807623666925,8.55329134714276,149.157072577742,-20.0707449519347,-75.3549906340349,96.0488974369282,90.0607858361356,89.6696440383688,89.120481160072,80.2393236367208,82.092927623415,99.1708913911722,92.5060580433764,82.1641423098369,109.253359261428,79.7369524869757,84.7541036619276,100.688065818259,91.3998419819259,105.997026251524,105.996916456169,85.5599269978399,67.9805693447236,102.230092332878
111.518677829815,-9.14171662018695,91.4175193797388,70.6397188002678,-5.15604102072182,79.9104470216947,94.1084254985136,46.9048505764515,72.5120917300832,86.1512605425293,132.287845694808,52.0093021299516,82.7353432304097,115.074401045907,53.5051086576201,77.1514427098895,3.50712604350642,99.9159922183513,144.204327207125,107.020733376461,171.568919871799,86.0838069647842,150.016950216153,194.015796727017,131.468998843776,147.629395088818,81.5978017256429,-28.7281177448432,191.468975163074,107.023959714334,80.0456397842961,152.641483419788,274.827552546515,0,150.138675679817,114.648890759833,80.7413213282014,15.9620400555489,130.299689098793,122.124125753215,78.5855909910148,52.9170045962705,110.963200211846,-23.6723031540476,-40.1094053091275,74.5608942828538,75.7620882891327,65.7265108835973,72.0409973123718,67.1135454928191,64.2676465240774,85.0333474470512,77.6237286682567,62.1416077956963,105.579592115678,71.3604251410275,61.5921436754236,88.4877847393021,73.0173872554735,88.1603930706745,90.3672633692472,70.4518543686246,46.1035071615434,87.6859745540786
82.5416890171547,-60.8340686633732,53.4368651510121,38.5689282368721,-62.4577108739446,47.5478591013667,56.2047248007568,-9.89189983799075,36.0694909834035,55.1383844648649,88.8642051579186,18.4170160913779,34.8652377649991,70.4315977736092,6.54213643749546,12.2398204608424,-70.0132087389534,41.4361312267394,68.9374352627052,42.4333728813009,103.356109369002,18.6014870345113,91.0756674971007,68.9103745350898,97.8600777207256,51.6560411644807,38.9935284294789,-73.4761427271853,-76.1049712846444,84.5106362160774,-131.864336505786,-18.0597903024019,288.60945550388,0,59.0099704767443,-50.6144968540005,38.4178947213712,26.6668845783061,72.3718863602045,3.28000187810814,-11.4331131284575,46.2734705949469,27.9235953788903,-68.11842598028,-50.0099768950345,38.4658659868654,46.6576949672762,28.4444077858263,34.6212272002493,30.89706760891,40.0598976742374,46.6353731539409,54.2384047534969,22.2909619989982,83.0976346928159,33.7493536973463,24.8624717379971,58.1626887241175,40.8308898747993,55.2724459032248,54.8175446290268,38.6151259343613,16.3621507136754,54.7882977751832
61.1074066638863,-99.5583314662612,34.0971242324899,15.8247265975532,-110.487474075648,31.1431856279818,31.9165870815789,-59.5279500908589,15.9969008913089,26.2839093061839,47.718263512584,5.9349793800472,1.94128828374097,31.8771175709139,-12.2803211733923,-38.3954845822159,-88.9126348039142,6.08614959442278,1.22244730457818,20.0168102764148,38.5874685464048,22.2111456553057,36.2157622738603,-45.9076216325201,91.3430884531923,-27.9293302309285,35.2490894992626,-115.726748409851,-237.197561754215,62.9696596794231,-295.908342537365,-126.090614765771,266.488074447753,0,-21.4461264293131,-123.919070990563,7.42492350148093,51.521925135003,34.6782376995436,-83.863082919388,-73.261633320841,52.1922484800191,-33.6487751213958,-89.2184388648073,-55.4770530097132,22.4659192710546,28.3551266472385,10.1671105526975,7.20069823154009,5.98990558345496,30.3892439349541,20.4666676798048,40.7578672610156,-1.33417248549844,65.5028489959164,-1.59285379013332,4.56070811518162,35.9818288924454,18.0407699754655,36.9214969368025,26.6944344347319,15.2335490790729,0.099624015587288,27.993481471571
31.2804538537056,-134.177058180127,6.8518074583283,-18.9755408413099,-158.655527191078,6.55854637563228,-0.928362444723841,-116.571847263156,-14.2966973324493,-20.2731496141806,-5.37893020154234,-16.3467632627579,-39.460960691392,-24.9754598087672,-41.8872660265726,-103.55776951591,-98.3726733170018,-55.227677271919,-82.3372543454105,-26.9171672844316,-67.7108510502377,15.1416857706986,-71.9349402511558,-163.63593407341,21.5974927246173,-152.869741619851,-2.69345708867609,-248.313165692219,-315.595447388029,-35.9347445142003,-422.585957883395,-197.875634613071,186.482573205317,0,-176.446132527335,-108.327033168117,-7.54021229077375,88.5627104212111,-39.4140126069607,-171.338501041698,-102.072035605265,70.0151847636221,-83.664215867614,-79.3894627030573,-52.9390098243501,1.98363069355224,1.16921617818525,-11.42221948716,-19.4693263537245,-17.2597480936493,11.6441714976685,-5.02166842674943,17.0032896354773,-24.3505442680895,39.9121944745554,-32.6897752803032,-17.5002530962685,5.56459452962791,-8.59525704709985,14.4026661142105,-4.52805696158008,-12.8323590142315,-23.2929300840829,-5.3422541624569
-6.56950309207541,-177.399463921908,-31.8776860574423,-66.3655500208607,-216.439356000424,-32.6058627291898,-45.3688778782563,-178.962437488993,-56.9617632804435,-78.2691212437278,-69.9592134310626,-54.6120796848228,-91.6117351842651,-93.2990584841852,-96.6994029489844,-184.432229774387,-143.097902153045,-150.752494966821,-180.675253885944,-123.667154739341,-193.84070724417,-63.9926499166881,-216.208101440842,-287.942280735226,-121.320664073681,-321.206021715152,-110.750866829364,-431.500236324915,-454.537866528444,-206.45669041529,-566.625345296135,-301.169888044655,74.2626375438612,0,-448.464867317343,-131.134300314263,2.72971897600074,106.593191728321,-184.440190872227,-298.858391803451,-134.728371250264,80.0278061310077,-152.993563350446,-63.6973393600122,-55.0913959005448,-38.0075712197507,-39.7268104803863,-52.4225326749261,-54.7761867051011,-52.0413867723333,-21.5994464341466,-40.0019308886221,-12.0998302137877,-63.0233790122229,7.63078515390521,-64.0623593313064,-53.4128412598941,-39.7749587927574,-41.1740608217789,-22.2846986368563,-40.5832499049696,-52.2827191987582,-59.9920765020084,-46.8520606593931
-27.985068949691,-212.223643008841,-49.9417326603875,-94.1743881343766,-263.637794770939,-52.5469915913406,-68.8726645657774,-219.976484516413,-77.3343337986605,-114.197873184138,-113.958827977031,-75.0786363535647,-119.735687227701,-133.957846786031,-134.951210348278,-238.723291545686,-189.294817659507,-220.585489779209,-252.176773811859,-210.144113184756,-275.955975683595,-151.393460778969,-329.013193876753,-380.469451047064,-250.338511686483,-459.893763407808,-220.726564903591,-563.200145204723,-636.297849223907,-350.602791563956,-729.776256276093,-374.897961812419,54.4582905481324,0,-734.638173945542,-259.86785138643,89.4097246538525,94.6461547017856,-338.716513016311,-424.028692503695,-164.267193976692,107.653442783474,-225.850155603948,-38.2367957887594,-65.8721521531042,-70.0208934372962,-70.4507055561491,-88.6821055562367,-82.0416019538141,-82.4377326358569,-39.0195328047983,-67.1174476623556,-21.2354140188163,-91.5083257607084,-8.18182836851224,-87.4648014587032,-77.9356449927444,-74.7201121005284,-58.2082424862344,-48.7796457949892,-64.3865486848729,-82.711390553119,-82.0440649275844,-74.9469833029331
-43.9713353795958,-237.181398769348,-59.3423227286612,-107.839434266672,-297.444607924846,-58.1058512817632,-79.7485920052715,-246.303471532772,-82.7461347526522,-135.194969379822,-143.472441728587,-80.6970531316181,-131.356081000581,-158.802863144732,-145.132732911823,-266.004067030295,-204.524531328467,-245.227336537649,-297.222323372624,-248.745034019442,-319.823031341358,-185.197483087349,-400.633935567955,-437.997652549239,-318.420814766498,-545.971538958715,-277.970201057799,-629.546925387894,-736.879897309363,-422.185611734958,-882.922736460454,-393.845015615718,139.91953478147,0,-885.721524230926,-458.842047769059,213.521583362656,40.3594924853548,-435.300772808241,-507.237729474585,-178.12825455038,133.257337937215,-283.842011614529,-5.57178399385996,-112.6262241037,-90.4109016046523,-96.3550773467849,-114.135638991424,-105.813758288979,-110.608142184447,-45.7835239806795,-92.7580121018581,-31.4451785623064,-108.744419410777,-24.1237741207489,-113.770617822207,-91.4374152383637,-103.082395812163,-70.6400529408611,-68.3813349168798,-91.5202300242863,-109.951774141866,-95.7105683158342,-100.206547615982
-80.1565907869659,-267.401991635301,-88.6038314615934,-135.337437916782,-335.517437263077,-80.6743031806006,-110.467569724212,-281.158841769583,-104.569183739796,-166.552541195359,-185.461455829617,-95.6742808492278,-156.445646875636,-198.230136687912,-152.478711110823,-292.408117281574,-205.71828566388,-254.217731233961,-338.024650527374,-253.57419461782,-354.898675815325,-182.628523564051,-444.48399368152,-479.006866868374,-345.129928757756,-590.923426133776,-296.892933506963,-657.601015188667,-722.142047680727,-452.774877602915,-949.590832935759,-432.049186861302,163.00839902519,0,-847.957542188656,-622.440373368221,242.067881604185,-52.7456570139716,-462.628449656866,-556.201855068798,-174.798796353107,79.6324729995869,-325.153598298901,8.23142997363269,-201.803808922217,-115.684640289931,-132.449856860726,-140.560983361255,-143.307631239777,-150.655289752774,-70.9441000206474,-130.734963410369,-65.8005563300042,-138.619659496317,-64.6304477246326,-152.810451784787,-119.521422666186,-143.029663695562,-100.528123706467,-101.218832688692,-136.98491829342,-150.154013225739,-125.4815843588,-140.402258651229
-106.733549530351,-284.124127854976,-104.855505553598,-152.654666453547,-357.998716405473,-96.8193976907177,-133.682987096816,-302.467306447446,-118.137557504673,-183.55237580608,-211.046184441886,-96.4470121207845,-168.03414472983,-219.858868119987,-143.957615889443,-294.875645675262,-194.056395316327,-243.372187438107,-347.88906013978,-225.6042745779,-352.711462523537,-161.650289027283,-431.207272340128,-483.60690032778,-333.041022732513,-570.324364834603,-289.351779553498,-624.9602796402,-636.669899246281,-454.171916554907,-832.841646992189,-472.179567038049,37.5042801382365,0,-690.255574565237,-636.976201640426,141.334454268715,-123.933977969283,-429.598280863508,-556.030904826899,-131.523049907244,-38.8067380827343,-328.194222931143,4.60130486050801,-254.547348306199,-124.664056844548,-146.322081094803,-145.02372954406,-164.883470186353,-170.191601822328,-92.9118497234525,-147.919588900426,-87.1378057068858,-157.139287749142,-88.8733006750771,-167.638625993719,-143.494745984442,-162.189525055294,-120.407237443527,-119.630617826836,-158.420982627159,-169.080091016573,-143.754383737543,-159.124527826831
-92.02520947686,-266.118799327309,-79.0294681798698,-133.255331143752,-340.688021036997,-77.207644957092,-113.039128040914,-286.554925172539,-94.3038152176659,-162.497290266823,-193.406715804156,-64.0192687797738,-139.152706268335,-197.222625741507,-105.280919047732,-255.898962785844,-159.766108170434,-203.502001826331,-312.585747344791,-171.91340179544,-298.697357138908,-128.258642403917,-357.168022367095,-447.795801743668,-278.293535314362,-484.65907267782,-255.746110884179,-518.499523312757,-531.098293103913,-407.302363907828,-582.134489144164,-440.008254414727,-135.140196292665,0,-515.377759702475,-503.700792183315,6.50147662422057,-135.28008676876,-361.091870775111,-480.731126198542,-45.9278470930357,-130.027729514955,-276.004373392338,-10.0107013919418,-216.868695156673,-102.548997784681,-115.66896997471,-115.979556317582,-143.526679671571,-142.994558711262,-81.021986513652,-122.306369376699,-72.353937371964,-137.248372973339,-62.9321825820847,-135.708821304618,-134.759007362936,-134.349121125452,-105.577793653931,-99.3643548202703,-129.096815026492,-141.700535906041,-123.904346273407,-131.315673737965
-85.48526171805,-251.40688832599,-64.7942596630382,-125.057428302068,-327.574606990614,-65.8103558354273,-94.1493256771251,-276.849164394533,-81.1319881022582,-150.948001616674,-189.420304323054,-48.2637400339692,-122.087757339187,-189.543641703005,-89.1380346534603,-234.969889200786,-140.54671362574,-184.329915829833,-296.961212142084,-150.413611366721,-259.505542620162,-128.781673203913,-299.754657730075,-434.885181123849,-234.333721074657,-414.620864524076,-232.056631692911,-406.263593875104,-462.524271970653,-335.653486606687,-387.632428280599,-378.563229029203,-267.679235829073,0,-381.207088707998,-345.597194903572,-101.192801841714,-148.888374829803,-304.678566989035,-366.194727460519,19.3772179653822,-183.87002996352,-204.49544299995,-70.918167001432,-177.68374162387,-99.3120553533869,-98.0189408985129,-109.519843865724,-129.347009445247,-124.450115133313,-72.6975285046686,-108.790569288644,-69.90613648899,-125.596915830802,-45.5220642340282,-115.400006745617,-128.915877058338,-114.645817634983,-98.0916706384357,-89.6373321218304,-108.54155431105,-125.964183676917,-110.376392361566,-115.922032973316
-142.521187612754,-290.693274347126,-118.905670489771,-177.847989255752,-374.426070997767,-114.712665283728,-137.700953954611,-324.803121976008,-132.626026487055,-201.01745987609,-253.736946376276,-98.6361283815612,-172.945502464249,-251.076883168319,-146.68029814435,-287.150704568799,-185.82520745035,-234.124169853768,-353.606708052549,-206.467505814841,-290.352095200019,-207.485387754285,-319.549535271037,-485.652903823483,-259.710536447344,-420.512826115573,-257.849468930974,-364.448842863485,-454.492089813816,-294.370292131629,-331.641151456873,-357.729739771649,-375.333056596466,0,-298.390092077499,-249.940143029854,-190.257816434373,-230.985166473796,-281.590316834822,-273.84945173258,-2.22139687353077,-245.03182607067,-167.382601330669,-190.452281716929,-226.698449358689,-157.084536443818,-150.153385844359,-170.319179160858,-176.556425893489,-172.628201081983,-119.21752911998,-159.394302482675,-120.175699832691,-176.079408968987,-97.3598922890874,-163.487756372328,-173.190118878467,-162.065521382902,-143.049873155016,-139.936503207531,-155.065105763942,-177.688355099593,-151.709449561269,-168.033629916427
-212.629585289819,-349.910000356691,-194.252720262035,-241.612696638854,-438.915806633011,-186.535039581424,-203.826173477683,-387.326809995687,-202.692671777969,-266.865936043428,-323.012064211879,-176.38582289587,-245.765423678657,-320.487846267746,-230.460571291406,-354.310919037633,-273.04822812669,-302.317726444775,-412.258763551629,-286.114318688482,-328.070430655274,-314.745246730248,-350.09066070444,-521.329145771398,-309.90700559021,-431.837351354754,-299.924519850979,-355.365200646922,-435.07473529155,-269.967701004522,-299.158972151808,-321.341274174953,-432.480647284881,0,-228.799692067247,-178.513158570856,-232.045772655605,-314.477151768964,-251.42696148227,-196.362534588647,-79.8395202922212,-270.56433746647,-154.728516359919,-285.304594124695,-275.778997084743,-220.672338618554,-215.894445486756,-239.020164901155,-235.492285730193,-233.645841050354,-181.826061905866,-219.502544241991,-178.681656680925,-243.562277930604,-161.788689871044,-224.329293827839,-230.48668853554,-226.86193603718,-201.716311949192,-202.014577596817,-217.802767258472,-240.067431677733,-209.353893682649,-231.337701183407
-207.60391885128,-340.641428735429,-201.63588440947,-231.049863593937,-423.126111515882,-203.939296037724,-203.962665295796,-372.609521769963,-206.963684502284,-257.23647029891,-294.909728511606,-202.405889279862,-249.169520304804,-297.642302482977,-251.520943496735,-333.198168053779,-323.524368600596,-291.406775913557,-362.670045446736,-291.907105498186,-270.870848749625,-348.461295890374,-282.68380871705,-437.546759560681,-282.786843473403,-342.438732434998,-283.254264087922,-277.401850180048,-318.375816443418,-198.070772204183,-179.958008556439,-192.358369284247,-350.076316784913,0,-119.901743464675,-63.204570791453,-169.267107610432,-264.067640174868,-174.467197385628,-85.7497926390872,-107.146087811641,-174.744600420668,-104.788240077634,-255.209090100136,-186.737949270937,-206.342745298597,-193.940992667627,-224.091623613778,-214.4803683119,-207.76743310413,-173.552513726153,-195.60448542646,-172.490123206289,-236.556830776684,-142.600434087456,-199.62540685796,-223.367506937917,-212.114236486758,-198.839235290134,-191.504737480578,-204.571335487507,-218.32740977026,-206.481140996505,-212.131417600648
-136.205318732366,-248.350338026119,-140.952367733155,-149.924395516629,-316.854033498149,-163.356499406089,-134.626027240325,-273.79266993951,-148.954375920773,-170.336371057095,-181.531300658679,-165.840317777359,-176.453520985598,-188.82589175097,-202.646325182911,-224.909236620966,-305.185259233861,-198.129320339328,-216.322056384298,-213.304602941194,-131.711917163736,-287.788607846595,-131.038334745968,-256.492290080034,-162.500209415751,-173.703041387702,-202.145287185354,-123.952598502986,-135.019995655203,-86.1134438687613,-15.1213249739163,-20.9142387099659,-152.588795521553,0,15.1357193756053,76.2508394156695,-33.405318288958,-88.7675698842977,-79.7643268283733,48.3819199409506,-55.5552390257452,12.3196434366725,-8.12930234956213,-117.764379557963,7.54266310300951,-123.839480212818,-89.457439749942,-132.000685795094,-118.132456022012,-100.993108753541,-90.8741657282758,-95.3624940901966,-101.418567548606,-152.676341924768,-53.1427402344097,-96.3496943496819,-149.844482307062,-119.703745515621,-130.338797883519,-112.60540359346,-120.461849762329,-122.60011019686,-139.635995812821,-118.227508624378
-61.7494082201956,-133.461025167625,-71.6651740627044,-59.0261111307226,-191.484294317713,-113.552971530679,-56.4159849401554,-160.001877672097,-84.8176690879178,-72.9509633963791,-67.1236066124859,-112.427601182049,-87.2990662755743,-71.6392406912366,-138.498623107099,-108.178159443275,-252.326229155807,-96.3304059756023,-62.4226672650112,-106.983471346618,4.65046082718195,-187.84501537389,11.8504311668041,-62.8188939794688,-8.00410624370074,-15.6412872087122,-111.462314623484,29.6621638570436,42.1539539190239,13.4072079242147,120.981815067208,115.608900730899,21.5966250179338,0,132.383071361979,186.862923224011,87.7038303571201,60.9593654475863,-9.08877321174113,165.265458458996,2.66239760663812,175.926617885403,83.6810829384402,28.0629093226557,175.463599114907,-37.5360342788583,16.0180472804532,-32.3486039476346,-19.2689603227611,2.71892052301167,-0.917780031111503,3.9401356579648,-21.9150241535122,-60.5182113900798,31.5381096709245,6.95680104554354,-65.8308526986892,-25.5878975447399,-49.3372330313003,-29.8909321816672,-35.038793761973,-27.3207497955702,-62.1877103838931,-24.5853918812882
15.8114212611739,-21.4335690773576,-0.782123878652209,29.502260595365,-74.4889301371198,-57.6202388117834,20.7907273959627,-60.2916898478594,-15.362912816302,22.5243368506811,36.7356226564979,-49.5329495793017,4.7212261926527,36.3695845683912,-68.4300996595492,-3.07773529926186,-184.975692697082,-3.13489289006624,80.6968674924792,14.0972575153646,122.548896140667,-65.5229907941635,126.972332745884,125.34001714537,156.319059495134,115.126904856647,-8.31837483969353,155.454906365265,221.3861798971,117.658327376767,236.956937185842,240.040579216875,121.263038011722,0,242.973920529736,284.221902223325,180.807482069758,115.036880058662,60.6054491720507,268.274432492433,32.0265831280958,275.04229108139,145.412838875636,145.248415325487,277.073070713519,39.6785382860063,100.638622609249,56.5467926099692,63.7452235873127,82.1018195133601,72.9632054067874,84.4501428891289,42.5687338898326,19.8853887227418,107.963685319411,92.3613786908837,10.8475806515897,54.1675753618917,25.0250867617482,44.5750261701784,41.942189990186,57.6660780575568,13.6233760490084,55.5923511143955
117.912618180195,97.1511048693119,90.8128492243559,131.866407071625,49.7263730253964,28.6925096034326,120.01920906705,40.3858831354072,85.1737482749265,139.209710363385,160.544221873418,48.1339746677565,120.378286023868,159.149797566877,40.6951506384343,120.294531506859,-79.7426785723604,116.046910901913,233.43104795737,166.773120460858,246.59392360608,106.634691742209,251.670467564297,295.736928127042,330.109071429299,239.114475212587,160.240691533608,268.968691878404,396.118013070011,259.820156664616,337.590383254273,358.732545823848,177.24907833372,0,349.220016727395,370.346205414107,259.769518445048,110.892484281957,154.223113745768,346.759035377197,40.895718898727,326.928265274914,161.378488904535,245.121717689689,327.210439922245,111.589096105784,174.789260092354,137.921801240823,140.584637218974,155.300810408335,138.442937477175,162.232279176811,93.2780660480766,101.373659626366,195.789996440956,174.980338215905,84.8660876711169,141.154410556389,98.1178441446907,128.689606185766,129.417081500811,148.385254793688,99.2073739918927,144.769379319226
189.685996224672,180.409070349407,158.979094739021,206.572938842375,144.197875434123,109.251279173111,198.73697797755,115.694277634691,176.376006068172,231.889173869544,254.716206012632,149.262180767185,220.662043195171,257.668586783207,168.077473830521,236.613072966709,66.1160535038337,237.310263351051,348.86777185017,317.636570826356,340.025720768481,307.439812736854,364.430189332932,379.829281580548,470.314465954132,329.506880348276,356.417082028132,350.320459267049,468.562486461242,375.5143768329,361.744799057055,363.515337788544,160.707015900657,0,375.067560257789,343.402176460034,260.197879708934,54.0821851884282,210.632383152727,320.41704179001,1.37209833140922,306.857228089218,78.42722853363,290.667473848815,302.128504184604,132.201497567411,190.131560903241,164.513696594503,163.670598895633,173.016495859514,157.350582321951,190.055984599556,96.1247730096897,141.083484759438,233.763273231104,204.430979753433,118.688334002999,184.811289441235,131.638423474185,176.189411608197,174.978993585346,186.223985199678,150.303808071739,190.852652507481
175.019315264348,171.040857874669,151.146178205208,198.506024084903,149.478459315631,123.144142084996,194.855522814453,118.847605463559,193.073892303908,238.042390982225,253.88913601897,184.383368459953,242.2669806932,272.487421776526,234.789681327042,281.236171748356,182.003915136843,286.031846540447,374.897167002701,396.17035094702,350.534182932575,452.296782330102,394.11889102236,376.43211893963,526.70627511404,356.441244242328,468.84557897281,374.039133596414,424.34396478621,394.814909429528,299.648218424277,224.137797729897,86.0289751230978,0,295.832323193467,165.568783247771,156.641734765696,-22.7480378953915,180.533208077062,172.088963026666,-65.7284080712007,230.946318271408,-81.8285722154853,266.473156897854,227.674930546631,85.8228103717246,128.956342065068,121.338683778911,109.989569214118,104.030151618465,112.005220953212,137.519053737463,42.7854672645157,105.55256307568,181.190072742541,144.159733969608,89.3851677069766,138.187223762389,96.7202620953739,141.306087390889,133.673559565345,129.373702335848,126.305297505876,143.267844827572
141.491851171547,110.373534806965,116.196485781601,159.976476406629,96.0266511981326,97.5800480847949,156.158162768967,80.3183181755473,165.107542765916,206.629045620723,227.103815389739,161.716777187598,217.447440520518,252.279334994151,221.32643687769,262.538802145448,190.124258389184,258.972864460838,372.140296300444,387.590999890127,327.387810899174,502.002624798209,348.012671595647,429.933878297851,539.079191122278,376.913553773788,501.198847486852,394.520663917428,438.261834800742,398.248479627321,269.862032143049,138.148184604192,123.821214578956,0,241.380372439408,20.5451401040591,79.5407947993205,32.5007291914629,155.182839910884,52.7369903013546,-16.3992941742426,232.436664557323,-155.968953391059,272.200795248488,225.429434950191,59.5423680902442,98.9584367909612,101.022013575667,77.0131079905655,59.6707847390692,90.1325845522022,105.308982347271,20.6180624005426,70.860244487261,146.440716264193,94.3901813766964,65.3743824766071,94.395503640534,65.8483911363501,100.881222475589,92.458667243201,78.3238246529229,90.4110624083846,95.3537534177323
186.022434115389,84.2869329694433,134.311621330224,187.680437495136,64.9788135782754,106.645793966298,179.958118630655,71.0026806696272,175.598809745851,232.602928156854,288.690223925561,153.119390885493,231.629082790131,293.362290601741,195.806076528082,255.195620139466,112.518436562731,239.630401000662,435.237807957968,365.54538888712,381.110714506751,513.941350646712,344.499745991493,644.992605349745,610.143414522544,492.353400122688,559.565879575615,497.00779042061,640.157452879803,508.875671465583,376.50973929012,273.110703878239,351.75173501189,0,332.414990473115,92.8957950810678,125.367062481178,286.286339603627,242.256428940111,105.176508927023,216.931445702427,360.299399401275,-33.4992343333627,373.329032145387,332.718982367452,116.571854686808,178.440955153842,164.80931698437,144.804583888768,139.818177711029,162.220597905145,184.22855470475,91.6621137170121,110.775328248249,233.862567619138,158.27116876511,110.322539947568,159.487377683435,116.845261645355,148.832684133464,147.507322416692,138.210965635698,120.639314456621,157.678594045744
260.012787159253,79.3653590772638,174.477056037319,246.731504884343,54.8767672506106,135.307369397792,238.779288653305,79.572521191069,210.523842820789,287.240035228453,386.266201688494,164.276512612012,269.845933611,359.240237242432,193.764410360539,269.619211312079,37.7395880824133,261.323966904913,518.633466543283,386.224343645418,504.247050629596,535.407347858381,439.868841291406,891.133773132205,736.561544917725,677.86663011115,642.947747146343,646.788473345489,888.066386829055,669.102249916294,549.112370702111,477.092985593891,550.002757312835,0,501.170427273912,282.232704246396,170.246618056299,541.296059706834,381.269726188405,259.090927575156,441.036479270383,424.329656982008,170.703616534758,434.217896978431,394.833497435365,167.568750597065,255.944326210343,214.740919226946,214.1008593809,232.468055868762,235.943227947059,269.703707312203,165.882480754933,151.704965766185,338.082864949786,240.190977831878,158.558300516061,247.051792386396,183.524146510215,214.231659734093,219.306875836973,222.671221326298,166.483613957568,246.902928169303
244.913377174512,35.7082828681355,154.039205655563,227.69375726599,12.8378968480042,119.105023875934,228.242850928969,47.0284306621433,193.069344556629,267.004067371686,369.24586693477,149.264772280155,250.670621919099,332.630296734432,186.996522326498,246.973709026811,21.4552207569686,270.021124721821,491.610746047958,418.950897834992,555.296699181815,550.632297149687,527.297629300816,941.264542772627,791.247516297592,768.140305813669,657.665978640085,703.841158827563,940.473403377566,713.691895138805,625.554273433836,482.47396896865,480.424828891421,0,588.310288905924,352.593071246411,48.3805773553553,560.061060824758,437.170116847395,340.085653222483,413.269581838488,240.702673067371,256.548933045895,285.325398437382,266.875798610597,95.1791971033096,178.842911078203,135.509971133441,140.08354932563,165.851834464802,181.007949244858,201.276779566087,125.974676428467,86.6358122460035,283.742482518321,174.408841083417,107.516878005955,196.285620988944,150.746456815698,163.572167235494,166.584702404517,174.881378952284,129.30604305564,204.356204564191
149.003729956408,-22.2569287552017,86.8075939136918,139.083722685328,-44.0471744380378,73.028138487224,151.793104506583,-11.6336640135297,133.113601631234,177.781818335845,235.742189689259,124.376047007699,183.700260569628,221.45453845793,178.561089832224,186.869123838583,74.328203445937,244.097442051039,349.567131304143,434.226530182028,458.579808759307,565.629011982001,508.219688872785,744.203966097235,723.642033183163,675.704356826003,607.779185783062,612.071936218812,760.81709619134,621.651652309894,553.196260204514,290.954722374424,227.176520792855,0,550.416953232741,271.402485714832,-175.344188569457,354.95322324712,400.425870849452,308.469069758695,175.735439412123,-77.7185949940448,189.169772344666,-6.0914332538229,25.8803100944306,-54.794397134866,-12.4366288821402,-20.0678135834479,-36.9090850209993,-20.3147746857359,37.7098639509159,17.9035531962033,8.19581485802628,-41.2813649238905,98.9065943848367,-7.20517278562463,-12.7565563945013,28.5528980496117,41.9466633028522,24.3244627414714,15.800923452038,15.3101857984901,31.5393492665652,49.7287034970573
82.077810874793,-34.8196742718372,51.7961237830155,83.8424707100664,-54.1502617804776,57.9132795960968,103.927704016491,-30.4607191405185,105.093486853005,122.791040116477,130.204388937669,135.854476172082,149.295294950905,146.25560060814,203.653859379073,154.956309186928,171.504412420977,227.873241110282,223.685028918863,453.527723243503,302.326585173016,609.490559160208,434.036472081713,451.40239315924,624.571396118047,502.444783432756,562.754892765664,472.463124725122,513.780034833755,514.950736529274,431.152812410305,136.576483694436,87.7633841765631,0,481.948538293272,200.142419159725,-253.168604147995,154.599299495193,363.573277534845,268.306493390797,3.47171589593765,-237.250137629843,116.010221897231,-193.005891954359,-110.626639637697,-117.825834187851,-120.851372227273,-90.475829570023,-131.882901414063,-125.326071386626,-34.4616267488118,-86.8110598441417,-55.1895292438146,-95.3821777832894,-21.9240838540837,-112.582421963799,-73.7088512966546,-80.2535926177043,-21.5643974753484,-55.2121550766602,-74.8756923211953,-87.3198216697891,-19.0966073505492,-54.0658710878646
98.6320648120259,2.92300664574216,76.0590715775296,109.788610708734,-1.59113887581935,85.0879908696281,126.782190654231,15.072837908434,132.749625517037,149.856644029566,138.599750398811,176.161615567553,174.58976323057,167.392635605823,257.905305586263,181.930163923382,260.829812631101,255.210070123552,208.45038495086,486.314186619862,225.420840390959,650.575749428124,409.90505696201,251.48238863902,572.331620389056,400.244651770506,496.628510099266,410.638599848468,343.415524393295,448.801637796364,377.427283043429,157.346282845498,224.752858967277,0,467.212599057167,234.854382455004,-55.8049613422985,165.93864427909,367.151161074631,294.33370416413,53.3397122950835,-97.8761442740474,153.372640357022,-134.565944515847,-13.8212271815073,-9.16670732672157,-25.8574799722136,7.89100532796353,-37.0080131492062,-39.5990072165485,41.3138595539718,-7.58445368749309,-4.86995637063915,-13.7088444572181,35.2680465954735,-35.9624675997224,-10.4625979707189,-22.3178060251434,20.4441190167937,-0.476202728187195,-17.4663592827281,-30.1559181883086,27.8351214543296,-10.7013531103351
155.342101404378,58.2763332238131,116.33021564007,170.177186484512,73.4950315312278,115.437727458998,174.133727255154,88.246574919442,170.589614766143,203.475459750108,202.729547103909,203.365195989021,211.491895508439,224.118994285056,290.170869954878,222.700246031826,294.106680511411,295.763735644876,258.604430774238,485.189964674529,251.986468173177,606.085162286142,430.731052701054,202.496915410418,520.068897379624,379.803189445782,321.779815791764,405.515874068478,261.9171413688,337.8728835105,395.854112564039,278.200440326025,514.230107925356,0,477.353196569109,314.470132240956,267.753670320854,367.357815261365,360.383679863403,345.63613469155,216.68487272007,194.257788799766,250.766794389997,73.0331961212759,229.642886560965,181.060550879289,180.934139364147,192.480053895739,166.486870053314,150.948330721335,188.858290162744,170.488024667926,100.972999233327,140.212368582095,196.076405632268,138.497382783111,115.669092813854,137.231060798756,118.800581064005,127.588008371058,125.431008841695,124.346839264373,128.632057013583,126.556492394001
167.580376265766,85.0385833117642,109.836712093697,181.146293529882,106.274894925297,99.1133954455803,168.213997401826,119.452446244755,151.790153985655,194.715504221777,205.855878995615,172.283170651636,185.318885487711,211.816884301896,231.542545786461,191.961563994258,224.42115592835,255.158594386876,235.909921500504,365.397063523228,240.273987756452,413.634683820057,361.426956911261,171.293688760841,357.650967751111,301.851929483133,35.8720357023312,322.775429217665,214.327488310149,122.851002301638,397.36199689787,366.247342086559,683.527956625177,0,437.612001396741,343.069190422215,464.776053652008,521.117335909983,291.613545847373,343.868495462326,316.283339837514,380.478172701351,297.992734294635,234.36407453734,405.105048869099,288.64119940612,304.304883351273,299.921445362956,297.127943572361,276.103963131064,271.565055806646,284.387688128806,159.733968358198,240.118734245258,297.996194567062,249.850203979058,183.786415117215,246.56964331529,170.696668573344,207.34372084196,221.436250032976,231.048267993944,191.897710429327,225.954062363972
100.15448759602,51.0055624010084,40.7257387199536,112.146252732418,65.1903567609206,25.7762120108266,84.5162519106925,74.7786986318754,59.8631259156837,100.852334252116,111.55091733741,66.9432626241049,75.7556670940119,103.408773123557,65.9433236904829,62.3634721213524,38.5037488463372,85.1709004199736,82.7961001463609,105.428241162768,76.8515132404232,97.2170623638497,140.021231520969,20.0909219991711,91.6769537727569,110.237469793811,-243.129464936468,162.465795080923,163.156756154746,-67.78065701115,336.452949212224,365.639607116967,586.589540422162,0,355.077078268605,301.568678047722,449.734532655318,458.561971187159,189.006420693318,277.669274055981,309.95533050955,357.470477550823,273.064073881354,262.17442934165,402.814716894024,253.760374975792,271.716913818549,267.238066019462,269.865879680466,263.450796405477,232.558741058861,267.176641366635,124.627285572354,218.527960091608,266.24227768403,234.32947068237,139.581306731284,232.015872342918,125.448260570172,177.128252160302,206.605797939317,223.693520495059,162.60386862022,213.447874073229
7.33220678932318,-19.9156099725352,-41.1618866255778,15.5963138482253,-13.0475208907116,-55.4693343375418,-16.3639878530907,-3.48988249737149,-42.2366362254428,-9.89520991025044,-4.41682916971021,-56.3587293868452,-41.3198576146225,-22.6587265799349,-111.300941949218,-77.5407307490853,-168.765530717144,-111.025789098734,-85.9430224664363,-171.763710997321,-125.053440838581,-208.899994137855,-82.6061615186297,-174.245260474579,-119.221474501358,-57.7895187678033,-379.630916224391,68.6850607815425,75.7518667791343,-98.1157574566907,228.236571515361,281.632173475407,325.530387311013,0,269.759159794463,219.692222644574,322.848005188937,257.366229386877,102.710567373255,177.648879101465,245.943530703566,217.46695457495,207.955513980296,199.932232183846,287.92388606263,150.955104435322,167.66913837075,169.062098346446,159.420824928048,173.363461757237,130.006072486446,174.554758352897,39.0312877558874,127.383416701368,161.951249698952,150.248721009419,48.7783595422063,143.485695309914,37.1676935072222,86.6418513751884,127.354588311269,152.885585724321,81.1572745383719,130.210170317754
-58.9973470474889,-85.0945349497731,-98.0569184346464,-60.7398477118347,-80.4053684577562,-104.771281771524,-81.3004234211184,-68.7933938420541,-100.192386629367,-79.0371497908943,-83.3303282056371,-129.25369544358,-100.215731263787,-104.292654972498,-195.591614432857,-142.512331587689,-269.052816761267,-204.652631617208,-164.55728737205,-313.078113860384,-209.156566491046,-362.154705055977,-162.821293807143,-278.946770388523,-189.65154342149,-131.610880514338,-358.79600005999,28.2432840618179,-119.822821149247,-91.5607713936488,24.6425042014052,129.531154680267,64.1639184295899,0,109.387936633544,95.0450053997401,176.969435001879,58.1287765865807,-2.95426776670611,21.7279909394846,132.762941160458,55.8865107520766,88.2194954524907,89.1357831784367,134.385055899547,51.3409536838854,58.5072492716348,68.2615472804244,49.2734929326904,63.8875011570374,32.4731478425919,61.2066093726807,-38.2823051125163,39.3720276560189,51.1202266683562,50.045613268644,-13.4729501953213,40.0810202179302,-26.2604649879702,3.85019873134048,37.6465194656795,61.0584758024569,13.833285031159,34.4545673975352
-118.467072319967,-140.420626352767,-147.671645332701,-127.125629072275,-130.289281984767,-138.487415750271,-131.209400206579,-126.346153301232,-134.035311581387,-128.062907639453,-153.996385568244,-155.632500585685,-134.244815163569,-167.174925872011,-196.655107690974,-164.741744788228,-248.338248762809,-206.042357860974,-205.088465461877,-301.158838437121,-223.979377423199,-347.645001149193,-166.194333776921,-344.435269416534,-203.024493344893,-225.234246935012,-289.377369287687,-108.248471406405,-433.059113422241,-226.13408688254,-319.589455475837,-61.8560485138345,-158.119994811315,0,-213.28038947538,-83.6529366774797,19.3350284074643,-103.960215600373,-182.881399927843,-221.265423038045,-36.251056317397,-112.422099510695,-106.920559803444,-67.0035817268514,-45.5280540826385,-45.7991371499399,-66.7526715445173,-41.0368129060249,-61.2316733240725,-64.12218196028,-54.1545096476234,-65.9552017213506,-99.9703880165007,-42.2737406543187,-70.3867569522009,-68.1467347199753,-58.1652163596839,-72.3807394281243,-70.998686766481,-68.8647364777471,-64.1632136651708,-58.552606796623,-38.5556857247695,-71.9715960451869
-190.104966546584,-192.048961016623,-199.971597727223,-192.808794566366,-173.935150415632,-172.276365836106,-188.914838753184,-183.193234584622,-170.173968714269,-188.620283655383,-236.24349236459,-165.938701611358,-183.04051384227,-237.31847104545,-175.808756269077,-198.575155814317,-175.94064519889,-189.682621956224,-269.217216353879,-220.939981484368,-266.535335116266,-251.095428998044,-183.842025935064,-432.90062955515,-210.410335726982,-344.741967363105,-235.023062555778,-275.332268755482,-663.574192382423,-396.829067611813,-604.148571054407,-236.163474063629,-366.972260890474,0,-577.64943995581,-255.082629469905,-151.482509579447,-231.651785695909,-370.217623231766,-463.182354498411,-202.576163534611,-270.887985322048,-314.95558760266,-231.383923245576,-221.448378431912,-146.386754821754,-200.860252776322,-151.809045137451,-174.878830939542,-191.727923082694,-140.764986880559,-186.455291209917,-160.999597300273,-131.785928237647,-198.843813806252,-191.383512924282,-117.99275705214,-184.902524932963,-125.842745404701,-148.533054817343,-174.549019330118,-180.786855921392,-102.603643697328,-184.533297794956
-249.306396216232,-230.975692733482,-236.693450030504,-242.282144267374,-213.198268603879,-193.084537197256,-235.936247970156,-223.718881705416,-199.101611428268,-245.645365389376,-297.101147709881,-163.843385362562,-224.505019687152,-294.12106040951,-154.403727897949,-231.16220193497,-102.243195693375,-180.408866231296,-320.412425532609,-143.509386698681,-299.873316459011,-140.651465225902,-183.163891660086,-455.200535905365,-168.720436867911,-336.75349917257,-147.023834047863,-261.874967980102,-597.941583869241,-407.502818986977,-538.01054586752,-357.058270295922,-541.605069754654,0,-752.351059482728,-348.646281764646,-304.688935378171,-316.647671029327,-450.99369799471,-566.696399358075,-286.84175320362,-378.63947231401,-436.286630742435,-335.69365245287,-343.259882605945,-228.881297693307,-302.058911811533,-237.279055402584,-260.821759937301,-280.570546759671,-217.510903341028,-270.922011874754,-223.648770699752,-215.262403501695,-295.72568458235,-283.866954225985,-184.99251621063,-271.086327544782,-185.06046585127,-226.095521812256,-260.665960291943,-264.261062129341,-172.890669877956,-268.756470400728
-277.346184948236,-249.738339473079,-253.574958916452,-267.720879700974,-232.087119127054,-199.781962673906,-258.757458691313,-236.310607890188,-217.593687482676,-273.288964574245,-315.353122111088,-157.674767391846,-239.478586891506,-320.388362222457,-138.593984004433,-243.881253039603,-53.7730241936806,-180.618912794009,-332.708334311008,-104.363147831028,-289.19639375305,-49.6758737729941,-149.81250142196,-378.32843856265,-99.3310634925991,-205.913521137344,-1.18233372584749,-89.5600261814872,-339.598635809676,-289.322586998766,-191.949634921456,-439.217211191119,-603.995179288408,0,-670.582966177883,-397.200791137608,-381.793978867888,-371.400465402337,-411.147177956908,-525.336503580198,-258.758661883047,-411.265313358126,-428.364042959488,-345.735176785451,-387.013117078803,-272.025693636151,-344.232093225818,-285.491843997709,-303.377176170834,-319.679161399132,-271.048182833655,-315.710988429649,-272.418804020534,-269.565417291026,-342.497516078734,-325.518353935877,-232.946621213825,-316.738392503616,-227.785366795814,-281.491336911507,-301.366321498232,-305.392661821362,-224.069877800341,-304.136860163373
-272.762088985551,-234.955950218975,-251.478706329395,-262.264870122641,-203.077451030423,-197.804030756617,-256.952563584782,-209.389714746754,-225.171999470304,-261.741023931379,-295.007732039256,-159.545395330273,-232.070596978454,-310.312357450267,-137.415692010185,-237.585000050623,-34.2470047782506,-186.240337996943,-324.38103252671,-101.896756437351,-270.660885165378,-4.28718528915278,-123.852949071001,-295.099270994212,-62.8914656021283,-92.1070715298381,149.068987930702,64.782994968038,-134.114891037122,-147.619963294448,103.141518969586,-461.561605029912,-522.795531037012,0,-422.085258969126,-422.592083131025,-342.475510317538,-426.751976023384,-278.707521770205,-416.913742029058,-126.069377545811,-399.30712174274,-298.367328372544,-293.674060411574,-367.67585224786,-263.603598067146,-322.987041541928,-282.324143441214,-297.18639571541,-304.648859655481,-283.196990654598,-312.890268657187,-273.03883235627,-267.981675964427,-340.460125913972,-309.892556681254,-233.026975933942,-307.909262752133,-231.872096384345,-288.078562546717,-290.69059817493,-298.414236372224,-228.627196742255,-287.51221061398
-250.245902368092,-194.208361231835,-236.871097994513,-234.74259018366,-144.097897214145,-188.31180965623,-242.943935761602,-156.423769418598,-219.819244122404,-232.667843390574,-260.178738447053,-170.189915332626,-215.055019462101,-275.702978532788,-149.83492401758,-216.366038736835,-29.7012414330467,-183.25427091484,-304.040115053403,-107.703394392337,-249.142707816923,-8.70127154602473,-93.3112804967584,-235.473140322069,-39.8637430734308,-0.747121400823684,254.068527512137,173.058376861876,3.48281849634997,20.0793869596876,247.872625840903,-347.419217960413,-441.388500099033,0,-103.266274844557,-312.907932898546,-261.831390545766,-538.045954778679,-69.0316670883214,-256.667980863989,70.5383386024431,-456.414581389204,-77.7313106495773,-268.421934808999,-366.722132583944,-223.599527905691,-269.446210254594,-242.341049003135,-255.450345467822,-253.670104938733,-254.720212781206,-271.599934887822,-230.055118452959,-222.210833123032,-312.086021249933,-265.200611107417,-192.492008583365,-258.484543237729,-203.422057035659,-250.799122011516,-250.282848935787,-248.612417324665,-194.606378627551,-240.39246439753
-244.442339864255,-174.717167689421,-239.931906634762,-227.826640447264,-116.209379989303,-188.886457638389,-248.291844203972,-131.690549805216,-225.611797945822,-229.939842288391,-253.714014512963,-196.888578761988,-218.158566131711,-259.385718843946,-177.174120685436,-205.197391948857,-46.4481663596753,-184.032979916528,-284.219734725176,-122.204848566751,-213.811508510876,-54.5417540452549,-45.3009139817072,-163.285684434299,-18.5904001860795,118.643627737995,278.129526818181,277.289296710703,183.311092738123,172.703142943465,385.32177945947,-106.146166335908,-519.703966618351,0,183.164604815803,5.77588043098935,-257.992798735063,-732.67568960346,131.351855896671,-28.9170506375857,253.47341782876,-639.864255914454,162.760714496593,-318.930502081922,-463.217610065313,-200.741918320112,-240.422123753482,-219.518843247895,-228.744748525495,-223.237015856822,-230.853908894953,-247.392634289546,-204.183592408732,-195.48395558162,-302.540656893316,-244.509751605622,-171.924655659169,-228.441570221007,-186.987619299441,-226.016342876282,-230.016239804722,-211.085138271784,-175.421039758231,-213.069927732645
-252.762430460217,-177.973353394664,-256.346922586815,-243.748043041231,-114.897862176029,-201.481661685877,-264.337776729699,-139.850394269012,-243.284618075621,-245.096716254208,-267.057049200095,-227.324837284503,-235.881952938481,-264.602659215726,-211.327585292433,-207.28608662407,-87.3704804922455,-200.782897373472,-265.43563290923,-165.6878190355,-181.398999853334,-144.686129277947,-26.1594226714407,-84.6125415449258,-64.8447018107125,209.879445027333,176.622197695355,334.935099829899,367.92271449025,195.208704729107,565.384796580436,136.985638857194,-641.837491089221,0,334.617894996887,404.519111282587,-301.294391908923,-877.777461413291,210.404212296453,222.94517466581,349.526419540805,-777.955534590641,339.441054616224,-372.912604533211,-578.686647968964,-199.888785169694,-238.998463123944,-215.006549120577,-227.662765840209,-219.140489939577,-229.920437193698,-251.338918095645,-206.906589994437,-198.534163511383,-307.786838829484,-240.005869520123,-185.095697944566,-227.874906643864,-187.054497984784,-225.874235182147,-229.552495720626,-204.394101662382,-179.315286697132,-209.735403318113
-213.573672987941,-128.811677487745,-220.732731951647,-208.478695645064,-57.1999033388166,-178.049074660759,-222.670657898041,-100.047872730961,-209.587153457783,-203.834968645115,-220.19718856042,-207.968144527853,-198.654285377592,-218.942477034655,-208.993781306592,-158.982133327864,-109.454202468693,-188.967583321886,-192.926316680786,-213.76563577986,-129.286976633702,-269.614033974303,-37.5641612344405,6.48924798152493,-195.128308684064,236.219754032118,-61.5258173292889,332.271456565482,467.626951876123,86.7619862349302,699.920737626425,314.378031865727,-537.630480924824,0,356.404450494375,702.518873867555,-249.164039780549,-756.261272128015,183.752613965135,438.70926718961,350.099118500587,-641.118782806375,433.120419753573,-321.206607638321,-535.926044072826,-168.879012785,-198.648126853841,-164.936943447563,-183.926001107512,-171.79997596084,-194.842626808183,-209.618305946419,-172.291583266885,-160.464520520092,-261.411531562033,-184.267180943643,-154.662043035691,-183.911200551666,-145.950235422892,-183.453604847286,-183.492483225406,-161.541297048187,-140.726006453086,-163.771760855998
-87.3552768632214,17.8761177383615,-99.5269548260862,-74.8567612299926,96.6973997172686,-76.7453549787456,-86.4258270759664,40.1710085503425,-83.3362623141857,-64.7558413274519,-66.954773513337,-107.623860947237,-64.8738424470622,-71.2219775008064,-130.460321876377,-10.9363648714099,-67.225025922794,-96.5050455250451,-15.3429401435121,-215.611179408061,-0.225118246677067,-388.950350630528,-15.5932358328828,169.530087876185,-327.946352099635,251.064565143106,-377.379101525923,312.982088634285,543.757831243528,-43.7550445127504,746.139544103462,504.330859481337,-136.835176694667,0,369.218864898112,882.200242590647,-28.81135072671,-321.494349344401,162.873925504334,624.922735670295,346.413339706268,-225.551964874013,515.707431543906,-120.447058498939,-287.016829036993,-72.4189071905666,-71.3354502006817,-42.3898067125444,-45.8953252601606,-37.8116230539267,-77.4732480336424,-70.5077930975414,-63.4732676944404,-39.5334658651894,-124.764066823983,-44.6947171115214,-29.6791816606118,-50.7724508086095,-32.4359788312936,-60.8836251108567,-56.3877278531899,-29.7511845216912,-22.792260626128,-33.7402782267262
83.7740636998561,213.449462083868,55.1260711035602,105.376541037666,294.142785756218,71.3821659337384,94.5567004991468,232.909292088635,84.5411332766837,124.863014906039,141.762286486707,36.3515366915835,116.585143058082,136.751483586234,3.45712597095405,189.48575136677,22.5776398435387,55.0108206526865,230.733203708633,-163.890734945223,189.287721271804,-461.167464159242,46.4018833217413,404.584885343512,-398.612480468155,260.937040426569,-644.458671666439,243.234487527289,695.636272516088,-117.152827392745,736.965578440567,767.799427106314,382.806044248619,0,467.182775889838,1031.34731431826,285.747269873595,262.480796566355,203.407209078989,815.487771556442,438.735486649535,280.102073258879,649.257242876947,194.971039644639,60.8487210202637,59.6241121026478,108.676226004547,105.110913718682,140.519145571207,142.761108802924,76.3221792542908,119.270716839461,73.5084322519795,118.002535152066,56.8423035712916,136.147651575048,131.195777166575,126.369366129801,108.961498030221,93.1538098807777,110.32478029442,149.662122227855,125.65707073554,135.858210116838
246.910638131357,403.635321454765,199.428654576865,276.784267773522,487.568929348723,217.825886173932,266.714844641976,421.534718716457,239.704404835108,311.836432770267,347.617960580489,187.335258748454,294.339342075308,349.412029051952,157.096535943524,379.294580786083,124.607385321499,219.135438532093,470.723611502981,-71.3583200827716,371.372186725998,-450.809471063628,123.079822756389,627.876342718988,-381.588925660206,252.219454858411,-701.226459977364,113.77240690022,864.125266744076,-76.8537091884571,708.141161387431,1007.90835365276,813.466076800393,0,633.845457891865,1161.06113032442,544.264461372624,799.08430204047,289.407969287727,992.470225514371,587.613676254862,702.810711438249,790.607488394228,533.234891029218,416.377761288447,184.79829346233,280.396080331919,237.399973083277,302.804541452001,316.695169041693,203.469640063362,293.050987739036,193.999842830359,260.708538065468,219.076048883824,306.736271162351,260.119661376037,292.572204530009,233.389718945972,231.223486155198,270.306690695448,317.156529759863,256.747851511388,294.90795367062
398.495213203485,582.753627141994,346.156436957673,443.631118313995,675.532788996701,358.691458680523,427.209333993133,599.600177243852,390.096956435505,489.96993423829,541.589586129204,344.940220233943,467.513060248592,552.847788014375,321.44763100525,553.636318412471,240.498299116735,382.190832675415,667.441233047554,56.5494670075527,515.864907694076,-345.305467539424,225.185551215388,773.402939991071,-276.474922036948,271.713107239401,-516.071540101885,39.6404694921067,907.555718555743,70.163702131652,652.016407781387,1092.93897385012,1062.36523200927,0,759.823023382429,1184.44959356835,646.994268409365,1149.20862596171,368.144394848175,1081.45137782985,644.337315254303,957.400232895471,834.313176294733,780.263379578332,733.378221802665,306.458499293684,426.706405751824,367.712364962608,437.355995990147,476.098213524603,321.844385817547,445.100539276457,314.551340894237,397.265189926067,357.888487133127,464.120992506513,376.790509201708,445.587390523688,354.963651054277,365.298572643049,422.700553551712,474.008531864214,384.426917406567,448.566126653359
509.300776557113,706.814532379712,463.492694523202,569.360840676124,807.728288748168,463.812787873946,540.009304636615,721.686403957781,507.276974435774,615.719504240083,673.891341947535,462.105239381877,593.60265214139,691.581481976692,441.134596789236,674.31661214033,340.747223974549,489.912724078987,769.861189888843,155.369359260823,575.133998488243,-210.13481545595,284.295844815832,790.993281900372,-176.796277200962,265.943643193294,-306.53073312988,23.353944399211,768.864865061731,158.206767587014,487.892601731479,1019.82833801657,1129.55470823808,0,723.544875334255,1030.40553163542,601.378579943023,1232.38609779496,345.668022218771,1017.91760688329,538.085898558197,1021.81680755134,722.931782584558,864.839655637052,919.640714205196,420.336458006713,533.485934540567,485.351671174589,549.961803534254,597.829259563691,442.468578988037,563.937526427235,428.082308267066,517.534483370332,472.040570338164,589.259276331084,490.678133498678,564.411718638682,464.197508220742,480.197759527318,542.306491907482,603.500381848573,493.871273964704,571.375703415542
507.480263566701,697.016878006478,468.742372531324,566.767070050755,795.421272207538,463.049986390213,529.80352862762,703.860994530909,507.954779970948,606.566281328485,655.316251460514,459.336726988225,588.58920130753,675.055624073496,434.860127520646,654.516616988162,353.32013807848,458.697528902096,708.516049064359,148.953860659292,480.085601189742,-123.88838073897,188.51421034577,633.722125671458,-163.740395553035,100.143993700345,-261.771234281875,-56.8767529903742,483.603783357533,77.0878951720001,198.794618174655,851.523921645607,1035.446032695,0,546.980747119947,743.676730105127,490.217379904104,1070.64032622365,200.663698233005,844.93447380418,339.563815598578,942.348320939072,507.508054991531,816.878335038258,901.137888539318,478.301331306115,557.210516309127,527.248736579902,586.243060650573,619.677606375791,492.862475170251,589.123496640368,466.585127627896,551.529326129716,503.56542223259,610.242846634126,528.597968879995,583.260749890699,490.345788512791,503.047144708814,558.310527177423,627.655934371474,511.226429775795,583.608540458446
387.292204411051,563.307555810215,357.954586397052,433.232212566379,644.767091857685,356.794645423698,400.896254892285,552.463628279306,388.6427465796,466.725966195754,491.811064791802,349.709110264444,456.13378898366,509.896129529181,327.702292517228,498.994966509313,282.009084375209,317.58309248063,506.696030067587,84.4899045135637,274.155036819451,-61.1298495678276,11.3319134681864,348.100491493998,-152.441739929922,-143.838139950247,-259.189273379801,-149.953961536072,103.34114814793,-19.0408043353412,-51.6560296408684,535.896604648252,770.077252573043,0,382.856846621825,405.503381916506,364.995406828975,761.731943618322,60.3288633021975,653.1521374436,78.9876785328884,782.899502183728,255.887616824586,699.147823639789,712.274425282793,446.174535490379,474.020793398743,460.085141664881,498.797359162729,514.781947142788,422.72798974753,490.622281237895,398.578919768358,466.411817087025,413.541294054001,493.108336831607,449.220895425713,479.337695845295,406.960003514501,411.726692329449,451.836891098301,512.614026688269,418.37121527105,467.075325698527
226.195830779897,390.620135842083,214.897080791387,258.060234558421,447.986498898117,222.40418030155,240.307292939331,361.108998484915,239.28114407257,287.794358802581,282.935407344484,225.705531593505,285.469132586897,298.151785270582,219.848096346282,311.343575432823,206.860171582497,183.65250995232,270.363551014334,56.6875016002539,80.2865834578512,36.260093179695,-76.0105888345048,51.9643890386456,-58.0436417125683,-255.300699837375,-103.384961416578,-128.977956644423,-335.481673176331,27.5393630349517,-190.304405006359,-71.4886241328665,329.146902305748,0,266.878205683441,-53.1139902221135,187.772005434568,398.024787546158,16.3087645395433,399.174833849992,-346.134614968153,561.31391216443,-60.7413531922724,506.933718750617,434.085425569069,333.262459631378,305.024981741356,313.4704920704,316.551469131164,322.669618530668,276.414542409201,309.771683739998,268.62170709431,311.124299548718,241.564777257558,292.853954053603,309.538871612776,301.931476226845,271.221761143513,265.490058883151,283.649507102198,315.016656367518,279.153368270111,289.512490362723
67.9332429999811,204.959840139766,77.9408915117862,83.6588068707868,241.028034321947,94.8871772813049,87.1852340843428,168.819341918968,102.171160677891,108.320648556024,74.8324320724194,117.912387666941,114.906948671657,92.4263357100813,127.1351128481,135.272082802701,142.235171680338,78.4721161845023,39.5301336394022,36.1020180085274,-88.1616679830593,128.239464889798,-101.92964119544,-223.210189104497,26.369659352457,-276.44390145871,151.511878701479,-101.003358548158,-798.926903542271,95.6657854896302,-429.865387264212,-940.562433386161,-184.418217526441,0,32.2395490339519,-781.122320167509,-61.6105681443839,75.7504650951299,-37.0978480581647,-73.6399575746386,-938.097088562772,295.667690391888,-488.327390198748,220.385224077136,133.221286216617,154.985722384663,79.2417584670011,116.091876448599,92.5584080480329,90.5214441599544,100.761647067784,90.8861478485721,113.922709749089,127.882461854704,35.289643855676,67.6814144632127,152.334994920357,92.6718789059796,119.243625163024,95.8593570123725,92.7904777405823,88.2794803057007,124.919311419357,91.2983945250943
-116.042598886622,-26.631562827361,-92.2785831036765,-123.373209226322,-8.87582064559629,-60.4925339153622,-100.692258651124,-62.8486924845944,-66.8310439112656,-112.693852490211,-170.050125809939,-30.6281453272401,-93.9517135693991,-144.768766851868,-20.966391752104,-81.4591320527998,22.5476025508824,-86.3878929710102,-234.679672910676,-75.3420426456654,-320.232037104936,134.141613580482,-227.358194759056,-530.516058788186,-13.3432255164326,-405.976639429941,329.320603722481,-252.58090192308,-1219.66138781162,-12.2249337490422,-917.868909388156,-1753.56330075362,-633.668650775918,0,-458.437315473951,-1715.93037359728,-362.219064083904,-135.457361231326,-246.95102907281,-827.236480846752,-1456.23391618672,9.99760720660349,-969.95756490748,-120.043149103322,-142.672398011734,-71.9678327243276,-181.149012348215,-123.141292179965,-152.021912969028,-162.463954795692,-106.297383731291,-156.14099519843,-68.128108578392,-85.9904023967316,-197.848583007495,-177.858293934107,-43.3223037384843,-146.741540653716,-68.118279414718,-117.937434023863,-133.97075385162,-160.558164065987,-69.3561980667977,-141.99778750229
-334.809407744299,-285.015119233741,-303.930690488644,-364.744944618244,-286.669409600973,-255.607367571209,-342.906217663454,-329.915758268064,-289.528725508791,-378.77831112966,-459.631220665225,-245.232188289104,-351.364013663554,-433.004433135859,-244.335074983356,-361.575397599636,-166.289673019494,-345.410289274653,-568.214768331089,-279.993078451008,-628.089385184624,43.7503255788586,-464.69758086478,-854.063939988255,-150.732841674612,-636.549658736212,383.672771402065,-536.602119559663,-1493.72788552014,-255.534970224495,-1452.68240903408,-2186.49202963635,-1079.29166602617,0,-1094.73405245126,-2519.87023342821,-780.722013178156,-344.855444726905,-558.920845725851,-1695.64564303521,-1667.49259381958,-359.222604793887,-1376.73644186141,-462.759084431858,-402.954815933047,-286.342910265791,-425.097363448823,-353.636153295573,-383.04223079615,-402.066526889758,-315.978000856254,-397.306401807575,-250.562300167445,-303.109610894661,-431.144101779228,-421.336131512194,-255.193952771628,-387.854210845831,-268.380952308004,-346.638046597951,-371.339115177573,-403.599880536325,-283.42687579866,-386.634656096603
-537.018755493016,-500.687510945322,-494.70418917993,-580.367142582835,-520.391096063462,-439.932352436003,-580.87374090709,-562.21856899033,-506.595707860487,-620.006407123666,-730.253991321049,-458.40484164466,-594.834915145586,-712.37271041738,-467.207041083042,-636.594553774331,-347.075250167018,-609.345005525045,-890.833231264115,-477.472018485001,-899.913484221292,-88.9122225640173,-673.146713528254,-1095.00817445308,-292.567401413028,-802.41982717672,373.751477553865,-752.824617369703,-1563.9349312984,-434.636030240256,-1718.64824698929,-2230.83985977177,-1677.50437869512,0,-1573.75715464491,-2856.38973754021,-1374.83140583105,-786.921732510863,-762.131214141959,-2333.96288467934,-1616.73601878152,-910.010340755814,-1605.42538755205,-817.524474804312,-720.23178974699,-422.056466744174,-597.849197867522,-508.592342373552,-551.161801017878,-582.606207618399,-467.934557976152,-578.891518124932,-386.606826123799,-467.75372566691,-611.57513265729,-607.048038061223,-414.215002686791,-575.20305132458,-418.576809294377,-517.652762890244,-554.202196238172,-591.830764284913,-451.104408116972,-578.443383955347
-662.472934515141,-636.006229084821,-604.439968120594,-715.883047247272,-672.744466377047,-552.682307165795,-733.112539028557,-713.973504817649,-636.419701415349,-768.818557872813,-909.336782379461,-582.825079022015,-746.339670112792,-896.818755749532,-595.57948925541,-810.520853346637,-442.154769953441,-756.500785881728,-1098.61671483791,-566.580990004481,-1011.09488923165,-189.183682606052,-730.771470176667,-1185.95646685213,-361.734619013979,-809.794923178228,344.693390802876,-777.565315711445,-1459.60841805392,-452.193014403014,-1592.85416612211,-2124.40662979506,-2327.57009805049,0,-1652.4024431335,-2691.52859131692,-2009.18597901927,-1480.61404663765,-743.926333990816,-2467.74642759272,-1546.20108857844,-1601.55568939674,-1648.67934899162,-1233.20650898719,-1119.48977961439,-492.628315458234,-703.580506990447,-591.627783826038,-657.480615194949,-705.270661041874,-554.951306957338,-697.326027614019,-481.443886785759,-569.202247600244,-719.233936360535,-724.219938837203,-507.968109160841,-694.806143264559,-506.966277679199,-611.52156385899,-662.801254094667,-714.987186793213,-549.644838688247,-693.600191759831
-696.899514637562,-704.124733402814,-634.909081882294,-768.400826419889,-764.931749534234,-584.159317394618,-779.972988201516,-801.949783944455,-665.16037038897,-818.900837912124,-977.222333372817,-609.579785662247,-789.581093278274,-957.184340216024,-615.764098782489,-857.911537464382,-461.601665180546,-766.090497915137,-1150.47165630957,-541.562934244268,-953.426296795907,-229.228836440081,-644.917167813961,-1156.41094749087,-340.187880230958,-693.864415330321,295.428383027726,-647.384952600961,-1255.91941300012,-379.289669148802,-1225.31453825861,-2034.2031628222,-2791.60123382505,0,-1384.88799690044,-2275.51005888014,-2497.95406051248,-2166.67614314003,-603.822096704675,-2164.03246376334,-1611.15573931267,-2279.02165472904,-1590.5840550322,-1706.3174055985,-1493.01012610047,-552.393570794183,-777.940130354314,-648.055888377365,-736.999832203394,-800.348836550265,-609.684344269847,-777.366688681095,-557.648276743572,-631.388921877843,-767.5090713742,-803.583114664501,-571.844531860566,-767.876258837311,-562.081416979869,-656.520131860309,-723.272557197927,-791.933488443401,-604.422180929469,-754.405449588888
-668.833746522809,-713.672743393769,-622.754592117122,-762.163191954009,-803.389565255609,-568.727305445834,-764.415466801917,-846.307682098954,-643.600291026848,-805.150538498139,-962.360370118495,-592.753682938356,-770.187692950091,-931.398709563513,-592.468223619349,-831.07403769541,-466.930995145512,-720.733574518571,-1100.15793755239,-490.207752421079,-837.798168049862,-257.597667956694,-540.433032850908,-1081.55796979251,-301.128115101697,-570.708710377869,204.723086702561,-508.860262246314,-1025.61204667633,-331.389902175464,-888.883472776525,-1893.81374019201,-2968.92183256833,0,-1060.92536099554,-1809.28364565412,-2714.93583855091,-2575.50818322343,-498.231323673546,-1725.68985652862,-1717.08034104382,-2744.76004255278,-1483.8503870051,-2094.25785405344,-1647.08080109873,-589.577318822955,-810.93209821956,-670.784681401975,-781.133226468592,-851.177420589194,-627.813555319414,-801.792680787789,-585.461517530419,-652.616456957894,-756.677580640549,-836.268774074222,-605.042223036791,-790.162659173395,-580.641898727206,-660.431797753636,-739.086159648452,-818.912729214462,-621.989990746807,-768.210149347113
-583.758788612948,-612.105655209808,-564.030024268678,-688.360062257241,-720.546937523717,-511.486639306748,-695.104704139818,-804.373477013932,-583.999954047731,-733.045403560917,-873.551233646804,-541.91212218818,-704.665304524961,-843.4954442332,-549.426008359797,-756.523162043773,-445.124545653854,-660.184481967437,-988.898988879785,-461.020666278753,-735.838898066319,-291.149217850937,-498.705493192734,-965.628345554651,-312.152466019888,-500.070451403337,95.1953279449182,-442.449064954198,-760.421279138283,-334.501246673178,-674.401164992125,-1535.38584914126,-2744.45918689454,0,-839.284942840866,-1274.53588918188,-2502.55825021771,-2517.852979028,-441.19411515504,-1296.24855214166,-1643.49289149925,-2736.06875887872,-1269.12369179459,-2164.16714424439,-1432.16717450273,-532.911518611101,-741.234267788372,-600.993446762481,-723.758241317667,-785.19432072482,-561.279036124874,-718.137766799963,-513.190971754362,-592.318705626191,-658.602747365222,-759.9262013926,-554.876362849724,-717.530319218104,-519.513383349669,-591.306481601604,-668.351321592283,-750.336565478756,-561.436978110449,-696.468149949069
-435.241103923999,-370.378625183001,-443.541061704061,-539.064895639978,-477.443746389652,-400.999452962191,-554.621698100908,-642.341926279425,-467.868018809233,-596.323725830484,-709.247957482795,-437.943287037393,-581.433726005424,-693.877338715178,-462.186862207284,-629.110403330838,-345.617238980087,-564.170119481307,-814.114862728754,-436.037348689608,-626.49904412749,-306.1584168831,-496.391795302294,-770.989584716837,-386.836523112978,-448.32768208145,-15.8815940953513,-419.077829204428,-413.968735699839,-377.664502203571,-460.167374029623,-971.87016979332,-2048.3524901057,0,-622.634608815962,-659.215788533068,-1867.17865008124,-1955.67751509268,-362.395861370285,-814.846399137195,-1328.60362828934,-2172.8364435228,-914.755993643729,-1846.5030477441,-919.936790000695,-382.594185951371,-558.085561540844,-439.843595750155,-541.297728561091,-585.640831950288,-410.242687744988,-530.298652989262,-360.278169328607,-443.42930123784,-480.75928537218,-562.755073091084,-409.40408602704,-542.912078253538,-377.303343351408,-444.088137317522,-503.760015540963,-570.450138087965,-414.472374655712,-526.663680564488
-274.827012277148,-89.901540164539,-309.621941930952,-371.524167230941,-178.893272313154,-279.632912867743,-390.595755388765,-430.72047432851,-341.339346160682,-441.207192397741,-516.536737215197,-329.338637088983,-440.22542253757,-519.292809293542,-370.095582245087,-491.138957443611,-234.869342868127,-466.461903986809,-613.626091215646,-447.836986826335,-509.163802520558,-381.272912732328,-532.056657217381,-537.616347412496,-583.752983900894,-432.920908106473,-248.72808592259,-474.292011967043,-41.6641630242415,-540.796612874615,-192.947698340938,-411.055128671293,-1122.31803258275,0,-324.573329158961,-81.743966336798,-1111.54788799029,-1124.34707884254,-275.884971412386,-309.554548886813,-900.978132205885,-1346.67845039272,-518.132761545695,-1326.91309750082,-363.511345567953,-242.329689155457,-346.235647217937,-279.166292683879,-318.153549409509,-348.294780519647,-262.188304512336,-324.184033806747,-218.092510983166,-278.773816727456,-295.868552207363,-332.805630694619,-253.137328296172,-341.032602695434,-234.322265832145,-285.739423322927,-319.116522820186,-351.468476778251,-260.166243806996,-329.741062917742
-122.514825671934,152.695773671766,-181.44704074322,-201.525886391586,88.387422907662,-163.296299260877,-224.491419720006,-215.659002416111,-227.91121876801,-275.256388045659,-298.040216698692,-244.500424844571,-292.790606590108,-316.431754680303,-314.038811396138,-346.61371883851,-213.182337973498,-389.232740551496,-388.479270216117,-537.869736851552,-382.197616471304,-638.943431108129,-610.528431532187,-297.61036250684,-956.27129623968,-494.727607662291,-761.069551481506,-670.267763834319,261.516458639996,-861.999761078637,81.6898088839271,109.454973058622,-174.360943498949,0,39.9716960983808,447.548011491271,-384.784729987554,-247.73881298901,-204.68436065199,137.623463028462,-381.679631551822,-486.825654735712,-110.075717156943,-723.599523474433,165.360589956879,-148.988553922866,-137.415584574535,-143.698387747289,-105.051203770302,-118.610981780096,-145.390458635436,-120.607931934998,-105.135211293906,-130.002539099652,-114.717361227888,-105.217240123598,-127.44592189735,-139.003859896938,-121.835801088519,-139.080324137402,-137.85860964548,-126.065456424829,-127.540824323077,-134.305430904512
130.088023951905,468.309267081313,41.7485863489904,86.3677991447118,436.559231902609,43.3121764665311,53.4035773345054,113.116192693112,-17.2731715596731,16.9356205543941,69.2502877346667,-79.8904006389071,-31.4431352347646,36.0244992495094,-201.100822970497,-69.1833540346933,-215.822779474855,-221.767986008768,-1.79515513638178,-612.084711838498,-138.745627655094,-1024.87226305005,-615.589913013181,56.2252872769101,-1369.67665190809,-523.931007775416,-1478.86318188415,-855.606048056795,492.465315336843,-1114.46307254076,396.801255664935,854.962573569296,1009.73316856087,0,520.758316958312,1083.71168846412,586.104655057174,802.375082225505,-43.8680390012305,631.917030478141,421.317199921243,583.430818501274,467.169318125631,108.970499104138,883.57118922712,20.0468156531121,185.552975216245,89.1313453400241,203.616327703432,225.581998233675,64.6372937088135,202.642381526847,97.4215902173537,108.530391602082,181.118237508697,238.716248055282,78.8933067066627,176.164940142878,68.8801032952513,103.86870419012,152.665939165583,216.697913306,95.4092518939203,171.283164003102
563.541302687836,969.928632735267,435.217585529705,569.29515514277,989.743238954165,411.734881148184,523.324334001306,650.97445275249,379.340007821185,514.597801165861,660.643436352004,258.048286907869,424.273641915669,614.873272692432,88.2439726537004,431.968033027541,-85.5341379234559,153.068215637905,642.439881405015,-506.446901506711,322.599575251128,-1298.30512165349,-397.31324129324,631.386420901531,-1539.2022879449,-340.899330166002,-2063.8067453475,-762.938210293796,728.39239584706,-966.869006338814,760.517219895256,2022.61974544183,2640.57561827655,0,1162.09911973455,1814.90244622101,2028.20579054442,2204.46327529083,299.251060341476,1287.09063844172,1606.87830122308,2033.0845487752,1293.64128529386,1272.31781655866,1904.73613031737,377.536644440131,718.385647776171,514.508717209427,708.362183010037,785.243759777735,464.838287488068,727.507307713682,475.425272519293,529.657123151154,667.331484400052,786.829735932492,464.862490958467,687.543673566573,429.780972813912,525.404379152087,630.247595123497,757.79869452603,487.750551180334,670.297577482722
1064.00289189369,1547.88805507947,897.492861870307,1120.64965254635,1626.61668887845,852.369924991365,1066.26174441852,1272.17667839159,858.320500855601,1095.33289876466,1330.53747423935,687.118272109338,966.334803044287,1278.09032342143,507.909817539115,1033.90365630992,206.519531568125,664.326212424927,1387.89319904157,-193.705561726884,897.78667718274,-1272.55587329243,11.6163227228475,1307.4662912349,-1316.73511976414,27.5019074436482,-2225.53398155335,-389.028495870178,1045.53070385558,-402.742805174244,964.506532230159,3396.41004756126,4354.02409533559,0,1738.64192667349,2420.23905491751,3648.61703333531,3685.70216896401,707.644000845997,1922.99152052172,2923.88037975547,3563.19683009375,2146.37514380942,2529.20150914472,2973.37603247836,848.970629481352,1345.44686034021,1035.24886214346,1300.89728997478,1428.43761577423,947.651847143637,1326.17310354132,927.292414353191,1037.21671629695,1222.15850644864,1406.74421853718,936.201244502651,1269.1152709936,870.898225649572,1019.99598063238,1175.56189670615,1362.67516374495,946.27112809299,1240.32685726658
1418.57900269242,1956.25156502436,1235.99795883156,1512.17760570197,2068.15621856939,1187.81474652156,1457.32090533749,1714.84943438338,1219.5000837412,1520.69481200809,1808.01250438487,1027.46573285237,1374.92969550065,1755.1546001314,881.264585200405,1486.13635681082,539.210805509189,1090.83061461212,1914.20347198737,183.902142861721,1313.77541278757,-969.534740415864,390.357210079214,1756.17567564383,-826.011711635602,316.691962388756,-1947.73404694586,-23.7323090404511,1322.01603047924,215.214713787379,796.219428451026,4334.79615667708,5392.79210060331,0,1809.45961881477,2827.12724189896,4794.91746210142,4636.95334513186,931.417960463537,2229.10926498342,3865.9479822211,4586.57798778054,2671.8787166418,3440.3311650458,3640.90118855411,1218.63273293175,1792.87949333133,1417.19536931594,1721.1903723675,1874.42304855726,1293.08307659697,1744.98185796386,1250.63717222357,1408.58886790959,1611.23305462186,1834.93746752874,1279.99328050714,1671.98806489625,1191.15844058771,1372.43629257609,1560.06360119837,1774.81247941761,1277.85367431129,1638.46930031992
1458.41499381791,1988.89623689241,1295.71368119298,1563.18113369526,2095.39681632439,1259.2262107151,1513.67878830931,1763.55542656216,1303.68338190275,1587.22578896968,1859.24324098049,1133.88954939871,1459.13655560123,1813.97008312782,1046.54651538361,1576.40172157146,765.680590569388,1231.34589688199,1951.03111902833,472.937775244834,1344.27660192855,-487.201685849072,551.976149742863,1668.84572939714,-263.563446171315,326.348743673,-1315.793618822,123.552622143736,1140.34408922976,535.907027554004,368.875247838062,4020.48655607461,5238.34637275052,0,1153.28028504738,2932.08172178495,4941.73805958581,4581.31782218184,802.871827953586,2059.05410689024,3921.89068583351,4657.88940660412,2617.68461092339,3636.42822268743,3519.86959520324,1275.15531889874,1804.87909799634,1432.1036250379,1730.46021794577,1883.1129521139,1318.18158391308,1756.36729950943,1277.73699301647,1443.14876308032,1628.41136667352,1843.76727649033,1311.38449293782,1684.36074933569,1216.59215144783,1395.46991044588,1580.96024407491,1779.04441401653,1313.1983501427,1656.29976853002
1114.35518122272,1572.02202616989,1010.00017142128,1203.00639556289,1647.49914718505,991.254144350432,1166.00888137583,1350.8348762991,1038.79286952135,1217.55795443204,1396.27068949555,943.789685130252,1140.04205849102,1371.65470289346,933.616470828391,1236.68310022714,794.2357379523,1027.87589888463,1434.91721788397,613.724227043407,977.119652906499,104.924217027468,504.947534259019,1019.906270716,265.283531110014,151.994313209423,-406.564177316733,136.926884054716,287.634847567942,529.500601629603,-18.9678830522493,2164.91581530855,3963.44003245923,0,118.559159554142,2227.47580553435,4020.04061140619,3415.24421472177,369.272749589969,1467.06403341654,2925.94419364105,3699.11994234539,1937.10738599348,3008.83250281653,2493.4122290321,937.043469607531,1300.37411920656,1004.82335666418,1240.38321115621,1368.61406407083,950.092001494117,1268.62004078435,937.291266286919,1058.04546324269,1184.67776237013,1341.74763027912,959.20055240535,1224.27412815788,881.400540791374,1011.62526486374,1148.39058013114,1289.68811933268,971.795333571269,1210.62209740603
526.193835763191,876.336950953286,502.73662102318,579.459366191675,906.773633364431,510.432838045982,565.39372040829,660.351654664955,544.93190438067,580.07238667489,620.535530537251,555.398198943828,567.286385469832,630.611917737867,629.285118994064,651.583470762739,655.730672073919,629.692335084072,632.541446002822,631.578257697011,455.641885923056,653.158565348428,401.871694051845,196.453684750243,682.0814240163,49.6184940955387,515.719471210282,212.69578108994,-711.324798948214,407.246391958089,-228.266671461623,-277.76508337866,2100.14229198994,0,-594.066858797239,581.577909897593,2464.80120787807,1494.57104888574,-104.223355905325,686.225650373505,1393.62212286496,2075.14203618074,912.471071200184,1863.98286365644,916.369115838443,356.143919298296,489.19403135078,334.458333819671,439.239308522438,521.256677336096,337.198161712079,466.89171287072,362.642618479932,407.696070333679,442.305910106841,509.320211258208,372.694841097043,464.955155430688,329.75022885942,375.101057715585,430.020335033333,483.838544959698,392.472393566719,468.922997276771
-16.907223176421,227.292231806379,33.8663131624648,-4.93489043144845,206.549160206654,74.266947975101,7.72806216901228,26.0658425571066,86.4080084981426,-2.76203407957251,-85.3812756208664,177.512514951785,42.0096404420266,-33.5363405577713,317.915990511655,144.076462039367,481.215436539388,276.587423006136,-24.3987510664949,584.469585461076,87.1153758889123,945.994747592031,368.437433428464,-307.591293950182,913.408598325265,141.67988936452,1077.96392326085,395.632898734596,-1109.70544483595,349.570685507591,-278.804680593274,-1768.38020947211,197.042454082115,0,-656.39631593653,-1004.10131301912,884.145711450914,-519.513442508581,-352.136004662935,8.51848479519806,193.52415590203,390.350767033628,17.0496041231075,736.745810791972,-596.741532276208,-185.284463635837,-266.980491339276,-255.488988057454,-306.679877798744,-283.937570698312,-221.168317538016,-280.266823390591,-162.490282233843,-191.747478522994,-253.80431136326,-276.17617171849,-158.026757513069,-244.858469173762,-162.017118430786,-203.651951990027,-229.761482406518,-271.846945702845,-132.227513907739,-226.487677053803
-368.578362377368,-208.592305708916,-268.66495014593,-387.179432001005,-271.682429983815,-199.080704607294,-352.863318386915,-380.886562972678,-201.941089779734,-371.092735580523,-528.557271330444,-85.2828760843651,-282.779506556893,-435.795984359077,98.1271931520195,-136.036541431593,359.082646007816,79.7151166271569,-339.268648341658,524.408181962106,-25.0001556925834,964.173501061284,425.545969788335,-355.280523388943,997.161751665355,368.683629342246,1215.95079945064,607.568396692371,-810.282406191266,389.738666808372,-165.39144351678,-1800.95379017881,-1390.58713565943,0,-403.794242005604,-1455.65024060494,-355.381128724745,-2087.51113774579,-359.119951463697,-414.198208353252,-308.544619468982,-920.811985648795,-493.119222946688,-78.2911024483251,-1687.42353785371,-527.81047856125,-772.49990179148,-616.527921349029,-784.419882011836,-826.024511048346,-562.514314822356,-766.535964152311,-481.186220869395,-567.290969811912,-703.164221896343,-789.592399430238,-485.810533591323,-708.434649042357,-458.026849155539,-563.990349959071,-650.108109820183,-767.497856324442,-454.850161379088,-681.767051397882
-559.988784949906,-457.487055830989,-434.985574579575,-588.788800681835,-540.440183844844,-344.202870961417,-535.677085254089,-586.526339502237,-353.440740640672,-558.734644269671,-749.446499011287,-243.660084368226,-440.608283817528,-625.145579490733,-28.4340620566792,-241.06074675826,293.616094683304,14.5661176130944,-401.386407100844,493.511651012833,29.1999103430939,898.634584013341,534.77552118324,-153.826982898033,1043.44432654938,622.339991081545,1182.3042142235,796.697197892879,-273.457122594034,481.287564908953,96.7793658219635,-1181.35980414665,-2296.96624828136,0,-245.414136773806,-924.441129798389,-1100.94878427992,-2932.73990456311,-294.655380002367,-553.877482264957,-404.794487109287,-1664.73577485787,-655.887129733217,-578.102957919195,-2291.39558030805,-666.810611101298,-1027.02986770256,-772.384906394388,-1001.61424177857,-1103.35259088767,-704.747098534358,-1005.66599135847,-614.994745077543,-741.832376829443,-919.700824008664,-1042.92898064521,-641.471496913656,-940.323674311394,-591.6699296838,-735.738106970983,-860.725837391502,-1019.31013974625,-611.58588840217,-911.59928051901
-622.276834509031,-551.644158265818,-488.990210403032,-642.924097766888,-631.081773235583,-391.49045751709,-574.784415665786,-630.987551975102,-404.638515077937,-603.431589579004,-794.800102827411,-305.612159126777,-477.72813485813,-660.965209319215,-76.7350308094944,-245.675076948789,249.267610487231,20.9635843101104,-341.779125982768,476.235064640925,120.79601622025,845.204785972905,602.686675309842,55.5320245420312,1036.17320082632,766.275404762467,1105.48636343599,878.858546078535,118.190881187649,518.498944167435,335.103039770029,-723.576605705892,-2276.28481994629,0,-220.571910949149,-310.905022037677,-1284.53106015004,-2940.74444859635,-292.382150722088,-471.476123310604,-399.745376369875,-1760.52267620789,-585.344693203659,-772.44196150401,-2359.33636493464,-646.529981619163,-1063.03766592893,-764.84768076845,-1015.0674378687,-1152.30427209213,-698.946262149689,-1041.30651711881,-618.23721869456,-763.89642072542,-952.85239891076,-1089.34918578237,-668.345204746153,-982.939105535488,-607.79616846512,-761.234984938844,-901.547180817923,-1069.92318497798,-645.94357027846,-956.526529349732
-573.236559026215,-512.514575127829,-446.318608259101,-574.54477334714,-574.817753050961,-361.302271405825,-503.918815238029,-548.235493256981,-374.41542459132,-529.843372606388,-689.153489117049,-288.451014938816,-426.199344884043,-570.559229497148,-81.1498833558896,-196.604655671784,190.195069067101,38.6374182791775,-230.204843725057,412.269551602847,166.30561416269,733.088289136854,544.672767922694,175.056839190861,884.499911748776,711.869301067854,918.323526486621,763.096762259758,326.712778321614,404.286214457471,405.42858141921,-425.918704278131,-1580.3780397124,0,-219.189560259921,-23.4882918539916,-1031.07745939123,-2218.80091769958,-346.710961405291,-320.844907223957,-294.230100297406,-1318.01211454853,-392.05937813633,-679.90888771859,-1908.7529894943,-540.607961971597,-934.731550522074,-649.037490343535,-889.134834162014,-1024.98289367054,-608.015102007593,-920.987981961384,-546.281050988685,-677.274719063845,-850.138129371584,-974.832998254936,-599.062092687493,-876.889698498371,-543.744262972544,-677.003457937943,-802.727873918953,-959.02029880023,-585.717926082594,-856.577695243866
-455.443526953261,-392.705086239952,-350.392932525522,-437.589602032377,-435.570121961778,-284.595511745828,-373.950434798713,-401.124403087626,-293.34197989789,-391.950972069167,-500.649618329301,-226.274332884986,-326.928653989582,-406.428192548471,-66.9138759934436,-121.53376176264,140.236070295374,52.6766146714252,-96.091642029321,322.914760157918,172.919783423345,577.81714261847,419.330429878093,245.339591281733,661.346832604295,557.081001121798,678.766398114652,541.640531246638,490.197538182883,214.154690726016,411.19469131109,-11.6776356341695,-729.437653045894,0,-190.601834942417,166.47399565936,-615.341305357855,-1085.52873335147,-344.871780258329,-191.828427311589,-77.5404259124171,-654.049905510828,-194.593486965895,-456.887447113397,-1160.39313066044,-422.262911136039,-739.404352513124,-500.735256228667,-707.152472283663,-821.613501461625,-495.120719502094,-733.768482258719,-448.064319940638,-542.433270184852,-684.023493366284,-782.467059007506,-480.812558703309,-696.837072429644,-443.750772866617,-544.726610268401,-634.036689942163,-769.905770321138,-474.765654507926,-687.639285400218
-324.62651675731,-262.114773872568,-246.69712479419,-297.152269644473,-285.722582334585,-194.911212128207,-241.365160304085,-258.062884625663,-200.803727433689,-254.70755249988,-320.632796417691,-150.474144456218,-223.202710061225,-246.239897146895,-36.152174662802,-48.1462445138378,135.444171902776,71.5682941845218,18.1340201058327,277.698236164646,172.65588077714,491.826427825106,338.505454245137,288.527979001736,528.347798553808,447.518853889452,555.878881450323,392.549975575912,622.769174884509,122.917585949844,470.108633238916,383.232951397153,-85.7944580939659,0,-137.100807505196,361.19643664362,-287.992406966434,53.3103545047932,-229.254662566844,-87.9407852872279,63.8274536538715,-110.278907554507,-97.616752157102,-310.104206438589,-408.674578484635,-325.963709271198,-561.130572759736,-377.605336313703,-537.89866228971,-631.836055741517,-390.055902172886,-564.48667961762,-349.293761603261,-412.267489937331,-523.124807584665,-599.417892550826,-361.253238001806,-523.779490224626,-341.456820128407,-417.915450161571,-470.823950402828,-587.514551349846,-358.570225178246,-523.584457351935
-248.823257894859,-196.154582599223,-185.014782473734,-218.656852110596,-199.966146301585,-147.758848627044,-173.407673904128,-181.253672066403,-154.420910521881,-184.504318355606,-224.885249506982,-113.806451075039,-174.415480233905,-168.108833876689,-26.4128906165753,-35.330547595819,125.967907977489,53.3411889568724,31.6175300324718,250.827672193287,125.990477701245,476.113254186352,288.412244557897,233.631312108547,493.542499234828,376.48468729484,573.832095973806,335.873930854012,587.118948447532,155.866510103589,484.487385839157,433.403313504068,151.949821443242,0,-111.759538147108,347.638430179079,-219.978509074024,762.089122294524,-92.5343879479115,-61.127585373633,-49.8641895863202,94.785601516902,-144.030062918308,-330.477995755859,122.986139541619,-273.283886904883,-445.609470358192,-314.720898617177,-428.346491818276,-503.121683798694,-321.997712864723,-461.047728693357,-283.550167188179,-332.016391138777,-419.137982890497,-480.388900032524,-290.372815187156,-419.285843115559,-276.489047096417,-335.535908301903,-367.721994880224,-468.035145081639,-286.965463493478,-416.903244161422
-275.18529446559,-241.162816731188,-212.024137039992,-244.346712929041,-232.655724801342,-193.235672767867,-214.945173676089,-211.856976443118,-199.863155213985,-225.538088704978,-247.17528011336,-167.986591519775,-228.600798933648,-210.898552991829,-99.437447051165,-132.270025708739,39.2426665170603,-54.8425117917538,-98.8234268000336,162.165141784788,-20.7660904339717,440.743908941604,182.038463828099,45.9110646270434,444.644454372454,263.480148796224,630.742435095082,276.807249509719,343.502780866679,181.34638154342,333.18764256349,134.827925956279,-42.2399830279211,0,-165.120917440772,68.1279578975827,-424.946983943221,792.756271331587,-40.4102721687203,-163.368385768177,-369.553498350306,-63.4846545482717,-290.905288920957,-487.312341937646,294.941679364043,-288.980488641984,-422.572564289618,-329.1254584048,-406.982881508213,-464.551949257762,-327.024240864845,-445.104545937401,-287.874244174207,-335.089089390275,-407.325109728307,-454.007532366804,-301.126336098571,-411.352694770679,-285.573261978088,-329.578210704753,-358.312136859432,-444.731624256028,-300.637032657731,-402.46149087816
-374.55453014226,-368.535610770252,-314.823729407051,-349.808611869185,-358.169915950414,-310.508736196691,-339.214484239694,-328.248620588102,-316.283687801835,-350.360845894657,-353.047804396692,-296.960413173052,-360.893200015378,-340.334557620566,-250.182204023281,-307.454291601856,-107.0655698119,-230.231725548932,-312.503564949688,8.32767221521726,-236.725759911097,355.517653244286,5.39555334551156,-199.145980677764,330.504271846542,99.3684181055788,642.252235221918,180.906256093786,31.0173449083135,116.200055955225,68.6940200526101,-252.290805650403,-418.869895875998,0,-273.164689297273,-281.940031284987,-720.324277358568,365.654634116182,-61.029783090197,-340.823823180102,-704.699074540801,-409.672569085402,-456.787262244542,-702.920436789585,125.272352254378,-356.091993803332,-477.550266783056,-395.450140641484,-451.615154568763,-504.16088772598,-390.388854863316,-494.889866380041,-348.150947617921,-399.688229535208,-469.417669668514,-503.81735414989,-367.638928975191,-470.793133590648,-354.260369882195,-388.796507691873,-425.394082594893,-497.665469564968,-381.416824605128,-462.004426670154
-458.392017872694,-485.493258535164,-409.80333035551,-450.198083203521,-473.66743876706,-414.191364862789,-458.05881400372,-441.153707859187,-425.373705328577,-466.592529347722,-453.180434563468,-418.300690659846,-482.456474158291,-466.554000637148,-390.575250934333,-463.00943400673,-235.090906248539,-389.449695016989,-495.362710522159,-137.637516583093,-426.067172101655,253.332267026807,-169.210006667473,-400.039425486028,188.526744733808,-56.3141946357302,559.037476151772,79.7758814565231,-205.872359566527,-2.39708156821962,-165.063376013416,-546.014147819811,-699.073664614669,0,-376.738627395402,-543.398449678444,-922.949658138932,-41.7667367338419,-89.0408595585201,-491.19913182419,-921.685538964572,-713.416563465183,-576.659602665191,-878.027066518942,-161.585029063354,-403.166528322578,-521.234869252005,-442.409041139168,-484.177020053212,-540.768890033921,-439.952712730523,-534.013482457565,-397.613914484574,-447.545418404403,-519.43618458992,-548.825865606412,-419.184453212666,-517.544769717695,-416.315436790785,-441.589623974426,-486.691984931636,-540.141691824156,-450.250346710981,-512.783891480655
-464.303298745691,-518.283898785326,-424.011934466353,-472.636075212357,-500.426380760944,-437.118064787902,-493.753804470892,-470.439979782447,-460.477347552301,-499.330254281408,-477.088513283866,-457.910882935973,-522.471015518893,-513.224148863479,-439.440110562312,-524.74688705515,-291.285115359785,-464.26062934327,-574.009806060309,-209.90739259253,-511.251709235117,166.207309084294,-261.351017316861,-496.973353680465,73.5654420308734,-139.063394819234,397.631694815441,-11.1203487644341,-340.324828536423,-107.719688515659,-293.346186600312,-734.398437991716,-863.978499874362,0,-449.114840558468,-684.01144702562,-1015.24061731173,-222.939968344761,-89.9388096635175,-566.683691684792,-1004.67830959201,-880.774504928935,-622.4299671659,-950.241493106631,-358.121647723408,-383.438354412197,-480.868248419657,-419.76516194505,-452.964416068816,-505.090342879795,-427.721578453441,-503.316749447293,-389.798027379141,-426.958900336205,-491.264162092539,-518.878670231854,-409.374482893966,-491.808328308115,-417.984984211987,-426.873580390115,-470.392212560253,-506.78548368153,-444.358626897153,-488.789891879796
-403.812088989929,-478.741265609938,-362.353466879082,-416.637246287976,-454.114189073937,-384.174059384954,-443.294468769382,-420.308716166748,-418.070204510713,-453.085667747149,-429.143851670481,-407.677112636512,-480.886256732709,-475.826568380543,-396.967274523281,-499.409705498282,-270.051826817602,-445.497386593619,-558.457339418921,-201.975022443986,-492.219017214898,109.839674598453,-253.433162438717,-482.827267591011,13.9290884874084,-134.952686056608,261.240606181732,-103.371657452997,-426.410730204803,-171.229407085843,-373.940748370329,-862.245270881419,-987.889592983429,0,-507.259882585128,-730.935384097341,-1049.27855331054,-321.216039394284,-66.9389363208097,-598.817010127568,-1009.79227202186,-963.898506771053,-623.402428343716,-962.409488002385,-482.435501850476,-335.506565560949,-396.628092477917,-360.73784106635,-388.326408408867,-423.189227627397,-376.7699696904,-425.068373986492,-340.46698022904,-363.21499931201,-413.773841278797,-434.822519634904,-353.648204511079,-411.997640497601,-364.819424148804,-360.54079917028,-391.559694709108,-424.193215377495,-377.801602610038,-409.368146456514
-336.963853243204,-433.637631415475,-291.457455188316,-347.73702987917,-404.81015568093,-315.940282112704,-375.012615103804,-363.356420482704,-355.784515073197,-395.183229496473,-369.810765285804,-327.946024137721,-416.152032175914,-416.27891325355,-334.749521315091,-455.162786000447,-220.702080201572,-395.852672361911,-525.043495422983,-182.83360131768,-455.251681447187,61.8110411648798,-228.902684524496,-432.798114610613,-38.8682802413159,-127.572592520901,191.812932407277,-228.395158117114,-520.717646902274,-233.543434717628,-518.444633783396,-952.077879826584,-1032.52658942978,0,-608.211650534738,-765.703458674383,-1065.09654664914,-466.317780351911,-76.9056153899448,-662.352521185261,-992.040706203266,-1032.1800937811,-646.317521587374,-991.852285661055,-622.7923690014,-327.191025587583,-354.374104152335,-335.115154379839,-342.77937162766,-364.514604125241,-339.520869342866,-365.163664187816,-299.280099626205,-313.431638675916,-356.896197166118,-366.173115709252,-305.285386421265,-343.684122178362,-308.899889813826,-305.645313958556,-320.126541290494,-355.466250312307,-317.631445216691,-341.301887180405
-301.222107926319,-414.330825692545,-257.381406839406,-312.35040821725,-384.571578536185,-277.475293085087,-340.266246121147,-340.086348381515,-321.721756471759,-368.323941087808,-336.307431599962,-281.747695606055,-376.697614416647,-381.400783552414,-310.838871377646,-439.872291835801,-205.276260760482,-388.852718293716,-529.127963780975,-228.496950563202,-474.538516050253,-26.4938247673251,-287.189636046623,-440.21693771929,-172.608827056753,-212.913474552278,95.4858360926897,-398.978095647884,-595.697948203468,-356.973744068562,-700.754288669926,-959.076102667859,-958.293582892427,0,-762.259804453058,-834.337634801631,-1097.78423010946,-599.295984791832,-164.804987649851,-764.620585451207,-922.214553754693,-1077.78485833262,-681.640739955039,-1009.03604715995,-723.657146480796,-337.813281351426,-340.155791212443,-329.390361950658,-304.504527137563,-327.670596171831,-320.106367293044,-331.946155106188,-281.272308457602,-285.363685372656,-324.248567816732,-321.565326471846,-282.573834883029,-304.228822426133,-278.533267102516,-278.061914419826,-277.016071530401,-304.091679940163,-290.910755143173,-300.549919013132
-261.425675027966,-380.254723807747,-225.567289755123,-270.778999019578,-350.033511073036,-242.513788322776,-302.859269674836,-300.960966765664,-289.870304594887,-331.288567494048,-289.186488720951,-257.128015763884,-338.266928463463,-338.795479061175,-302.118591384505,-421.539820323118,-214.430092542335,-405.174530916628,-524.512272676464,-311.003558809381,-498.20741714146,-150.514434435402,-389.205936519642,-467.867200710434,-360.484015234172,-332.633712494148,-87.0108245932239,-533.632510808213,-536.842633421059,-499.278730451047,-733.238414177131,-776.643014536139,-789.156252623575,0,-833.647343844983,-804.306945064736,-1088.71195304706,-628.411845594222,-244.097718616894,-766.536900388712,-708.394076364476,-1024.81648245849,-606.477280436524,-904.305476683502,-683.782590489209,-265.246283173138,-245.491903391812,-249.222999780046,-206.794688735844,-231.394748871466,-253.167201531772,-247.269102355065,-230.145429749638,-219.246009689312,-243.207754012097,-229.903965821799,-231.166183711251,-227.016676954206,-228.826655766516,-214.174469496084,-200.957965618008,-208.641068771708,-241.59873314619,-226.242730581746
-167.39246123329,-292.38413353828,-145.918195532386,-171.194203721925,-259.653404876569,-168.57026731701,-210.036044968426,-194.260957396888,-215.176031180207,-233.445038761487,-179.009573139696,-202.144125985389,-252.24419626781,-240.521793461032,-258.887121222737,-350.242557873625,-196.348546784203,-369.456475895287,-437.389189248134,-340.602376723761,-428.060164106912,-251.980859200949,-407.708464450189,-397.261790311823,-469.28239466721,-337.026602224069,-285.107923587074,-520.540105572586,-311.626881275498,-537.832968852702,-521.587224384391,-384.225370062646,-538.706682728275,0,-660.245788326624,-497.376749338687,-915.008964113949,-565.311408763037,-183.93977168591,-509.924086930722,-358.296212722145,-850.643054067265,-345.479547591738,-676.071985104626,-542.929188568198,-89.3643239411973,-40.3391759366823,-73.9573223834777,-28.6757372989233,-42.0643660016563,-101.538210820307,-68.8998650047029,-100.716702674862,-79.9524337870141,-78.3836019987841,-56.2292972391917,-107.906496387489,-67.4333808538052,-114.379952974306,-73.8159464335521,-53.1678038806895,-42.0172809312817,-125.661625491111,-80.6959577229427
-33.5205279177645,-168.767684526414,-31.2022083874292,-31.5353660131077,-132.576817342028,-68.2573677185642,-77.0316048748499,-45.3527873512011,-106.472197673429,-93.2663591870986,-24.8734765884076,-111.412744566275,-125.182710850372,-99.5196121509493,-181.548258089917,-233.691143043652,-147.455998775736,-270.570761802795,-283.327566240692,-301.277184400928,-273.509132532865,-308.188362664896,-317.855805752098,-221.163296601729,-451.986940973483,-206.48985564386,-424.5506132511,-357.391913138172,-39.8211556495217,-434.85499181669,-168.697501536867,71.6800472672926,-234.648684700541,0,-241.691566063028,43.7034337917078,-586.325531695117,-463.118100845586,14.2887701403144,0.285206060361638,-23.0243902780098,-645.75807020486,25.4016415014714,-452.645317569052,-419.446204237109,80.3583118545914,166.209561347121,100.581390837904,160.996440586595,163.181702943496,71.5534571493994,129.370786425106,58.6689897877436,80.7778297061743,106.302720128787,135.567012871913,46.1338467655927,117.111517024971,32.3660615569274,88.3549263586951,113.122065523367,140.314205502724,17.1102184133945,90.0002859193923
86.592938664119,-44.2948300636612,77.9256032613515,101.119694192584,-6.40180558007814,22.5023673932027,51.7260737322081,96.5719242040625,-1.94546600612884,41.712226860508,121.650241218869,-22.8230587981802,-1.88094419676502,40.6556717880168,-103.59670567266,-112.616133510612,-105.230212469897,-161.24915071022,-135.02339177543,-254.549676490965,-128.053801670344,-352.605530890561,-213.182922230814,-59.546732791496,-401.533248360977,-75.7631700270714,-517.23093292992,-161.380248919259,153.101489154979,-284.512763285705,175.125067024392,425.629428347941,57.3488294432689,0,247.312013920534,576.429531485666,-208.150682935054,-323.282618780413,226.999548750491,575.398168051795,182.842184173019,-460.45214450236,376.702108572005,-288.989205808563,-331.276573364521,154.586067836642,276.126124335456,193.56261829742,279.527441743517,299.743621173168,180.985965127043,258.728782917154,169.071967095764,192.710453655841,230.004492720568,271.034594522397,158.514949631537,247.974428775371,144.711621179322,199.120648129769,231.832349133732,273.875645030737,126.482634983585,222.36672421026
170.462994146312,59.970315411556,163.065651259539,205.970417098824,96.569607679787,92.3606278769278,156.217845931027,212.890247149004,75.9732132727381,151.936120993804,240.881168900146,38.7851362757736,93.0404380541014,157.326902468077,-46.2221515037864,-16.2197409032194,-89.1529309480309,-79.2761514758862,-28.0020603746907,-238.169772478983,-47.644954099018,-402.710400299732,-173.765804977304,-15.701724802842,-408.400435048145,-84.322622246186,-587.352009162944,-101.008794709826,198.752631627171,-202.993159053185,351.447358452748,615.309265315563,322.472844172084,0,564.322263902923,888.958301769013,197.582181768271,-119.235731826525,332.940605709829,963.6245033834,284.869095557638,-203.477779875858,623.326969029268,-107.516160256592,-208.048841676559,167.262911914374,319.399695901623,224.834111429903,324.890260468926,372.609164190823,221.342218992077,320.793981154065,220.198086075459,247.969570267928,290.681636718699,350.489751368597,207.506477819099,321.206764259602,199.612727103521,253.579871947794,303.829971275717,356.595670935644,190.205438553455,304.472287337789
245.356074261925,133.498173339384,229.14572246866,295.869161182743,169.304219873589,146.93972279058,241.711451944931,304.510033539685,133.954738149354,252.156659163633,349.667908360747,82.1215059556935,174.426342139464,259.962943613344,-2.93166679105166,53.7818999406682,-90.5825837672652,-22.3051105748396,52.9566533225309,-232.200320947055,-22.7696023237286,-428.743536384927,-211.534961848715,-97.1293350070592,-483.307175261077,-292.437293930465,-619.024545366781,-313.676439696489,35.5303989368394,-230.994481310813,216.733249533834,636.065675683811,588.729275890639,0,567.363043221844,903.593020963772,610.350661767579,129.660231626964,298.438400034491,1025.88261981577,331.547216620439,175.30884880848,718.216754746615,126.41619097816,-52.4916382166936,214.836481839175,390.176301784806,272.046863957613,376.540230080069,447.820811902528,263.734084534611,387.0985698259,268.99681842341,297.534841874911,360.081504427223,431.792531089481,242.809745802994,393.608166211236,238.453491137044,309.716035993869,378.091523500387,437.078681622011,242.427846444582,378.038830410972
340.260151152313,180.364512434904,294.605498143681,392.008441796371,215.866839670436,195.159273628362,327.224390454649,373.339693564824,197.236661764185,360.488262932658,460.466753638226,129.383005772271,265.678590403558,366.661980611398,45.4338475480715,117.806307028992,-99.6174774578778,21.7815238506378,127.321093964468,-215.007853100999,-33.7753483521755,-415.280799046771,-304.987820284766,-255.459357677932,-605.417325475499,-651.320958218398,-624.250601087711,-748.584004042739,-328.461077857499,-331.142599475537,-164.870804074633,514.422501969522,792.967530698774,0,350.99876075105,649.899584140802,879.921788684476,345.874260188097,183.899898334563,828.085801976122,307.475959214395,541.450033515178,643.896548152314,339.570859555084,53.8221879317677,337.425504662465,524.772643014447,381.282182950293,494.504652812708,566.8236386132,368.754602963961,511.492575687247,361.6361957784,388.830431013324,492.610980665799,555.54394407298,325.532150606696,506.787873821523,314.569528540825,415.464369220649,489.749222627971,550.638634114399,320.990872723683,486.40190250857
429.995901794964,206.552898101967,365.203753376823,477.655922876364,234.852488110731,244.519806513174,413.86868950187,414.394259602511,273.621233809381,455.689390982777,547.786448816009,187.401852823611,354.848149821665,461.521571822278,100.712782374961,184.501471772941,-106.961133388353,56.8794951574714,192.526201263365,-187.16388742594,-65.5556248844895,-383.140248363181,-391.966655242945,-421.460420152827,-692.94509916274,-954.734318989439,-638.482645434946,-1074.63646550022,-702.388823536406,-402.542416003595,-509.461676426156,363.019514241067,819.444259393528,0,157.790468743602,281.325844570462,887.883172748952,470.962709158912,93.5833819492445,559.153943924195,232.1924909064,748.069241029944,469.450873968375,490.632795158706,108.390535062334,482.692915167064,678.433959050888,522.266343879496,648.47583880533,708.327860944083,512.534995940281,669.482519727557,476.072905022898,510.709550697225,654.378311392527,697.372949085255,445.795752538552,639.050893197367,418.945333577458,546.112476191502,618.25156430155,679.569641873032,418.346268999716,614.955110424371
456.152912522287,198.265934742912,407.645279436636,499.912902111075,213.414988284411,281.135791676761,459.117776567633,414.286489761678,330.279549866254,486.433788350802,567.961543538679,232.289238850854,396.339822880405,495.306026649705,139.693376855632,229.05636485518,-96.5791141707695,81.4357832805081,233.876644910518,-148.928971267636,-85.2656881321801,-340.403611001987,-386.694592061795,-497.033486279996,-606.335898826008,-971.513435718329,-633.412792588624,-973.444265644924,-813.875512349185,-344.445759550081,-610.433147616383,325.908895497488,681.092915245806,0,112.712131055296,19.1070064638586,708.017339007543,507.585069720243,88.6740186624,361.636545960805,203.633085740043,798.303801949444,330.471022500208,606.960340329604,179.079595638926,569.629826408806,780.196690214157,619.045365276274,754.621439335709,808.251656129381,606.281233041608,774.516758435344,542.190555754218,597.665824396855,752.84907845187,787.04442546783,528.563161037709,723.464362751042,484.682961548752,624.417070395936,696.155013103064,765.3017198311,480.363149654516,695.609073126661
396.673451964589,129.011811991775,381.791477725585,430.984073688206,134.789335763336,272.998931667154,417.230275595748,353.944596414364,322.93875268218,426.314294387582,497.242807061337,230.378324375593,358.160292023212,434.44804882763,138.657352064492,216.037625974901,-71.6282370494644,84.1131161465277,225.300185039252,-103.028897104146,-75.474572012479,-267.380568722637,-287.050991916899,-429.436950510466,-335.826841836939,-714.705408758112,-530.459362439292,-549.270646292573,-623.135629701907,-169.124992014564,-523.440957918503,365.090458814805,476.98224585687,0,113.051602240003,-104.664728973265,455.515050472785,425.955494569314,116.009509348284,220.655132138353,218.309426301276,723.974058211609,250.395278512123,646.34019438743,224.512280971409,554.089783481054,767.882160923766,609.400487786915,739.910981111595,791.088604710372,584.947260599666,747.308976365787,511.615370075664,584.556411571021,718.466665630957,757.128587442785,515.69293414012,699.989685904619,463.934115362475,595.85293594284,663.467486753165,740.487080189564,461.059240301094,666.426380205749
267.718382312113,-21.980537688826,285.145554874961,284.572649213878,-24.8523094527879,203.550621598107,285.832829441269,211.293033728063,236.186248477147,284.686885924047,330.168830300462,172.185110923879,243.954681599201,276.775644048069,94.197029919619,124.457892423545,-59.8150685033453,48.8854570853468,123.352401986564,-48.9681254978559,-75.1328392187667,-119.820693317888,-168.021971303867,-310.033367655268,-10.7783337047387,-392.952703592113,-242.293781150156,-152.094491520133,-390.005278453686,55.2236147309051,-457.360911551992,223.396884456545,166.983013807348,0,5.09939651912679,-330.344890360227,112.040204462851,105.940336373249,80.7300721203189,9.52350497106116,87.874295252236,449.874945020471,82.9239680897948,473.157250013636,76.932862888361,432.705778927136,598.575451459218,471.633169994076,567.099113122254,606.970239737801,448.218276764596,563.894419123117,386.576261966018,446.35802993971,542.06133980943,574.993136322504,398.552783299915,542.35868225594,357.960425340073,457.907377270069,505.011423181356,565.853918690538,351.813131577084,505.83279130263
70.6850818832147,-258.223108082671,126.088837215065,68.6961843500274,-284.526109047463,69.6449753220677,79.9156840105781,-28.5060046267658,74.9719170609811,69.8695675040561,63.0666298809812,61.4577855991221,60.9526663040954,27.0003947399801,9.94806647599711,-52.828839237551,-76.9448012476458,-37.0347742850513,-98.850405820019,21.0157938796577,-142.144381707159,140.318615692419,-75.8440528572896,-283.766487493081,306.596639553485,-134.479574336661,280.659364101057,98.5689141442252,-297.879850235822,315.632434254009,-550.543816193269,-251.068934057884,-429.917305683197,0,-238.278383751971,-789.384997037442,-394.858014179984,-538.050999277741,-14.3435771879911,-349.070793440152,-336.210541398309,-114.193588553989,-290.507633092189,15.340906557177,-373.508381354991,208.07092750916,267.505156021872,209.886025969743,236.173615614441,261.597390728218,211.409696884207,243.581164541371,177.860282646958,189.98812379484,244.223870106564,245.511236532135,180.60291526238,248.291054840939,171.976965253868,220.470594386946,230.092359070949,248.362620613965,151.170101572144,220.612178203145
-194.903213441821,-554.970541288036,-99.4693731409368,-216.872861235074,-619.485383138118,-128.045244319106,-192.356125362678,-348.349167611835,-147.524137431527,-212.820321497081,-288.458915582314,-100.995095292387,-186.578085823941,-298.130440844691,-112.888916664026,-298.213094413862,-109.169399824688,-178.68389192508,-407.698473097434,83.9344371831019,-288.408334437616,462.53687002491,-29.5030229305444,-381.6436215186,603.411764017961,43.3778803711421,929.66321811521,271.792608585604,-258.221295925231,545.235805299783,-717.932151291227,-904.354632545901,-1361.71317742081,0,-558.811874293946,-1221.29333102587,-1058.84129972202,-1409.16144362346,-104.578115161771,-785.787265588724,-982.294267307231,-914.540003799666,-817.561432274912,-640.827003902423,-1046.30811715672,-107.638252349877,-171.519664731378,-145.95975536495,-199.635213288178,-185.084124969792,-111.278441544824,-169.488646912526,-105.719305400634,-149.556613771826,-144.503629525935,-185.389910979735,-118.030649671503,-151.797510725398,-90.7813177509055,-102.858340004382,-136.711034285951,-164.021260697288,-132.959888194667,-155.737250128056
-480.940412530381,-858.406535876334,-361.454349828576,-530.688276750633,-955.541568683871,-357.150511559213,-492.245037158546,-687.136785922622,-387.376926113263,-523.610293653157,-662.962402513978,-291.24448325335,-458.12928363744,-644.183875159349,-253.886360044039,-557.303895468511,-136.872707576226,-352.484901349291,-727.097780495852,93.8412244175162,-470.183818746881,711.707696843285,-49.6533593595237,-539.424417129095,768.471274342999,112.66553081778,1427.75436406449,319.177937864672,-222.314556500632,544.335083270426,-769.119872211186,-1555.16697308013,-2367.54859890823,0,-921.340315592757,-1385.69018013544,-1782.18371454585,-2244.78999083457,-212.461897363237,-1176.62265682116,-1663.7060564828,-1739.31247536792,-1353.89181489675,-1314.51742246087,-1718.61433586182,-447.790881748788,-617.295669966465,-517.401108645375,-631.167245080626,-638.506092160893,-454.501093865309,-596.762051662721,-409.739797361221,-497.765182020356,-552.606143976761,-623.670037110175,-424.539091845459,-570.206632050356,-378.792360620948,-449.981249479378,-525.16447922928,-588.888863251345,-440.254465802884,-549.596560754778
