3.69731833388395,5.87221147146275,6.01720434730133,3.98730408556112,5.36473640602769,4.13229696139971,6.01720434730133,4.92975777851194,6.52467941273638,4.71226846475406,5.2922399681084,3.62482189596466,6.74216872649426,4.05980052348042,6.23469366105921,7.4671331056872,5.14724709226982,2.46487888925597,8.77206898823447,5.65472215770487,5.72721859562416,6.74216872649426,5.14724709226982,6.45218297481709,6.74216872649426,5.36473640602769,5.2922399681084,4.2772898372383,5.14724709226982,4.05980052348042,5.14724709226982,4.63977202683476,5.50972928186628,4.34978627515759,5.07475065435052,5.00225421643123,5.07475065435052,4.13229696139971,4.63977202683476,6.01720434730133,4.85726134059264,4.204793399319,4.49477915099618,4.34978627515759,4.05980052348042,3.1898432684489,4.56727558891547,4.34978627515759,6.01720434730133,6.3071900989785,4.13229696139971,5.50972928186628,4.42228271307688,5.87221147146275,4.85726134059264,5.65472215770487,5.00225421643123,4.42228271307688,6.59717585065568,2.89985751677173,5.58222571978557,4.85726134059264,3.1898432684489,5.07475065435052
12.2514511801596,23.4412267577016,23.6942360183532,14.7148735252837,20.5257940836808,14.895386348016,23.1867609529182,18.1718446675015,25.1597399339882,16.7048842077347,19.8193179500006,11.3274857327215,26.2642182041586,14.7688817176902,24.5812249747657,28.4717182003674,20.0012873168648,7.12851850992983,34.0836376905194,22.264252049612,22.2457638040992,26.626700393755,20.0737837547841,24.8157459899045,26.9891825833515,21.323254900793,20.4717858912743,15.2933884845062,19.8562944410262,15.6388389727217,20.2187766306226,17.1583510807632,20.923796220171,15.4923895527513,19.6572933727811,18.9508172391009,19.5847969348618,15.402861413451,17.8833154599561,23.8392288941918,18.117836475095,16.0368411092119,17.8477955130624,15.9998646181864,14.9138745935288,12.0183867091525,17.2493357641953,16.3623468077828,23.3317538287568,24.9252189188494,14.6778970342581,21.5037677235253,17.068822941463,22.5712695026701,18.4078222267721,21.8292734220962,18.9508172391009,16.0538728105929,26.3011946951841,9.26497861235123,21.9202581055283,18.4078222267721,10.5684579507667,19.6572933727811
5.7062928343297,29.5530248026446,29.5334455891509,13.9400207667314,22.8895791323017,12.9239796678802,26.4005236013722,17.7728324542788,29.0995230640623,13.5847458062151,20.4374029380563,2.0771419319946,31.7126328675462,12.4987906471113,30.4621056191101,31.44688604633,23.1009173194065,-1.77885258358669,40.134736512483,27.1758925584315,25.3906684947278,32.9251275225295,23.0824290738938,28.6573023419124,35.4425580600602,26.6735125172223,23.9683270623253,13.5923883425537,22.630418744997,16.9892001657121,24.0604027137383,16.7814655931472,23.4129949311366,12.4041674835854,22.2962144076604,20.4240097167693,22.1697097773345,15.9844052177396,20.2214050339842,30.148937039399,19.8665305151724,19.1800340366907,24.24532003442,17.1320111055886,15.2891752349382,12.8580696638724,19.4906551042889,17.5470449434597,27.3060008032975,30.6868370275019,11.5295156460327,25.5849749804518,18.259306627642,25.0626152840439,19.7925775331213,25.5469075214451,19.9890310892535,14.1683557896634,33.2531807332134,2.30591226218513,26.5161825225239,20.0100668468792,4.67325489965143,22.6586965972568
-24.7566698280572,1.01495401005217,2.11105334868366,-11.5256192222805,-6.08358815883773,-13.8951896646336,-4.85940977471745,-11.3012673653102,-4.36411909155763,-17.6441812595906,-10.098363711564,-33.6859529521722,-0.704263926567112,-15.9272314950968,1.92827235382594,-11.9979853322558,-3.54179758912891,-29.3462216484786,-5.75230195780859,-0.335170324418548,-5.32399619522326,2.14373246820629,-5.39951809075207,-3.70436868841097,8.06627302595669,2.11567592909795,-1.80702397221558,-11.7696560058645,-4.19171801829011,-6.5807270954632,-1.90666142548951,-10.0531261600306,-4.13856732280094,-18.1482513159946,-6.26943497854425,-7.09728035108531,-5.31719167884642,-6.25377035444605,-4.03599730430755,3.81144385560779,-2.20878796151651,2.33370076154723,10.8782887342957,-0.637567468061382,-4.41449773109672,-2.86600301046242,-2.52259595568075,-4.47336197498047,-2.87049006024777,0.526525870104797,-17.5217930548555,-0.887874209015881,-8.20696601482734,-7.24410382079214,-6.66731601331739,-1.79448824784679,-9.01625113974879,-14.6554350179717,3.33887571458256,-25.3102117326171,-0.852394629361154,-5.78032705690489,-22.6870733496379,-3.89699731685225
-38.6919399467628,-26.5611263192575,-21.7206342463928,-29.9448546645785,-29.1391315077793,-30.4729871951703,-28.4458136509576,-29.8135966520767,-31.9226252257459,-35.716386944651,-31.9368218685717,-55.2420248745529,-28.8629697747817,-33.4470739531051,-21.6070808665503,-53.5893747208077,-23.779373675591,-42.696434239107,-47.9470119726638,-24.0458332694103,-29.0262188013438,-21.8244713249188,-29.6196685559155,-29.0603752906781,-15.8180244384149,-16.8753461806579,-22.0200635702243,-25.249057909563,-24.3371725844165,-24.8828292630696,-22.3074392933155,-24.6617233069496,-24.2765934437868,-37.3054965393114,-31.2575773789553,-27.0036095396619,-27.4062022131014,-19.8815883610181,-21.4439709930749,-17.5434740419833,-14.2560490289274,-8.08644220166252,2.76878819413068,-3.70285914740885,-13.336499038436,-9.98669265002008,-19.1743035185253,-17.1009573525251,-26.7897224641728,-25.072485133008,-34.7617270316954,-19.6566538372496,-27.1483787415746,-31.922865671859,-25.1808949149316,-22.5768839775061,-30.7813569323752,-32.1208035930806,-21.8602888298042,-39.9347015005564,-24.0681906439896,-23.45477406786,-36.0823340077002,-25.0080745785027
-14.2134129776026,-15.3191464983057,-8.65709086953492,-16.3313641257918,-15.0896092640435,-14.0262739417461,-11.2770813371398,-9.42891825659291,-17.0914929824149,-15.5925799505954,-14.6881256805614,-36.5414359489833,-14.6278692508577,-14.0081774066349,-7.34230714766186,-42.9836778078161,-10.2064067186773,-24.0024089824798,-33.1524381701811,-11.6327383206404,-12.6891967960863,-4.9087888333414,-15.7895810058535,-13.6053046484703,-1.53354515290914,0.0110583676899361,-11.7710854831485,-5.72094344949813,-9.00861307648296,-13.903537003659,-7.75961447137088,-2.88287425455682,-11.2405790187075,-17.6544267198796,-19.0468075237761,-11.1277842445314,-13.7422921029231,-4.5710181181422,-6.54542986242029,-1.82748047669737,0.0291806115909019,2.30316210642893,15.177310569776,17.6016341599369,1.62507790413648,4.14255168072109,-8.40431929820272,-2.51267772599839,-11.5492598839571,-10.5387890699213,-14.5527970945274,-0.856947598216971,-10.4225017133332,-15.3234479183625,-9.83693806736795,-8.10532638457022,-16.2621213039084,-12.418791502115,-6.391184023636,-22.8713638551755,-11.1796675505552,-7.32323224609428,-14.9104024110281,-10.5588156227871
9.95526205822576,9.68459553930933,11.6202939588658,4.84622418941696,6.40856441634176,5.10925964140782,11.1731602961072,15.2652467660951,4.95017138135325,5.25034206545598,8.22820534151401,-11.8463645657279,9.70192740968348,8.26519935397058,11.4105107919784,-10.6467180635773,4.50427770289775,-3.03317225821953,-2.77180126826904,6.59990291217701,8.70924644872683,13.5747462424313,8.48599357367544,5.00564888834827,17.8901256572123,20.3210817389848,-1.01667174167482,16.118371117169,10.3160252303293,1.17935394764022,10.9007871414815,16.4473234296042,3.96284552619914,7.37493726604901,4.70281692386532,9.28233784446824,8.10913604082865,11.2082074667137,11.4409503868569,18.2614807035473,9.56417886481733,10.1751703083704,22.9775220865492,25.2378900334824,11.0264497324551,14.1881941830574,7.78210224138712,6.91323126538381,8.51060075143221,10.6603715648688,10.3370316525622,20.8946690785645,10.7490279753199,5.39612351047748,9.66348428822993,10.0736111741182,3.34014025793198,8.52539281318372,13.6327399340709,-4.05965485963461,9.58756429274126,11.6564495880422,7.42136328325369,11.3186444041104
6.96912445936106,13.0902369854866,7.45567034931273,8.0627789144525,4.78310476204333,3.29006493652899,8.93932985504021,12.4801092523501,2.24911948425924,0.895630515111691,7.08379848250503,-10.3113885943887,8.85968162271024,6.86305312302053,6.10521040845275,-2.77783403851665,-2.03923699102949,-4.0659679331096,-3.08709978041716,1.56739000678086,5.92422796688824,6.42713131633838,9.3860578558853,-3.11531124111364,13.7687030491733,13.2114212232846,-8.07967452719522,16.2814464744226,6.64210182740472,-0.942437907411233,6.6252595813563,6.564063644048,-0.313053720427055,8.56081964657283,7.27339929540064,6.69455970821935,12.1296881558676,7.10508132184565,8.6169197816144,12.8504066619622,2.010026341108,3.85972889178745,9.47494842719743,8.73245789145023,4.78930166496887,6.89005148540428,8.40870581222448,-4.69618533544213,3.40351929212312,7.19655981265888,11.4265304093183,15.7275883230703,8.16971715377304,-0.674111925487081,8.99322076801095,4.98393941947141,1.1825420165767,1.6864946728182,6.69423250534226,-3.9619091615764,10.0712822638336,7.75220767639412,6.29424336873904,10.4561974735872
-6.00509319439248,-2.1113895603964,-11.1587655886006,-3.10568576536647,-11.3935068869663,-9.96077464069722,-5.86423069644549,-5.42336918485114,-10.2375057301294,-12.1971558555432,-6.33877844716313,-19.6348885368513,-7.42829436683308,-3.0087038712446,-9.52403086073316,-18.1148079318447,-11.4294966065328,-15.3971098563804,-19.8938739888542,-13.2015963953145,-6.84476293698183,-5.93679795965426,-7.47349249008908,-18.3376279925182,0.18829804512613,-6.61139444287121,-17.4821123973539,2.52010225201894,-6.37166083355671,-10.5469484113243,-6.9654431791689,-10.0231068136309,-12.2280211270774,-3.31067974252461,-6.72069894055618,-6.88350218264555,5.31452857937106,-4.38417400744197,-4.25289947174597,-4.16264741291115,-8.65632204558437,-7.69193412027152,-12.7667659527995,-7.64474778428778,-3.68501976408745,-6.84033658267362,-3.46310718319839,-18.22099875784,-11.1455193337542,-9.15162894295326,-1.96453380329687,-1.72371882299203,-6.98186757992951,-16.5885178145181,-4.77803846549628,-11.9341412260207,-10.9668869154544,-14.8348856997928,-9.72726427839578,-12.3215439537004,-1.57476457140138,-7.47882785842648,-4.61089285526327,-7.27227704150618
-7.84221462616388,-12.2690040787841,-19.3438294164572,-11.7204821812102,-17.5845890218402,-17.228396049479,-14.3913995794482,-12.9778841413025,-12.7848687393701,-14.9576137100733,-11.614500791018,-21.0039312280355,-15.3765829361536,-5.10506386647266,-15.9828936557212,-28.2967325624045,-8.81289897811411,-15.364899506357,-24.495018623601,-17.3250487186816,-10.085517895156,-6.73142594121266,-16.4050599496583,-19.0821521030512,-6.69335953624608,-13.3239008421171,-17.444702760103,-7.00058997442911,-10.1018869242373,-12.6291832424865,-11.4353526166623,-9.83508843813783,-16.8305963811444,-9.74245978055728,-15.4626922584417,-12.2533068309651,-1.12759401770396,-7.29670835720776,-10.9597474234998,-11.6424725087167,-17.0859958837771,-16.4531255586108,-25.408340022807,-12.2870120466798,-9.70414073863529,-16.0669983769567,-14.5121493815448,-20.9143705536094,-14.1112035444053,-18.7245705503527,-10.9573207667222,-9.41643977788903,-13.7085232669674,-20.3569627657065,-16.5000835455978,-18.8288707435913,-15.1941349921322,-15.1994080712688,-13.7987911984417,-15.4753942247121,-7.83625498675927,-14.438246919535,-8.1708460095919,-18.9722078568606
-4.19860962141862,-11.4875678384832,-14.2586887561612,-11.7725688709859,-10.9294666038647,-15.5230834133468,-15.8303405094537,-10.1396921313354,-11.5104739253972,-11.359937362179,-9.26994124781951,-17.9041952717034,-15.3507297838803,-5.44690060843722,-16.0718548830738,-24.0940120386924,-6.14932269077269,-8.7037141535696,-20.49368579419,-14.7221811470545,-6.02158731016028,-4.55935788322008,-11.7731373995094,-13.6101912978099,-11.157868428456,-10.6678929013395,-15.8200543621037,-8.1638177784371,-9.05904017818251,-10.4480903737493,-12.4864439527271,-4.85778979476442,-16.4862147768724,-11.4830766259584,-16.5273064550026,-12.5022364738015,-8.05808419178987,-5.71747321400829,-10.1159166034109,-12.9207452022469,-25.436793715803,-20.4900482849837,-28.1947488535075,-15.3392974585916,-16.0201818683606,-20.2749945740245,-20.0671427542502,-20.520123611519,-12.6481728849844,-20.611963610302,-12.6275633187008,-10.6976881364225,-11.5309590302494,-15.9024922304016,-21.2177550600728,-14.487284735912,-14.7134707987149,-7.3984174428115,-13.2812497144144,-14.1138633383807,-8.8611298089035,-13.3718571275743,-8.52810694276364,-16.2951112171236
-9.99280776351846,-12.7119186841081,-11.9327018575927,-10.3354914745757,-9.37819725150609,-14.2186396355692,-18.9485938387938,-12.36208689443,-14.1910810694208,-14.1829142254546,-10.5816332682715,-19.0378955254161,-19.836659905892,-9.99314170717816,-20.661152013318,-18.2555739977285,-15.7327106700678,-12.8665112193779,-23.6820721111957,-15.8042987026417,-7.74710206015831,-9.86293171295105,-10.4549964246665,-17.0143456236263,-20.4876097520892,-16.6266528248224,-21.5954025113711,-12.100776024764,-14.3533736738346,-14.2275671490385,-20.5887588454933,-12.7334004625857,-21.0571537498153,-17.2141360195094,-20.8783112163861,-17.6162987158703,-16.4833411461846,-10.6526320949752,-9.21248615904549,-18.7338247549106,-26.2139350684038,-18.9674228207075,-27.8323110694516,-22.2970127659305,-20.4196473939107,-21.5240462782209,-21.5351378411103,-21.9705950817664,-18.2055893035908,-23.4102206734315,-14.1914708151368,-17.6798955839312,-14.1360716480692,-16.4784377357706,-24.8276567303302,-13.5561796304818,-19.7398064010817,-11.3970007717927,-20.6365524257837,-16.1149451384281,-13.7640300810253,-15.0588584747215,-15.5047825839877,-12.4111279104627
-10.4557211940358,-10.0857508944752,-8.9902422637578,-2.41043887601171,-6.8647028095652,-7.19526546463311,-13.1756496331549,-9.70545328153293,-3.9163917860087,-12.2410989445375,-6.3203587285076,-10.8281426013256,-15.1232244029238,-2.36049903218311,-15.6384059567066,-5.63910865752782,-16.2855105635283,-12.5021892312612,-16.6211018989773,-8.76089663735528,-4.9210990894353,-7.99669273766929,-8.17694499667688,-16.5087995056293,-20.7487526086208,-16.5946991241481,-18.1489148874556,-12.0310792315213,-12.3988511496382,-9.29355111016055,-18.5248059259324,-13.1520244261445,-16.1149979988169,-14.522965581318,-16.4108231412253,-12.6393878536789,-12.0175102023776,-8.62451585108339,-2.46329400732489,-13.8449372392689,-7.44778646881467,-6.2567920270545,-15.7871909917974,-17.3012069955725,-10.8662243382828,-9.98026964522928,-10.0186874660649,-11.4826293046432,-12.922083848658,-18.1450797935028,-8.44871294488435,-15.3849074329443,-12.0807254798598,-11.6369835060601,-18.786697843752,-9.0506977878415,-14.7453555251536,-10.6527879927463,-17.0207820397594,-9.51352874814212,-8.89588686684158,-9.29834424439368,-14.7188678629313,-7.08623396439865
7.4315803596299,3.45974991969868,2.21753841729258,13.0307731915767,6.45832196581126,8.17189486497778,5.40184547784753,4.97512350666519,15.9704077617645,4.3292351845698,8.31561698568798,10.5677474311394,5.89381583148186,16.5731287294981,4.57046454661786,15.1491403651918,4.72931959991636,6.82708437867117,8.11197398865535,7.31545912034773,10.3315982584956,6.49927962342919,5.03407859832249,-2.206146966541,-5.50431885644357,1.61108003187591,1.65791664077094,0.696959718919052,5.03750297380533,10.245324826878,0.970058966888846,5.7525100486913,6.69803530452253,2.1512548826553,1.38004464071459,7.52569354943671,4.26283929636103,6.82814166883682,12.586704116048,6.20652288464655,11.3550400575163,7.3188180344479,-1.41232779984216,-3.98806930299045,6.46829741990581,8.39429300438606,6.58438508010476,8.10196492777871,6.15191146388395,-1.61004295725941,4.99241159863012,3.97113749732795,4.15046312695717,4.78794506129223,0.72271365435016,5.0695443856137,5.9951920797905,7.95991374021723,4.48983665714837,11.4562574666145,11.7208459656719,7.85512622692878,3.93586828516568,5.62453363574031
15.023395519227,5.41817676504571,3.2511634599908,12.781258722346,6.91765009085895,7.35273797302452,7.19130980238415,5.37828404239698,9.90894127848182,9.57098380593296,8.65107086851221,16.3223901593543,11.815093271141,14.0042323075533,7.28177625961667,13.7721202138412,12.752180334922,14.9322227692788,10.6913635459,4.44004936290116,8.98311236826626,6.55618934628793,8.02503971141105,0.626291384509448,-1.39222406030649,6.34283127766393,7.01676948825062,4.23224620879366,10.6250512975541,12.3336879392053,5.79375710270943,9.17312619322565,15.812531082023,4.19067028650507,2.76002547696047,11.9684053077986,3.2918059511978,7.89301730553449,14.3712828374028,6.23630444342872,3.12489858759483,0.071769650455791,-10.1824378737147,-9.34448233205553,7.05901705832895,6.96032731564638,2.06789428922112,11.2174318333582,6.43597906985062,0.372368631908696,3.16190982554333,8.87178499615446,8.05230236952418,7.25077980158899,6.75829181728265,2.98642174554049,8.6506093321371,12.538317419555,8.5004043778738,16.2732244574856,15.6733845061586,8.53020468677022,13.4820196898955,5.80183080296799
2.45256079287168,-7.86689407656874,-6.36123078697834,-2.8721669320261,-6.28672490836831,-6.95928444189423,-9.11491608014587,-7.90945958808843,-11.2188002248485,-3.44448676273741,-4.66562824110693,4.40922319280342,-3.15910283457407,-5.23037982962178,-9.50686857646128,-5.56292385204081,-3.50975979367016,-1.25441417727495,-11.9113018484701,-12.1759271936304,-10.2426071594628,-5.87915916256431,-3.15150756960468,-12.1584947604857,-12.3521189758756,-9.89202404375102,-5.51121243039996,-5.97382296661144,-1.91861336941283,-4.441467773399,-7.74654654444001,-8.22200680557926,3.24352619431361,-10.5871089409447,-11.5833117127541,-2.54114600259789,-10.9074010571947,-5.06608777518572,0.619663836144111,-15.8128171289026,-7.65365534172278,-13.4797130022988,-21.615510952241,-19.4390493639593,-0.105366407234669,-4.51539577170236,-10.9308057207463,3.05925813260765,-7.22810493286769,-11.6107042428496,-8.58404941344414,-5.3805598234723,-6.79554368866048,-5.0385538149184,-3.3679324140633,-14.1249104680481,-9.9555257174098,-4.63789527278311,-9.26360505949678,0.21791150316289,-2.31006029073114,-6.32144076927442,5.04963981151412,-8.82613428748996
5.94441388285166,-4.53890535147078,1.60053024038686,0.757270727241715,1.90711263745294,0.98381745790421,-4.60936340663316,0.803472658222851,-1.05573049666733,1.83159842142183,3.35257110076751,10.0506365600762,-2.50603038529202,-0.48948838441204,-4.94843193059334,0.955355300604191,-2.96819702483134,-5.80966976030506,-11.5539964723398,-4.66713732927592,-4.21393288561505,3.40040232892148,1.99952841194204,-5.47709547403828,-6.36879130234027,-7.69696415578817,1.08291720282486,-0.581316879503248,1.06189652563025,0.0426835621518551,-1.19085969957205,-5.2627523986737,5.02558026985696,-3.91190744119078,-4.87563785425155,0.194307762805652,-1.84669032497362,2.57406848113355,1.49515460510679,-13.8715222438542,5.08231171469003,-4.37191262803731,-5.20662054267205,-5.22705709411868,9.26898627020286,2.8055947302428,-1.31382982518142,7.19450375972285,2.9874954363707,-2.80912997967599,2.52504867831573,-0.63633382650749,-6.29714138572751,2.15672149134971,4.40010806889154,-7.08857297118489,-6.42365992657093,-3.56960584270417,-6.92415523148985,2.39223300009272,-2.95877777652226,1.24301126961104,11.5886618816702,-3.99462928567682
23.514189511372,10.5583840940858,13.7611759121437,17.8545036683291,18.5610678156858,18.6009412955947,11.9972849222204,18.2460032462142,20.9514198457344,21.4007566473573,22.4430629298106,25.0622573596624,10.4242068857506,15.955438932496,11.2339331896714,19.810246521329,16.3517931081004,5.04123276031671,5.26376646713556,13.8813125714729,16.3085645983049,18.1402175160226,14.9221137911066,12.7948651123291,8.90454680249653,8.34644464949763,17.2244971477324,11.8729172629339,14.5578802688439,15.5803163825047,14.8898727575789,10.1600787458354,17.6393437520059,15.711439865405,11.3694636928041,13.1899879559623,14.6914628613761,15.4834544864535,13.0319419857934,6.61753327276449,10.7018182595806,6.88204177716114,6.70749779763105,6.17104796453579,15.017367614458,8.11545484236657,9.16813069870819,8.5205875760968,19.4444763957709,13.2457700957976,20.570644417719,13.7109571015966,5.14937030879363,17.8530238436419,20.2027706775573,12.2500047808243,16.5033182832996,13.507447462324,9.91588714945929,17.1682993822866,8.68258809636326,17.7352914810312,29.3213912684799,14.9027588747121
14.7604107091639,1.31261462281921,-3.86036689390394,8.9341273002412,2.17274376262646,6.72631537106516,-1.25733726761078,3.51543540719871,6.7770786706977,10.8809994929516,11.6097775445972,13.6836704867737,-0.192718856204199,3.71238250391079,-3.84786743156849,7.23713340411705,11.7468851086797,-5.22764758558024,-3.55560010332858,3.95904447921494,2.75114725173636,-0.426620724116831,0.763161452774281,2.15181500234931,0.052996027968399,-4.71467752436003,3.07195243906239,-1.97319349839001,3.53338947515547,1.95019462796724,-1.63455286851734,-3.11010901203501,5.97669823652671,6.2867991424243,0.0568531931494252,-1.15436185969537,-3.15386391518481,-2.84967164786323,2.5551185980798,-2.59054983185911,-7.15357059144333,-7.25115220699323,-12.4843573969512,-11.3209487426313,-2.63322435037935,-12.7928355070381,-8.87843055178782,-8.93930986717083,2.85476154488116,-3.92969331022832,7.49758682582552,-3.04411402838928,-6.15221936178307,2.95541675913824,5.015809224735,0.520246740384202,15.5973969426038,4.31348389504438,-0.316314775532196,5.0638781128768,-5.95201886607344,0.788147751129843,20.3115134197345,7.6512838100441
-4.67244143006531,-17.3745943309361,-22.4357894242657,-10.9770397408845,-23.1705591434273,-10.9464755296784,-23.1938411937793,-18.7597899336383,-14.9488221666665,-13.5226130529015,-10.8291354357694,-2.72579580160236,-18.0163003521656,-14.2968078370916,-27.0468008984713,-8.92425257908521,-6.14000000963977,-25.6133792137329,-14.8732472892569,-13.0118921874699,-21.8856690894475,-23.4833048320452,-18.0909568816851,-16.3748865428172,-14.7833691953676,-28.6185125822474,-17.6899829373688,-20.0123720732885,-11.4506722781352,-16.8580214703923,-24.5812462125577,-23.4002022805469,-11.0613334246817,-11.1390387539645,-15.336117010058,-20.6539852513226,-28.3562491887452,-21.4940228015515,-14.7595017374769,-25.0310175905308,-12.3784020567824,-18.2066998031734,-21.2582835160887,-21.9509842634985,-9.90112995988724,-25.9727344844898,-23.1392007482905,-15.4570447038971,-18.414888767127,-25.956586242726,-11.0485484858615,-25.099738128738,-21.0204141918933,-18.8870450386034,-17.930296867668,-19.3815519422295,1.6508984195559,-16.3312679572038,-17.9233052019896,-12.8924206504471,-24.800515221275,-22.2837725351041,0.549624457020942,-10.4412517486901
4.05079848268827,-12.1615097695828,-6.92371872198705,-5.45332869855611,-15.005160388016,2.55178616470888,-13.6888166763637,-8.97621081131578,-2.06223152270412,-6.37005676679147,-6.96675162534301,6.67266819084229,-9.67022673750551,-2.36621563189118,-17.9588591888693,11.0717477299848,-0.564890543757768,-19.1508850861609,5.75614196649822,-3.75657425985483,-12.4697763726311,-12.5844160172709,-6.67515654874472,-4.91510937402158,-8.46495068398101,-20.0321840940359,-5.2833197326122,-9.25746896874304,0.987732627536769,-6.13196331932758,-12.2012706934569,-13.3555743249794,-1.31063766545904,1.31892789522795,-2.41925973908384,-7.24904024368691,-19.4419576317455,-6.21039227092936,-9.05935521283718,-16.369983090836,3.61018870510314,-3.96366511162052,-0.693706193697834,-6.3747027774381,9.8000969243117,-9.92367407849564,-6.37831268416064,1.81015905407106,-6.38786336733991,-10.3797530099951,0.784545015216894,-13.3185515156945,-8.22422183958254,-8.06573442091412,-7.39618059204496,-8.55161801185551,8.12755900705267,-8.76134260941177,-6.43669423804624,0.454770939172725,-11.4449819074987,-11.8542861699912,6.59006390984965,-2.86183976093246
18.784475848254,-2.61682305833122,8.63737361491544,6.21646058382788,3.83087675674488,18.56490071965,2.99860014640095,6.23406264711362,12.8183875777673,12.7967253071052,3.64652060998445,16.7983407474507,3.43126042620029,12.2939286667686,-2.09360894272282,31.9463970816453,9.01407219158037,1.13949540956502,26.1009205726888,7.18396860346803,5.68699931451085,2.71936421414716,8.63760573960607,9.62109211843459,-3.8959617306623,-0.0550040827360496,13.5565531812563,5.10734730521422,12.543092031809,6.98298395668112,7.00584246927182,3.15204072412002,11.091852003245,15.4052073670637,11.3398698988319,10.7349931049688,-2.48167342593451,7.37495581053994,-0.990832737085453,2.44920104888294,9.40284680222525,5.41441794355154,8.97267005043757,1.84350372815542,19.5146995733504,3.6446528266555,10.2400252515484,11.1203072090508,11.1400892757789,10.2431363879291,13.6767017670773,3.50085153673923,8.58832120296676,8.81002769963309,11.4730950024846,8.22295699267509,16.295661972919,6.21282931990245,6.16335785203259,19.7674619083338,4.77946870221287,1.6129438111427,19.5829810356675,9.30219354668661
13.6762257435724,-8.85619066644624,-1.08008554750813,1.74185279588084,3.48156963738531,9.21199361529949,0.525428212496067,0.812647024417805,0.647143922711742,11.1004510986218,-1.42941083113399,10.8426075447602,-1.24945268992409,6.09352168422208,-5.08047682465662,20.7869269530837,-0.386242114520484,9.18679263927819,20.2819377000321,0.474850964331383,2.4720224242042,-3.11128817651054,2.17277156384612,1.96826461372178,-13.9660983371793,-1.2163104724636,9.02139500491108,1.27126527395129,2.11923242360001,2.59383268970544,3.9358880707541,0.874739515964433,4.86346065032528,4.83370336360513,6.41074263004741,4.2086653929194,-3.82865238962624,-4.68190033561163,-7.39812746352644,0.0511010510402325,6.66955009256715,-1.42542026503069,0.591510520408843,-2.13206214546039,9.51826181119962,4.06805362471649,10.1742025954013,4.6459472681123,7.44598470355987,1.98375135359372,3.538391718411,0.271404212206438,7.19625748670395,3.56337834829267,8.10062136788535,6.59628988539472,7.62223431539105,1.79248863895315,-4.81891038442311,19.7526218139486,-2.05911990077638,-6.78149395935018,16.816971627811,2.10315085048208
17.8290012893376,-4.80475797793936,-0.611170531207427,6.21174835462367,6.47955866068903,7.04218306333412,5.36166402872714,3.80417353804712,-2.40722629210415,11.4601661064973,2.61931195812871,17.0169394062584,2.05544392840044,8.76003999447957,-0.281025671577044,14.7269059898517,-0.204416146532151,17.6920563089862,20.60332379181,4.88039852166886,4.09004952858327,-0.017117311121993,2.04273654692267,3.86082808284459,-8.39221484161754,-2.3811484443174,8.89890027616378,6.13996300760134,2.54152045400113,8.89646558652221,6.90065552652916,2.59083326143344,6.35458313244149,3.79735141188839,11.7306571667118,3.34705131881636,3.10827915901691,-5.58232617765491,-2.04376094391278,-0.405797140475381,17.7088551582354,3.70598863724528,7.55543569874332,10.5756924577263,11.062845857965,14.1023859630203,17.9718873321826,7.45827812297838,8.60794963443606,-2.48799194019319,4.65071103925094,6.07028576682612,11.0210017913952,5.52847259254871,8.32612370573901,11.7047212802505,10.647910745138,4.97515052284366,-4.24558532930801,26.1871179787305,-1.20374376811474,-4.16274942740848,21.1678334774769,2.13298245909806
36.2119537132307,12.5628345247822,16.2738271384547,21.6106367917778,19.5890516607256,23.4787315097681,20.813408927883,20.5874664406044,16.5507633356354,24.0990762928557,20.354059388116,35.8163395277039,17.4334091456833,25.6291906057092,14.7004981958025,35.6392454536784,15.7804189766397,31.0329270546477,38.8575571916372,21.7835459973841,18.4961534059541,14.4030372500797,16.4687512527249,22.3899009166523,9.62419805283941,7.70649162651613,24.0198902107474,21.208148452186,19.7409362262918,26.3281603858117,23.0000917450511,12.4660835913232,18.8816650273405,21.7402096400544,26.3334789774919,17.4724705107111,20.8979546517247,12.6488161800402,13.2997073764759,11.0797267071185,22.0449351438574,14.8036019861649,18.1399319930173,22.1796371827919,16.7107235055905,20.2603894328983,26.3336147057549,14.3798300363284,19.3473133614376,11.4744949030412,24.1798500325842,21.6572180214262,21.8404500175159,21.9712547912127,19.4959374412114,24.755437495371,26.8510512491753,21.8595151888643,16.420744947409,41.0451137184678,12.3376746507123,15.1362884314637,32.8499573564198,15.0856662726545
29.8684282712919,9.99179884122515,10.6333892636851,12.2942846859428,11.8414610028721,19.9073730932673,11.7983358749617,14.9042044661811,16.8764496738971,16.8958037704348,16.864520404324,31.7071828105877,10.7832134571262,20.7495117366292,7.81451529447589,43.1573364225047,11.1291906700195,26.2309013757418,42.0674234991139,15.3951272152652,13.4452162055999,1.60118628235055,11.1993230494928,18.8105949538382,2.28438443028593,1.70992943844544,20.1905494670544,12.1975651832811,14.5656161331863,19.3629583572164,15.8002431717109,2.32555323961757,11.0270804437276,18.9739535908622,15.1561936725318,12.1905525300801,12.7912452239888,11.5268144987241,4.45907580609542,5.97269955925477,-1.11074618096846,2.31556096295194,0.709660701633944,1.87766285584207,-2.38780746884801,-1.466507861862,8.64942054536168,3.2279623969127,7.83497357475116,7.87215590120994,21.0942252930634,7.7111729796993,10.8986879921736,16.3847276613923,8.92843467373999,12.0170744263184,18.59052110644,15.5913820063476,14.4089526496582,31.7787670307878,3.02164630689915,11.7800318624176,18.4203132258592,7.51396261845745
7.72679175475928,-4.45320533957088,-7.86915483110286,-10.2528907938837,-6.26644678809757,-0.947754477048607,-8.98082699796029,-5.29879139645498,-4.67867467025546,-3.47540532358062,-4.30684395970655,10.3688515350077,-9.1549261089013,0.430259735845996,-7.06593880833077,18.5539390073376,-7.37247761147176,12.4088382089977,24.0375779169234,-2.90947462177151,-4.52751776317348,-22.3283256535306,-7.68432792648614,-1.02918008976861,-15.4197534799467,-14.6991919162467,2.08919812019692,-7.79616653179261,-6.28243248190874,-2.90724185837619,-5.89026749044209,-14.7779840769101,-6.53292883494849,0.595369763828304,-5.72599791701052,-3.28367852987132,-8.62985806667499,-3.80060654368711,-14.5970994033067,-8.35363972820651,-17.5147438023103,-13.0027983965329,-18.5565953613123,-18.1708156787653,-22.8253364487579,-18.9995628183601,-9.66655372602228,-8.52191181605385,-11.8864173556252,-8.90221568109087,0.35727239692339,-19.5258550284394,-3.94042363266712,-1.36812843694701,-11.1880323972078,-11.8734281294559,-2.99648724484556,-4.83975420444639,-6.01735957814656,14.0617995692127,-17.2870808098898,-9.35707682528272,-6.4463693228964,-10.8854885404201
4.07185241957628,-4.09875798819025,-6.96231607111492,-11.4881633127881,-4.61294172678432,-4.81382973722985,-6.90498948189018,-7.83280435643405,-15.9570339223818,-6.35810980161847,-11.2587604579683,2.84296690265532,-10.9334853861376,-3.79943154719756,-4.76641198526574,-6.67070719607464,-10.4031006547222,13.5442328683655,7.03274794279549,-3.26392798517448,-7.76360429595353,-18.5626790644421,-8.62277790873693,-2.74671496805367,-10.5590136282267,-14.1464158094711,1.27200696933462,-7.15410899700104,-8.12523218925356,-6.82864014521458,-4.70495911382315,-11.1226594470947,-6.70088600856551,-1.8920815159654,-3.06839582972928,1.438832939246,-6.14575687943005,-3.93381337151757,-13.3042418350268,-6.47284666292519,-5.91760430094105,-2.39087604829923,-8.29927989666572,-8.29046408598814,-16.6616158207261,-6.02059280097318,-1.26900286157451,-0.317842657861867,-8.5805816710558,-7.0707534352816,-3.44271018452252,-17.5499891387645,5.32426947941045,1.19659889039346,-9.58524515339278,-11.5939503755693,-4.95959424441765,-5.5733104930259,-7.53772382037506,16.9498080769999,-15.1315808415862,-14.6295394464065,-6.25806947871525,-8.16368334298015
12.086110569415,3.39224368599549,2.12659911385122,-0.285646060234715,6.73975732807851,6.22150646183056,7.81065471359437,2.87773621996475,-10.7177247286843,2.44392610916841,-2.33730650694532,11.4249444211471,-1.30832265309736,4.55737493920595,-0.21978463330772,-5.09599587596464,-4.8202064941494,22.5300199441922,6.25618012105397,3.41842488785281,-1.2706353620883,-3.84505451524803,1.55309284586126,9.73553188467939,3.15835432193761,-0.608936800540061,10.7590193331486,3.33496568763447,1.65010886471627,5.55557114627804,11.0832325618058,0.501639336680056,1.85385583453933,5.54495706678588,10.10189843829,12.3735636582511,10.1692180884683,4.37453797647017,-2.33552208065854,2.81735074421474,10.2816595745226,17.4769499671706,14.351630554015,10.3861655238724,-0.0960065340378606,12.8876206543169,13.962971704116,16.0852014175031,3.84390720212701,4.31265356622851,5.54987699434286,-0.299469039002179,17.8871490386462,10.7353145824458,1.72613979945238,2.96433765204249,3.33907527790163,5.71326399746103,5.28693338919243,24.3012765165698,-0.164496334722432,-5.33733025925411,7.54060200108301,6.53683741900791
24.8762823651263,15.6845189708362,12.6581786532762,13.1584047201036,21.396657604088,23.470680216239,23.2925096881636,20.9126504177179,9.61157443557119,17.6118042890204,16.5296580497044,33.1079595588122,11.8731747760112,18.9262553668081,8.7786610506591,25.49633382602,8.64633322603946,37.5314991166847,32.3232668679429,14.2984872098622,12.9053185866986,7.14223974356187,14.1077553864509,26.9780839829899,15.0929095785732,19.048992934606,21.5063831957318,17.2056489033227,13.8290982301159,24.7168127121126,25.4274131151148,13.5117188417623,16.972961009012,21.2961057617985,24.9477782965889,19.5832765033388,26.0314621757482,16.4638902074282,12.5805700604309,15.7825541826576,25.0000807433234,32.4616120973901,31.7307088538887,25.9859342038351,17.555057250902,26.917742100682,27.2712202356378,35.0371862030082,16.7427030497116,18.1967937734391,20.8659516170305,13.3231986146888,25.3524314270067,19.1568855869135,16.2784261169164,19.3489302058047,16.4009376821752,22.3108971349831,22.4185167743562,31.8286370657692,17.8658333403571,13.3499230984007,22.4773173779593,21.9978141675127
46.3763826473748,39.2082798429563,34.8325783879664,35.3395179612947,45.3302978277882,46.9148492172535,44.0255141503931,45.8838457145544,40.5894450240128,42.3765584743818,40.8755049495184,64.8428699274784,34.0907121727327,41.2665078803231,37.3012418509961,68.3329207039538,34.4175229894138,64.4301657337505,75.9215740853442,37.0474276084739,38.2557493647075,28.343275549491,34.4909412032558,50.7065231490044,30.9134455946203,41.9870419986796,41.8548011693584,40.5192295231402,33.8102781399956,46.0943871886657,42.608074080258,37.2074498976711,40.5745135612196,48.9453965812147,48.581759248498,35.2425024582924,45.7131955920615,37.547498830402,35.5984574073812,38.2857519388366,43.5341008217183,46.4797339797435,42.8554612480248,39.8742820879799,38.4919351459856,43.5055040058868,47.8415204031052,55.567121923302,37.6991196443238,44.3919955376393,46.3703484358628,32.8094809532377,44.113333471944,40.4600009896978,40.6559197212806,40.637528702785,40.2649311662545,48.3202981369594,45.7961542647004,52.0609537418858,42.4078405964482,40.6569999974742,44.202830264909,41.07779831033
57.4305337859977,53.7122853099022,50.5451918073761,51.8143001152991,59.3021420299676,59.0181917158134,56.258329691841,56.7696082843151,55.7888269373427,55.2901032426526,49.331332049946,83.5803955370197,49.7528426097988,55.8706077478649,60.0526183292789,95.7675292444686,46.1719658502531,82.2369300566593,102.727771036461,48.3633012979648,53.5930037630049,46.0865431495897,46.3190014886219,67.2475138414792,36.7935127003311,50.5860668546052,58.8132874564873,51.9645198858237,45.2612128670055,52.1797547148353,52.0291370804487,53.6083671813336,46.8042230091723,61.3607056987577,62.2778545411589,47.9606594905997,56.4590766103319,50.6882510068277,44.3716213832054,50.932705221755,52.214441443818,53.6302705669638,45.9606087556872,42.027034686011,47.8849335981802,52.0616998475845,61.6832384151754,62.5755773823129,48.4727296928572,63.7348005301413,61.1598055982727,48.8080732154962,59.9253520804242,59.1946320064627,53.1541315091346,53.5241364966271,52.8729662081266,62.6105506144261,56.4062992560817,64.1125466690385,55.1872682550504,54.5920085782948,56.7141989133922,50.090388970988
49.5430223150231,48.6960008620129,47.0557614067958,50.7162412577015,54.0939479758562,53.6489069112729,53.4914802104371,49.7339210173182,48.1534357330431,48.3500644301923,41.1538657026811,81.067426507959,48.0997656641511,56.0677421464156,60.1809631792232,96.2283759322064,37.0656344004659,79.6096706656881,98.9886920900803,39.8972615991945,50.9342109061332,42.3160797895036,40.7086488072646,69.683827395998,31.0736803118234,46.1087153065118,58.4327228547695,42.2436453517556,41.4002710116503,43.9209586362827,47.358777007001,48.853481547858,34.1929840620071,50.564613328738,56.1321727009212,46.8882192586037,52.3475758350687,48.1529211174289,35.0831336725202,45.9844188403182,50.609212941832,53.4600810961946,46.9658452055547,38.1170417351744,45.2040642347841,51.1151967308819,58.4161030449443,57.3984039568729,42.0777390333179,60.7988543542501,54.2613871748651,50.2299730134765,57.1474493897489,58.3108622600073,45.9731029373897,52.5489448828207,45.4525778512238,56.3717289687734,47.597732770239,55.5034605522439,49.897501280558,51.5429340095752,49.5111254233227,45.5014648061239
42.0438798724209,42.4028531472458,43.3111865987477,45.8999721794707,46.4247355035463,48.2571289415999,49.313157655993,45.3712337231783,39.7176648668392,44.3832755240453,40.1576706122854,74.731271178,44.2515696323591,53.1028500832897,58.9501128218897,83.3711772710148,34.402414974688,74.784602397949,82.3649547139313,36.0569944238721,48.3637195710634,33.0884129351227,38.1673203273,67.7019717237092,31.8246850816137,46.2422187342207,50.7242556005881,34.4442038599487,38.5838470117751,40.4023307031181,43.8314818952601,41.690941373914,32.3337933277393,42.9657949990204,48.3542555005738,44.5843643706949,48.4459191598711,43.4217725180144,36.3877422011559,41.9692208609564,49.9391575665804,53.4036802854528,46.751066812013,39.8342035945087,44.1468810035548,51.8774585057138,49.9961999478741,52.8882582939703,40.3868521136556,51.814515609225,46.1866852466296,46.5728023736431,50.0760414580477,50.9519972063162,42.1393539908104,49.8286651814252,41.0164926136834,49.2822279165656,38.6270810627542,49.2088088969775,45.7700420021132,50.6407317386786,41.6326828832101,42.0753828428318
38.3856187579516,36.2947852742021,38.5295557652927,41.0521490856246,35.7240782360242,42.9337284525666,39.5514379950016,40.4509061143831,31.4573602998982,45.3581321127215,41.5469142723044,66.9489275210811,39.8449812033643,43.6651318521654,54.807303203611,66.2552363407046,35.7391497157786,70.8377891033973,60.562464281448,34.4869422624824,43.9788115554294,27.4415431365269,39.8436142007535,57.7569635057642,29.773342086952,41.6243165269008,38.8023322278215,30.6166195810764,33.8159367949948,35.8611026759398,40.50168714898,40.9479938409208,35.3354812009468,39.7365866993713,40.1933739645894,38.2642944519828,41.1629193059796,35.1887726471049,42.1593106490096,34.2814724650859,39.5407084025316,43.8137190881922,30.1706409700208,32.3627673385344,35.5143563259095,45.1966209539968,38.1052905892423,40.4516716179444,39.4735619052999,40.8830039514119,40.9232243635447,34.5944736648837,42.141705948618,40.6612139171802,38.8563661308811,41.3254886447179,38.3540418852967,43.1034841363604,29.0752236345452,46.8515005261836,40.6754722262877,45.5738032194461,37.627831126504,34.825165767988
24.202867018411,17.566258602712,14.0996015893809,23.7318147566947,13.5750173042554,23.9515701810987,15.1725356886344,19.9447471169989,12.5499795321267,32.7596543419835,25.5687664888882,50.509393001255,22.812631284372,22.4822089673552,28.5045598303113,42.1169667428897,16.8740777678781,55.8334242541487,30.4460516550965,14.3940040608973,23.306156614153,11.8652525404372,25.2685915651094,34.0282594222285,6.34842373262805,19.5320890240641,16.1254057313979,13.8500822376618,15.238161480782,18.2505740451299,23.713277914624,33.4806926469748,19.4020106708222,24.0405097776312,22.4046223554145,16.2661368603977,18.4440125322254,17.1719516000786,21.1238723316946,9.32034160259961,10.939920133834,16.5807322921768,-0.803903086614328,5.74790652919329,10.2657284036776,20.3456620227255,15.4976868980826,15.522259191547,18.0486454902802,20.0709888763815,23.4829087050637,8.31922692540481,21.7842618396637,18.7238576060831,17.9159948304036,19.1731054147172,18.596980400557,25.7556221231015,8.13593019495914,28.4812316202592,21.0014634122545,24.9769496398956,23.1284644021206,13.6560016431506
3.31619991218489,-2.32674115418901,-13.1400028552735,1.1398679929272,-3.63711702251433,1.64230084481581,-5.04748183876461,-1.95105665632882,-2.86720187509364,12.0827987733714,3.94009056879995,35.7268336676658,4.5533124526139,5.28785277056206,-0.0741410392203314,20.5252867090087,-10.8893981175043,36.623918127984,5.15415297410956,-8.47846958392671,-0.711505819557769,-9.84314536970381,3.33959805897704,12.8169535887468,-19.8058788260759,-0.597395207052628,-6.65001172977561,-6.35173606424212,-4.70103035607302,1.2893115144159,2.41124758749703,18.8483660130854,-2.38057084582281,9.14839680968447,7.2044281186487,-4.72938710931694,-3.64380708845443,1.92463769756729,-11.5403875233733,-11.323138869605,-13.6868884095497,-8.01124054841767,-19.8110382976473,-15.0343320570469,-12.0660657455197,-5.50548735163228,-6.08658873842949,-1.13339031036809,-9.67311140324209,4.73251476313947,1.85019105260723,-13.2819923518563,-1.3049692808711,-1.99576118811725,-5.49170433800386,-0.995729012975795,-2.7062733555081,8.67609856958827,-9.69534874057171,4.55315407074355,0.72046970436626,6.75435931578995,4.84255816626218,-5.55799044561155
-0.973849031792462,1.6590424665331,-9.24148684160817,0.588995095518091,4.89511778919204,2.16417013797046,1.80939402117827,0.955540108277696,3.9311290657842,7.94152696674749,2.14636581923767,36.2500452926392,7.45132713267416,7.221369421906,2.80276251254668,21.4698753469131,-13.6388782745755,31.4341422543853,4.19401404391685,-1.82273625558481,-1.46141414703681,-11.9469413356205,4.98708476779036,14.1192131869805,-15.9357249857482,2.79597098894658,-7.38708959717369,-4.84098802688296,-3.32821142358636,3.41645232486356,0.577330634166374,16.1117151580809,-1.16736865408224,19.0001071497661,11.7741789608845,0.936236826370125,-0.0106314891335928,4.03489739248602,-12.0209282679136,-3.47514102611193,-11.558802699825,-6.61195476794919,-14.4454637873935,-9.26723348261194,-11.9765363326579,-9.68820104558928,-6.58327738726473,2.59500187260322,-10.451569487146,15.9090892286231,0.692579555864775,-11.5014541322075,-2.44229275755114,-0.0114887156039658,-3.75408526855176,0.575751909662096,4.53816248568556,14.2046913943965,-4.40132408542458,2.87453352979382,3.38985252223244,11.7723536064848,4.12453668723897,-1.95476016702345
8.22984065467579,18.1141597691381,10.1032798586353,15.5551608414233,19.5090131724607,15.924677135673,18.6576190791469,14.9430084924358,16.3177129691807,16.2765823408901,9.75571613490366,38.1854687858871,16.1371287467956,11.0675339727858,18.4928956252446,31.7937453263991,3.35584512496903,35.0835782600934,14.4412054558134,17.0110814535882,10.7634829197974,1.88937072212251,19.5180931991968,24.5173584011981,4.2444612496449,11.8026099845281,7.20664627082286,8.62482761977661,9.10505962262975,12.7361385174454,12.0405468450362,22.0704682998116,13.1960828411684,32.6656047198143,22.6705326835237,18.0504022943806,14.7658913044505,10.1628106424896,7.59561651549682,9.42217478892861,1.31263479858461,6.47056064477686,-4.67649023546098,0.929472633344597,-4.78142633090229,-0.464653648304555,3.5841808930441,6.86644260974558,7.17395814022312,32.029566065909,11.0765701180779,-3.83431206685686,9.57963224441748,11.4613241102355,10.403267953325,9.12216956796081,22.2760594949749,27.7220373319882,7.48993668838114,13.3793053889134,15.0332388265243,23.2658323489682,11.1435002173047,9.06516822294392
-2.19186188632323,8.6097371282478,1.73418104912186,6.22502922145026,3.8119352915305,7.01222216570015,9.61574908849264,3.09380940607159,3.68422941981785,7.73169197668001,-1.63695848541067,18.5211452326645,-1.92707709309128,-7.99127845319997,4.87800653810166,13.5886222983153,2.93794715551198,24.4531189411364,0.887451158713842,4.49773621963466,1.07384613199428,-1.4917488297881,7.93183152509248,12.7243155714867,-1.33959309376621,-2.08824421918113,4.51871549710439,1.0942358901703,-0.560286610064074,2.85005263467941,5.01862112023639,8.9870775573013,6.31825536302755,12.3628104439023,11.0475878949714,9.60945070560214,3.24477799534992,-3.71668135275939,-1.18973256183573,-4.35321228876942,-3.30223497787072,1.4461309303034,-7.66434643826352,-7.20734321390842,-13.2058421207656,-0.0589196095439118,-2.80865986131372,-6.22803583625021,3.51266133268654,14.913302076196,-0.283605258133797,-16.6663516145733,-0.560159692961347,1.7683245436025,3.47340652099265,-4.73639312071917,9.26761605043289,15.1327846687653,-5.06210157909377,5.35919546407606,1.74748135980441,9.86488393487392,-2.79674403623849,-3.73892387223926
-25.4270724889863,-16.5494127447801,-19.449429254274,-20.135059283384,-19.9970918428769,-13.4776993484722,-12.9710118867552,-20.5855220017021,-18.4682005959175,-11.2057029214225,-17.5123690606878,-4.55012676243284,-25.5169573222681,-29.0113242752837,-19.7528135559726,-20.2608586793376,-10.6269510949565,6.55460934499297,-28.3472997895474,-20.6195273780289,-19.7082876792415,-16.1781405127672,-14.1513879318157,-8.6102952345102,-21.017610284273,-19.0302479486164,-10.6682218019609,-16.7292175609463,-20.8144255028888,-13.0266304963949,-12.3359846471954,-12.239120430038,-13.8810060993336,-17.4566875457462,-10.8395433584723,-12.0952754988288,-22.3743244220935,-21.253809819498,-23.9351202560108,-21.4033953843178,-14.1658800688194,-12.7098084697704,-8.39530962469685,-11.4479713871437,-21.5348328701331,-3.94085939126706,-15.3563831004454,-17.1787465086569,-17.4463302726779,-13.8338579572781,-21.495251280512,-30.8090312900932,-23.8762595774871,-13.2737522133643,-12.5054277330945,-24.4218730937102,-17.7817143196632,-7.13771221293052,-25.7591832823072,-10.7837317552701,-23.0262991816185,-10.0160510961764,-24.1418266372471,-22.5529005959327
-29.8435764006512,-20.1469816189437,-15.7168141769419,-26.085881811864,-14.7067689235447,-13.5917926543353,-17.0111229455029,-21.4278553022981,-19.9409800732611,-14.8994785535512,-17.4645145933149,-7.76593118060712,-20.5676235936282,-28.533746715221,-16.9746580350317,-32.8379474908912,-10.4421958325388,0.419190925157664,-43.607948006465,-15.9532535874078,-21.1644454724179,-16.9858148826404,-11.0615949434766,-10.4991462565618,-16.9371280320695,-12.1397395971568,-11.8083293577047,-16.0794475879256,-20.7290154151147,-7.60383333971655,-11.8705954904221,-12.8094574545145,-19.1613215949631,-16.3006217894045,-13.3976159307721,-14.323683344249,-25.4178737731584,-17.68238755602,-20.8600318610597,-15.1586643624167,-14.5543849540161,-16.0353001858679,-1.40557844592165,0.51241250734594,-18.1876447544198,-5.54049931003077,-13.7490874261346,-12.2486215944186,-23.3283414261973,-14.1636978749587,-21.7612436018547,-22.028088166962,-27.0163854442747,-6.17083034215575,-9.09778070622449,-22.317513824576,-22.3262077850682,-7.13809249399754,-24.5096055439503,-15.0393754882137,-26.0656391788104,-6.54806271044402,-26.2593756086359,-17.2852309960062
-33.0692980660041,-18.170364477526,-9.64715626413156,-24.7821149389563,-9.90781348371526,-13.2758729543083,-17.8765193166519,-17.7587312669669,-20.3168639918084,-18.4537422515502,-27.422035523874,-15.8471787151989,-14.9830541137587,-34.7873026595851,-11.3517484607537,-44.9124457114561,-11.4058000902987,-11.108065683553,-60.423747434353,-6.53845148496434,-22.6602646570418,-21.8567690923694,-7.50447743288117,-15.6587663863425,-5.95191662658585,-7.45577361335843,-14.50465845475,-15.8169742262814,-20.6085571985466,-2.013379703728,-11.4539821979476,-13.088798734626,-23.1733090487018,-10.1377034289174,-11.4499894040139,-13.5151957772924,-21.5100030249153,-16.3387927975785,-15.9460249343189,-14.9079965283236,-24.6292803070372,-23.7143026494502,-10.5751683703373,-3.99613140763379,-29.5156625878363,-22.1068311727648,-18.3518297814416,-19.1546869733911,-24.0303746719948,-8.70511397274283,-22.0553835005855,-18.4478802830843,-24.6071975901994,-5.56488572065211,-6.15647774151718,-22.5717467084837,-23.4637931185204,-8.08363259745211,-22.5238055279957,-26.3098161058463,-23.5261462614387,-8.13961559764881,-29.4604777641613,-15.2677721411885
-62.1222254108124,-41.7268899589488,-35.6280613731647,-46.6251547127078,-38.1225202012098,-41.1815982234912,-39.5463717114734,-38.2287278296477,-46.0619191918085,-43.7394042579048,-61.3799208609353,-49.4277278223426,-41.7418234411155,-65.4072330164077,-37.9350989321215,-89.1505874631253,-34.3192723141506,-42.5574148885074,-99.3680006192987,-30.6397109234961,-49.6859932199417,-48.6260120478023,-35.138923340831,-52.2788571558027,-20.2047835412066,-31.0477482478982,-40.7882329766292,-42.2337905055603,-47.8685747524311,-28.514957068682,-35.642136897732,-38.2757817565328,-46.2970311886287,-33.2013237086602,-32.5003622160458,-35.3543978414187,-43.6604931712385,-42.3686509067168,-40.236350599081,-43.2774382562963,-53.2497081450397,-49.3216279468689,-37.8070562230091,-35.0022467308194,-59.3802991009455,-55.2418165798588,-47.2794310266202,-51.7182106053339,-45.8848688948531,-33.2142191973338,-50.6549668144856,-47.7182832689533,-46.3461128813065,-40.5579594330978,-31.6327044925067,-50.3888973132073,-47.287382951853,-38.1125649309074,-47.7633076840568,-55.4678449600663,-45.6702598222327,-42.7536183635779,-56.5151205036749,-45.402138376735
-92.5895846395908,-73.201671108506,-72.3849905302485,-77.476942283229,-71.9575094700585,-75.9441487467988,-65.9846608521945,-66.4094919584003,-76.7205556564996,-70.7904403011141,-87.8929639539056,-83.3400635966709,-75.3717470721489,-91.3564226028294,-73.6024709229482,-139.869978007619,-60.9774583623798,-70.068331585883,-134.170448596586,-64.7915982361546,-80.7343693496589,-72.8442426880058,-70.6728738356874,-92.9632877666215,-44.4089096067523,-61.9960661413188,-69.2454520947648,-75.0922162222699,-79.6712597637652,-68.0636747617727,-64.5580355739322,-65.1038558562976,-70.1173261518229,-64.6696816599533,-62.7830250482531,-63.3385846363287,-77.7076400674446,-73.2745663285096,-69.4798150794231,-71.4546062498728,-72.2984175022964,-72.4070955334019,-55.4411940190495,-56.8169851582848,-76.9420104921514,-78.6962245631601,-78.9768398054921,-80.4646080027689,-75.8166106749094,-70.538024518439,-84.9882956431922,-84.9926138646123,-77.1932705408174,-80.1440349455916,-67.4664698419318,-83.1836978228604,-74.7907848877933,-75.3467696950022,-80.085373063698,-78.8537388881749,-78.8243204701378,-80.9715226478315,-86.6968378170795,-80.7572183577166
-88.9088490831583,-76.8677203838994,-78.3603274812294,-83.7241341691408,-75.7329192672059,-80.1277557273228,-70.2631893788309,-71.4417490112152,-77.9442138258186,-69.7476680415494,-82.1776433989502,-88.3177784250394,-77.1925080633229,-91.0222327627735,-78.35540439361,-151.145990943152,-62.7610558909046,-71.1965754301605,-134.08532893089,-70.3667488713106,-84.5706403614631,-68.7412415847139,-76.5980281463609,-96.1567627469392,-46.5700129337545,-69.6897294700671,-70.4244974717642,-79.0158257996116,-80.9761584879629,-77.0105519119249,-67.880018579366,-63.4686927320198,-68.0374890809356,-71.6227667585645,-67.2459239669101,-68.2911103031801,-84.0721578973653,-74.6765633376237,-71.3846610987056,-69.6698440001166,-63.6229809038518,-68.6575791495199,-47.9624964358576,-45.9631936075705,-68.9077489591228,-73.8839235505127,-84.2419462819294,-77.9295472117412,-79.5115917410272,-80.9434836234264,-89.1688385287115,-88.9206744701138,-80.1771135805462,-82.3097145347648,-77.1928879559213,-88.9382900835624,-77.3399637574376,-84.8797067269272,-83.28974498272,-78.073357622706,-86.9435922259203,-85.2843160656885,-89.7480648006181,-83.5183443061352
-58.3614246377098,-50.1056694069338,-48.5432937548282,-59.5071800566206,-51.2649114165213,-52.1044613383764,-49.9435492812354,-50.02474388621,-48.9364847849924,-43.8714693081014,-54.0012956927431,-67.0142946013858,-51.8965216190069,-71.982621842446,-52.7076194818563,-119.543877359475,-39.1028933468522,-53.2379369090926,-107.934058582854,-49.6021972518914,-61.4538745167851,-41.6159852601654,-50.506761240449,-64.9126869094998,-25.9910508046419,-50.4817944214959,-48.4597411418681,-52.6837060701346,-54.152745838496,-51.0178186233615,-46.238286430679,-39.6759496234047,-43.428355522719,-52.2171410741844,-42.216739580807,-47.6782322891878,-53.8733725770936,-47.7914300215433,-48.7120435825143,-44.600390034511,-39.8858726617437,-43.3853547393539,-24.6306903456391,-18.460532833588,-47.3817400423375,-47.6221083098923,-58.9550840544924,-50.8030857510602,-49.6230900374906,-57.0665523844288,-63.1140431526493,-55.8377734558345,-51.3152278485857,-51.5569351581855,-53.478976718798,-62.8598787427859,-53.9946615762091,-62.7893602279215,-55.1458248256348,-58.4007453744598,-62.9025331427463,-56.1379287001806,-65.2439205394678,-54.386352100633
-38.8373765810716,-26.6038024897258,-19.9029149505801,-33.6448972922937,-28.6362355469429,-26.792337991397,-28.4813292737245,-29.2412710826976,-23.5592910182392,-22.7461670753658,-31.2414651667039,-47.0314337910942,-35.2299400100421,-52.8010479066889,-31.6612998610256,-84.2617319982361,-19.8189446644118,-39.7232684102269,-85.9875065600004,-30.5549862324382,-38.1250602454465,-19.8826406782093,-24.6846934389219,-39.6302322807335,-9.17404404563325,-27.6848255819489,-31.1635733033523,-29.2449332590982,-31.7485410489977,-29.8191176562707,-28.2652529893871,-22.7065890907552,-25.0968676531091,-30.7638502908733,-22.9830010332998,-26.4760368762097,-23.5739181064338,-27.4911035284223,-28.4885248150446,-22.850943068188,-26.0459062690994,-26.2909555596669,-11.4637893838669,-7.66053973588387,-32.9780163395908,-27.3935856426687,-30.9273448394415,-29.9026434699537,-18.9146233889145,-29.8876215138158,-36.7419257719297,-25.4827270220293,-26.1205279827608,-26.5754096936005,-24.2674670410549,-28.9745146864833,-31.0739089158398,-38.0022436642941,-29.4357843851462,-39.9187614468392,-36.3456378809316,-25.2324272315172,-44.2424604642865,-28.1463842895213
-51.8226114456284,-34.4959725026067,-28.3022243217403,-36.4892481271857,-33.5018156960313,-33.9941463007646,-30.7572090121362,-36.0742687541813,-32.372851398845,-29.0090545577162,-36.3061680970946,-51.2749857639636,-44.1890768574726,-51.5284686128047,-39.7806315485627,-80.4142586599768,-29.540466615018,-46.1254261597531,-84.6848149114044,-34.2213779275253,-39.8860606797011,-27.9705527065322,-29.5894557334307,-47.427643211782,-16.6186076367605,-28.0597822096411,-38.9151859761435,-35.6385093520414,-37.3318351685653,-42.3843493980109,-37.8750519490639,-29.6455369589205,-35.5698538529625,-32.9196592766106,-35.4438190596663,-29.1913345373477,-29.9663723169233,-39.4678906399904,-33.3203162345461,-24.2214824040949,-39.4772938111767,-35.908957178809,-28.0299868098144,-26.7762956672435,-42.5148372423557,-35.1175396656296,-31.3473289371513,-35.9422956787809,-21.917521867716,-28.2854226102004,-35.4110829800831,-30.3946399593447,-30.5670215849407,-32.6630145458565,-20.2317116614285,-18.2306246388893,-34.5731203311581,-39.4124451161441,-33.2060468504918,-42.5894689547802,-35.016208566083,-25.0684988489139,-54.0617253792707,-31.6841065342304
-74.8217623735923,-54.9171854316487,-56.6310238368822,-55.8478428883176,-52.6942129514846,-57.7643008786238,-47.7304093970225,-58.2011201935743,-59.3979467268351,-50.5240365088451,-57.5136923262613,-66.9204286363045,-55.26912279361,-62.1138741138289,-57.0695853158125,-95.111804817075,-50.2138324112074,-59.4165367129332,-90.7535361554964,-52.0376211740432,-58.070876933284,-50.3728968722203,-53.0598656868681,-67.3141030534687,-35.390086997655,-46.9772585975287,-57.5459773116603,-54.9180846723819,-55.4534242884624,-65.6580278821412,-59.6289533205708,-45.5162120558501,-58.7361930882272,-50.8888125172449,-58.2332567479218,-46.2502375111824,-56.6679804710539,-62.8545507814192,-50.3101868608648,-40.6179279050059,-61.7942151596732,-53.3993059763136,-51.907776100623,-47.4636196990279,-62.0222076767408,-50.6341538228206,-47.2590161466304,-50.2601597038524,-43.584756740419,-41.5007956807074,-49.0901159798339,-49.9637340757541,-44.9116676465733,-50.6898418347849,-35.1872104960145,-27.874996453897,-53.2541311267094,-55.1991083773742,-50.3883909291399,-58.6986410764641,-48.1388412610615,-46.8697703741381,-76.8230630385087,-47.178462625701
-72.9962983055387,-51.7034534794908,-58.2695133640473,-54.3011208128328,-53.5305890929631,-59.1446685124007,-48.0823231131233,-59.8577928360498,-61.9043352554059,-55.0477556911725,-59.3928746015202,-64.8703065115808,-42.7991071046869,-59.1652134780125,-49.345709773618,-89.8157052126076,-47.1993183315861,-56.0577111568347,-81.9100155819324,-55.5048513322203,-60.6955675839594,-48.7436779363523,-57.3407550135289,-64.0456689272829,-36.8592469740095,-53.41923063886,-54.7328771292648,-51.5018685716346,-54.2422501882717,-60.1159669387399,-60.842317858522,-44.6973169074183,-57.3883804105951,-53.2954506750791,-56.5981521515934,-47.2711949915022,-59.3827427588726,-60.5761830144992,-47.6040648365814,-44.2250745105603,-54.9939264582867,-48.2896153002971,-45.0629107375017,-40.2803501206698,-57.9141528420394,-39.4117313328908,-41.5743773732706,-42.2585268363628,-41.773671367426,-38.193211852744,-47.3700507370306,-44.0175999978674,-39.2741420999078,-45.6400308255993,-37.9745442430357,-28.3491859631322,-54.3278354736175,-51.984387022726,-47.9769766155415,-58.3617145218521,-44.4985574543053,-48.6693925788744,-73.937400049748,-43.1224117042684
-49.9391579798314,-29.7349967757647,-31.9445916630972,-30.4374060754555,-35.2991766766691,-37.2394553061147,-28.298677358737,-37.3853886239246,-36.8494427238539,-36.8323101285859,-37.908556138467,-47.2268240385234,-18.6346345874733,-41.3687222411253,-22.9520496441667,-62.1173379327483,-25.6552104372941,-37.5767281529278,-58.5732942660137,-37.6828783709614,-41.6908845702759,-23.1865657771765,-35.9610102597086,-43.0675462542092,-22.6131558712183,-36.2713257011488,-30.9606149655714,-27.3442781347816,-35.6632669282002,-31.2497570797315,-42.9100643418623,-27.5178448844808,-30.4900652559624,-37.3019343271668,-35.382819641516,-30.1223219975378,-35.5619304598227,-36.7254373371318,-27.6365519766324,-27.7203436363082,-23.5715555184453,-23.4265390608661,-16.4885135532342,-18.5039418876784,-31.281773079334,-11.9985834780062,-15.8802302447822,-18.4027126886596,-16.0918341475604,-16.2267054064272,-29.8401584013755,-15.9870912463101,-21.7945564928028,-21.5720241529664,-23.0530400104577,-15.4958264440563,-37.1107472822109,-30.9843036806778,-26.7009398271528,-37.8772597225197,-23.2237230445824,-22.4854046856106,-47.266466994916,-26.4292938564939
-31.3287676790876,-15.3418194595173,-12.3343450795467,-11.5722542978069,-18.4815861136017,-21.3556564947715,-9.11558579903274,-16.5135381466571,-14.2676935635183,-16.8981811437328,-19.0154467343445,-33.7480985854493,-4.50590259985212,-24.7757159090352,-5.89612017641085,-38.650213150524,-11.6202988885819,-20.3110820904537,-36.5364731719949,-16.4011122182257,-20.9958494256512,-3.87110042978114,-13.9493233110029,-27.914955358612,-11.0635156249665,-13.1410345924785,-11.2292976826391,-7.93911350326682,-22.0730571593051,-10.3094874302298,-26.4649712914504,-10.7916171271662,-7.63971446441734,-22.9064629323938,-18.5468384924116,-13.9549446050865,-14.5300787427147,-17.5948576496138,-13.471853589087,-9.00699064139709,-3.89876886069722,-5.21547097313776,-0.964517486618131,-6.14764296640558,-11.8974136191344,0.977917780369773,-0.386969608521319,-5.53013595337961,4.65750553202631,2.29136919078225,-18.2815208674007,4.01851260093384,-13.0312097109076,-6.93716382746648,-7.60134851635798,-5.97954416830227,-22.1472728860079,-16.1111795019142,-7.88078321550588,-19.851686309894,-7.99536698304012,-0.247431908358558,-26.4608951251772,-17.1015834979153
-23.9135181684341,-8.59140408915412,-6.53619123183921,-4.28332709202998,-7.45001092023727,-18.1531088276428,1.29881035602478,-7.8659452239068,-2.12613037302871,-5.8801915953005,-8.1099511502046,-25.1738393516383,2.67228769681684,-10.9196656790974,-1.81763618675526,-25.7892192372753,-4.31336286329555,-8.33929893365711,-22.4253923044639,-3.07711130411121,-8.32343424537066,2.94218427978428,-4.11787724715533,-17.8981456009614,1.05764561490555,1.6867729719643,-1.64837240737767,2.86919755680892,-13.5097017800888,-2.19884088098455,-14.7752389477065,-0.795257792547374,1.91901336280845,-14.0105104778793,-8.36484641610777,-1.81969429311034,-2.8145995459519,-6.78932437059072,-5.17186917647834,1.75049623675449,-5.24384687461802,-3.14420394115055,-2.51701465901236,-3.35997976298375,-7.80259110235781,-0.478860643505043,-4.60192600558207,-8.37217519063331,13.7997839710547,9.24517250957505,-12.5027595113233,10.6557186772878,-8.18418686825026,-3.86565879705429,1.30287299151905,0.406007715375124,-10.3489748097182,-10.6717503874805,4.35031392830931,-10.660353984984,-2.38654279459198,5.7228796489387,-18.5261802125493,-8.8756122523612
-22.4203620869155,0.0859601881962022,-1.65260470650834,1.03077481878356,-0.941323829741648,-16.3666582072515,3.52896754162556,-4.29850619115555,4.51221990855642,-2.82297953285251,2.15166611276034,-18.0917894284158,7.74799093114869,-1.45852174997934,-1.50841763346966,-15.3315279960092,2.79048600401393,-0.967059778778293,-15.2109672202981,0.776653212783562,-4.02233110239905,6.1510048683769,-1.05601028766816,-9.91948597424136,14.6255270771306,6.5114072548066,1.35704216559741,12.0407054169697,-4.03711322463976,2.1697473151869,-7.67374427266715,2.11297313325627,5.10395825844382,-8.72186309432987,-3.35907611813119,4.7732996480549,6.21140464548628,-0.0811879173315705,2.81615598369417,4.0025441806226,-13.2374265673799,-7.04225858170637,-6.80357679786611,-2.41422956846204,-7.09499707255035,-2.38448461295845,-15.3653712947078,-14.0034590837371,13.3778813972232,8.17551250492123,-4.78720268236437,12.1085387384438,-1.99245788936551,-0.234136135581965,2.11216571399964,8.55542673513421,-1.86455844763317,-8.81736113917641,10.6361033156186,-7.0638727195328,1.96375394070447,6.51540912178706,-15.5620132513152,3.14931665200883
-26.383479239183,2.00263296659314,-1.4418421504287,2.17579124623097,-5.59336865230227,-19.7549180171929,-6.65471873445203,-6.27694048602203,-1.75880599068028,-10.9254116419175,2.82787150046331,-21.4521172406849,1.27378106538498,-6.57576341651587,-7.07093405234394,-12.4767675235874,-2.04805884960398,-6.99034268580619,-16.3841833077905,-5.28859942393678,-10.6598571248572,-0.238184591697992,-3.57248205078356,-13.9187013995142,10.0571212367191,-0.125545504267761,-7.16254042992587,12.3182108387141,-3.94146022993875,-2.22587423954577,-14.0014537730345,-4.55189258439577,1.63780221996299,-13.0694445794998,-13.2191691111196,-5.35443299712496,4.87287997412285,-3.78738452975245,1.3679460256788,-5.87619112047857,-19.9430899973028,-10.1665060645086,-10.8843967177445,-2.3602624682553,-6.64748885922365,-3.72068338164908,-22.0172026974983,-15.2557847335298,-1.59913540620606,-0.615077858510485,-5.57460545828188,4.62237559277826,-8.30867452568158,-1.99367620804052,-7.41008294285877,7.07642811384501,-10.6414958822432,-14.8217169578162,3.93858592190862,-16.5970259024435,-1.75913102941183,1.20194607281201,-20.5797796295189,2.03759938563352
-29.6886496557221,-2.97725788784054,-4.51665608012455,-1.26678245064499,-12.5080874605556,-27.5324972518013,-18.3162150188733,-12.8822415173516,-13.549746064977,-19.910767317652,-2.95494478895702,-29.0967244412932,-7.85095708619284,-15.7017558345929,-13.9660196462405,-17.5044966337388,-14.2860446090584,-22.0333551394862,-17.4273205487705,-9.70247014617859,-16.7184928238804,-11.2313985356215,-6.86896351806914,-20.8112536510903,-5.97842798506951,-9.5485988846647,-17.8675480702785,3.480327777951,-9.65772334228217,-12.9216324952918,-25.4797748656464,-9.44957573150618,-0.120371708488929,-19.0321101657696,-26.3335719031692,-19.5439004996856,-3.53881962511364,-10.965363260373,-5.53907780020784,-14.8271965869917,-18.8850852076381,-8.66086547848789,-10.055725351638,-0.806638106365257,-4.65724047933718,-3.43706072622101,-19.5695642255407,-9.48460641741534,-14.8523825858518,-6.39107514872715,-13.1859132461705,-5.6137214264129,-21.2239862183206,-8.54250905243152,-13.815995137577,-5.24891875840135,-24.967373363316,-21.6389289824545,-4.85938626835526,-28.9681943981275,-10.3870992997546,-7.44812608690119,-27.9596462911708,-9.45490802900442
-23.4089341558598,2.53438073885527,2.39123661885668,0.74140183869728,-4.64198495593089,-22.1749001538379,-11.4002326010727,-11.9259547784851,-10.6202532213809,-11.3556741909608,3.48801099141887,-23.445115731447,0.433968910397111,-8.4095184002409,-9.31522943987244,-16.6142566232791,-12.3234762913763,-24.0741182277159,-6.49699239624609,-0.575310370046521,-7.79074523272544,-5.55976028623388,0.0381667381273338,-11.6709058950064,-2.57518245569328,-4.45029264674865,-10.9954138753795,2.57175437482916,-3.22400025775351,-12.7605576982387,-22.1803400572843,1.75381086842155,10.1204261197871,-13.4128718254926,-18.9866129011733,-15.4173635621101,-0.236899502982876,-4.17830466822546,-0.667636284101472,-3.7364698000533,-5.30735420917196,1.42089055296798,1.39662574733697,3.57349922110027,4.95624620539621,3.0349719698089,-8.27005643793857,2.74709122612662,-5.14881296721202,2.58362243361471,-8.31863257780787,-0.247035050247905,-14.4305012103168,-3.81283532104509,-3.4575869765806,-8.9716742917541,-18.1478898963465,-13.6835849596568,1.99468979631605,-21.3816903787553,-4.56100480801642,-4.15587901019071,-20.4921530629492,-4.36691589819695
-16.0627970676961,12.3410429358168,7.49873393388967,5.09164294311251,5.32174481737071,-8.43086850590347,2.36634259586586,-5.64438210796904,-0.567594386751952,2.4881642109858,13.2741959786124,-13.9559553713094,11.8749709342385,4.38484010890438,-2.20272805210222,-10.627189014453,-2.21467883514013,-15.4463146273887,3.60273256131606,5.78945659781584,2.21017586092768,7.88591297624299,6.68439064552674,-0.273374915017564,11.7991481627069,8.32001469771301,2.71040387659134,8.76705023311408,5.42591603574988,-4.26500835881976,-12.5198374317512,12.1697807806716,17.1116867720023,-7.85764327845596,-4.20807201358612,-7.91664915666768,9.07709319955558,8.13040908070226,8.72761515953143,10.3799887327955,9.83916615914057,10.0262192258329,9.64327874268405,3.38391503327766,14.557155421142,8.11337260051469,-1.08314362140741,8.84674077998329,9.26876041191938,10.5817913006282,2.66530525103495,14.4862165532062,2.53319131242386,5.22819835467726,7.14648594180167,-2.6853091153068,-2.16209420392872,-0.923395957453592,11.1196545642734,-7.89796944138287,9.83508242915872,4.28675146187255,-6.07797022178786,11.6766517602333
-15.334226503118,8.68772175038512,-0.0528674635644109,7.33645334381242,2.69814089874402,-2.50489560467759,3.22598757832482,-3.19881218909928,3.7772084513576,5.49260448252621,13.6029670624443,-11.9043918885588,8.84556895020061,5.59753320873825,-1.8718286755351,-3.95964967332999,1.11668672591636,-12.8278498424305,5.14957784751999,-2.28933475931803,2.9146917245897,8.1254784214064,1.78575238877,-3.04011903200869,10.0594301526833,12.0577032232055,2.39684655989614,9.92399100302422,0.841187470146408,0.464712040171302,-12.4333969698855,6.51750386230728,10.6408100334897,-10.0066629854649,-2.5491133033303,-14.5470982401518,8.68877708056901,10.0575790539423,8.51801895638252,7.29812766609249,16.65349815614,8.35095253546072,6.33132566961417,1.72587165318585,17.394739049837,8.34413709508161,-1.94463897887239,3.75123997883978,7.53884937875844,6.04591200230239,3.32710296245177,19.4648448772702,4.00109675643652,5.20394243984397,5.21218538166449,1.2404354768389,3.23212595334516,3.19629011607923,9.43845041684035,-9.59789027686104,15.3494477339318,5.98039438837858,-1.0876502872296,13.8848630522275
-14.5946666154369,1.04146255453328,-1.84596329862757,13.1089429706615,0.220302933189019,0.506428561082538,0.724792099159089,-0.149470838909359,11.4664476226954,8.88097999988694,16.3469979148742,-5.76345282686916,6.94788607352182,3.96144724948581,3.7204016771084,12.0634538016926,3.83825998755588,-13.2491281026433,16.8742702614311,-4.84060982539329,8.27529746565332,3.86159229183615,-1.88294944621264,-5.08572414711181,-0.934362661440493,10.8684312890445,-3.16254152724675,9.90934498790872,-4.22680019740894,3.17783585234026,-14.2765300267583,2.01673704641773,4.92858785272702,-6.56877462614991,-4.48133840579177,-20.0444492648496,5.33729909194049,7.94826967629988,5.38200908481862,1.15516374634542,16.4533136825145,4.1353058423971,3.81545752883873,8.697280775849,21.254072917356,11.2804932832658,0.980759336802961,0.0770843219276502,1.84662922462605,3.61780174540342,1.13262346181473,13.3810564029593,-3.71564519314966,3.08065931706101,4.07710819449677,5.66513991366453,6.15532688535515,5.73684843370071,10.9737262963378,-12.4642645764674,14.8494619175569,9.58865284038978,0.853292380831436,6.8933426398429
-8.86041104823579,8.83912480644409,12.1625124510224,21.6335226204525,9.07827555358167,9.97944568463539,8.29458544700848,8.23594802106254,24.7540595511648,19.2816857492257,25.8042491695948,7.8012835854134,19.9654491405261,12.1287338907644,19.7827997584542,37.2506143786606,13.063613249859,-8.13155339694997,41.7059857293958,11.371384265101,22.6111627406367,10.7089407159294,6.30899512466582,5.90412472382866,0.0932265419438325,15.0483052685887,4.2165405884366,16.1573966658358,4.31202291143048,8.27619056560104,-7.13289809788805,10.8801963814734,9.10642201411339,6.49589946382461,0.463459235021781,-9.97472652675064,10.5733566995464,13.2134740310652,9.69962843833824,8.35018040665666,12.9557796244518,5.21993212215245,9.57360842726299,19.0821445688747,29.235164509527,18.9685144423403,11.0383885187392,6.98577773718796,6.71107282486779,10.5250990478257,8.93925576122175,9.3261620169656,-1.18553973123532,7.71027158976891,11.3224665448739,16.4132687065705,14.3376901246992,10.9816884232757,22.9685238322341,-1.71901890862383,17.8437542502004,18.9023558360527,10.7504455672828,8.57057060521412
-2.18370692846714,23.0985398761441,23.4095194259415,24.9326265413921,17.7669875321903,18.7796638611022,15.7120172460926,12.3900912133454,26.2496200335774,22.3351359142421,27.2306501898323,11.4770915789917,32.5026596272018,22.2280560064809,32.4084845046123,48.6427674954469,20.7357250674791,-3.45081553539034,51.3358098194717,26.5721382801073,30.0852314043859,20.2525408016323,16.7867480866982,14.5867549296337,12.0780265416951,19.3444702628535,17.4524995791568,21.4122879461518,17.962980511727,12.9686398686651,2.87531644003001,19.0861169584272,14.8852780258645,15.6042045262477,4.40828844584606,4.82273376945896,17.0694519030705,20.3670505338908,17.4750728721552,20.4812116691039,9.75335098711046,5.29982997255394,13.1618723647377,19.639486333656,30.0459941301365,24.55165975636,16.3871778429159,14.9416707773678,15.6023813098814,12.4728458713939,19.6851895272911,12.9558612863276,10.4613652558783,15.7074800798546,16.404710817359,22.3922031586162,19.9729646629551,10.5961815713852,28.676829919784,8.27969240931662,20.0939345866292,18.6765703623164,19.4742040307367,13.9524400081606
-12.6903444652917,8.3028155092123,5.39558523473578,7.67327155383996,0.3394360647448,3.9108717081346,-1.22253120360396,-9.58089131891988,1.02217669196433,-0.24438058689004,5.68226325026791,-14.8345866108114,16.3494850255504,9.04432020715757,18.9303840195783,18.5993175406216,7.82524240011847,-19.1166864174923,20.5395353251596,10.3708082280573,10.3870338813029,6.39500605806352,5.70167463614426,-3.02778507548476,7.83058022471358,4.08287495875303,5.84073915482236,5.42603542360784,10.1028991435197,2.03073948454353,-5.4512575367192,3.78558144288819,2.42283051339663,0.341329005975432,-10.3556693692802,-4.66769969815229,2.4231038549777,6.69696170005633,7.12011990532229,11.0351130680988,1.12466029566641,-9.59441649872264,-2.35595216959227,1.80561741670139,8.69935201741832,10.7348971376519,-0.543372690520396,2.40589747720053,3.80689761333142,-10.4087092282479,7.27324102371024,2.7927203408366,4.11852106047607,5.83113946646927,-0.982065335971495,0.239560648680174,5.12558792694235,-9.91341042300552,6.58536487529547,-7.39243996798157,0.711133733562243,-8.83616945419803,1.25898628896149,-1.8244743968847
-33.7411192095321,-26.1298398463518,-24.3247201917114,-20.5139037718347,-30.4879583950356,-23.9922453303494,-28.8557144842156,-42.7590598783143,-24.8426325426171,-30.2150132619557,-19.6703226289159,-49.2422624025962,-14.2228922279761,-17.2195767237223,-9.64221977017802,-27.4790174764961,-12.9504417173662,-45.9242671171133,-20.603476304525,-18.521226356772,-18.670874427014,-20.3835743221979,-19.1668344419115,-29.4022747556812,-11.324483262713,-19.8544021560346,-23.7308581098829,-17.7420921703501,-15.3691687889136,-17.0314439378564,-23.3608707314427,-22.5910758009727,-19.4494508306212,-25.4035168596072,-32.8592100313344,-33.1591343454817,-22.9747855490264,-19.1377372119454,-14.3298254910216,-14.3239583554666,-10.3876198152188,-25.9948461594099,-21.3183480091118,-15.8310270732704,-17.5193144291704,-15.0344934494065,-26.1706779095092,-19.4082652418512,-22.3167216044421,-40.4524051328071,-19.8981836000568,-22.4132241368088,-19.0640054407706,-18.8145894794657,-29.0212644306271,-34.6814258360772,-19.8432702203378,-37.0639673371537,-21.9805365828801,-31.6528267672775,-29.5832050438819,-42.2195674025924,-29.800126816295,-27.4802875263432
-28.3413869985524,-28.3755325647166,-20.7752337850438,-22.656764207498,-29.3761411834169,-22.3649274563838,-26.580419599859,-40.4225742918361,-16.1179953480993,-28.8752728780678,-17.0581792183837,-46.9392508480301,-16.0466046547527,-16.6288526567844,-14.0256347540486,-33.6629101716696,-6.04570081592761,-47.5055647388707,-19.8949619979486,-12.3968156523354,-15.1625092590123,-18.6299742949027,-18.9465452428282,-23.7644071772134,-8.78273576440039,-17.3549694221714,-25.3843570579078,-9.2462348436868,-17.9799798596254,-11.9573532623868,-16.2769348929733,-22.9410224561464,-15.9618312684427,-21.6668459687296,-28.2977825404407,-37.256456192393,-22.1512940011515,-19.3900011688795,-9.72818439532258,-16.5621227970868,-10.9251808448739,-20.0056488905631,-13.7637148696349,-9.48217854199973,-16.1410285643661,-18.1141882649242,-26.2346018330957,-16.3779113168646,-22.2387225506936,-38.0650271271233,-20.3803681335469,-26.151223150004,-21.3363954550629,-21.9487281085555,-27.0301206428879,-36.6651200864448,-19.0842929844871,-36.2452996931421,-15.8174715491887,-27.090490668523,-31.4640883817718,-43.0999711785931,-26.8242927961369,-25.15312094156
-5.60213869146071,-7.19056096699524,-0.0718685537659236,-6.15722101859507,-8.14920898038355,-2.78646056128499,-7.67787710862257,-14.787638311575,0.282848123753839,-11.2555731032933,-6.25711897202393,-24.5607937731139,-2.273944240321,-1.50904611028379,-2.78636785752808,-13.5395847607882,11.6535869755718,-32.254549127821,2.76034554110994,12.4321262361859,4.57772801306149,1.8354257865491,-2.78133925229871,-3.23342852677506,8.02804322326841,-2.31646965207694,-4.22542602761976,12.4657485317935,-0.754954996133462,4.98974597364224,1.32018071694013,-7.51302429597887,1.02496453938184,-1.12037973355802,-7.09411615643907,-20.5218691828358,-6.13236268029222,-4.32552037720855,8.00089086025983,-0.567979993241163,-9.68879701707336,-8.834580380048,1.70791745525503,-0.738805798392196,-2.6719284556714,-6.52621611434114,-12.8937862552923,-2.6581147732494,-6.08645361199209,-19.5964835421737,-4.69208583863915,-11.4258353630381,-8.16124387725998,-9.74396317944147,-5.83928330104645,-17.5613292672319,-2.2286763386263,-19.7823879729,3.62431885014813,-13.7979107537459,-17.7460217854424,-30.0400874960135,-0.810043622343199,-9.27843678039707
-0.886428843612079,-7.85979940290423,-3.24652222033011,-5.83600513442176,-8.05262393017367,-4.52872322649269,-8.60572364792184,-10.5766007153261,-8.18921203994323,-14.2071911826662,-15.0206222713339,-23.3718379909355,-7.83268141011437,-5.9820005216214,-8.80010635697282,-12.2893798487729,6.6285053919637,-30.2022268270174,1.27618749924036,12.1316638567386,0.532253316478069,3.8616035957272,-5.66044645901887,-7.00746878510779,4.99839889453084,-5.56173974202199,0.504332697674527,9.44800531797955,1.04454889042874,1.8041580981729,-3.16145504516385,-9.2353877295902,-2.31150943838494,-1.68404794712777,-3.63151216812697,-18.0705698665441,-6.89506627153134,-4.94211079289038,2.67607082355776,0.720814091872337,-15.0604328771544,-11.1904865326197,-3.12797943142368,-9.85255837829311,-4.5272004356174,-12.7152366935417,-17.1451371867034,-10.1351676531957,-14.5324184708661,-24.7630147581874,-10.6464839222132,-10.4194484589402,-11.993998383399,-15.4764495138943,-7.19626705061093,-18.9680914614587,-1.52303939911126,-20.5285493167365,-3.88130304962075,-23.0074144241172,-22.2846168821952,-35.9089904529805,4.52076899913945,-13.6470235891582
-2.44302179378692,-21.891995893448,-14.4912661849286,-14.6749969269992,-17.6581285420236,-14.9432399325918,-17.3941854946269,-18.2982480418148,-15.1248993791801,-25.6785549911181,-23.0044466019576,-30.2180007404375,-17.6778011134591,-15.1979023331931,-19.6263360734082,-16.7545036466434,-2.89769051609706,-30.5735037777411,-7.23757820227123,-1.38701399367089,-10.3098742579704,-5.37029663713913,-14.3383719802255,-19.5905278563241,-7.82888605636041,-10.7946374974019,-5.21468447082573,0.250018312300147,-6.56272357260638,-8.12327417358005,-13.5430113735713,-20.8039128313166,-12.832375701107,-10.8527778905729,-12.015321753377,-21.4555039227796,-13.0173730773911,-9.81433270981615,-8.92794827808653,-7.6121646246142,-10.507990298302,-11.2199493034545,-12.5386739839887,-15.7789773207165,-8.1723534592356,-26.5046561096698,-28.6739660794101,-23.7700579783556,-33.5822961091227,-43.6370689482111,-24.9452428225655,-16.7572072813154,-22.7068071316728,-30.4733253634204,-23.5208293958733,-31.1602686727152,-7.97049417652578,-27.7014232588814,-19.5407890810335,-32.8686038565165,-29.889894464068,-42.1229045665178,-5.2524285158772,-24.3081009462124
22.4748207647299,-8.72891887316117,3.55476726510194,-0.916376243307118,-0.249973204343334,2.44466079723006,-0.39985868344937,0.124404096497643,10.4856048215171,-8.49567727566449,0.814170256759331,-7.45672197301974,-0.820499933255869,4.14039750662911,-0.271739187397966,14.8325041995411,16.7060650745079,-5.71955428966958,22.2213724482589,9.84536686856636,10.8414293369612,7.79334824747994,5.72270822704754,-1.3877234080454,3.98222099956844,10.1438084490971,12.4999106880726,20.1021968510603,8.58476142989149,6.19096110360243,2.09866638756097,-12.5642604838052,4.68470086865904,8.81415528038324,-1.68958437248952,-1.15123768302261,6.00833922527872,6.38817823404723,11.5864624593852,3.6626824949197,13.2526150556783,7.79284900842846,-1.08332778457443,-1.1882685961387,8.40121859830763,-16.2392815480856,-17.8102910942022,-12.9115121175124,-19.4503363566815,-38.2649529313042,-9.21095713748041,-1.12254611502313,-7.38484353169585,-20.7661921791785,-14.2374738072015,-17.0544048482536,7.30553751576291,-10.9051822544031,-3.51136791307709,-11.7915492352308,-10.6012758550256,-18.2080894458458,7.48892082470713,-6.88878315649701
67.9451069447337,36.3089940737433,47.5733864892255,39.1243906316232,44.0401706371919,46.7015127778766,42.9326531118801,44.4440121681914,55.0502845623182,37.9884850861158,51.4984779351271,45.7077147976597,40.3524794895948,50.3730930065464,47.4932187640681,81.8574301036891,59.6936608531144,41.4938193689282,89.0217731901588,47.6956988221702,58.9911422286153,49.3411517539974,50.1646723460135,47.8173018294964,43.7458070253452,50.2823667676639,54.3037790710524,60.8624781789307,49.6628408661448,44.9151681057492,41.1008265245616,21.0416069114227,47.9100184483203,54.7595851120184,34.5958806381927,39.2897324003221,49.5154012619839,42.6244733164113,59.394671166341,40.2040327608367,45.7950231944932,40.5456973400451,26.6265541036014,23.0834773612018,40.4932969587138,17.6876112902779,19.8827032529571,18.9652966020427,28.0441797412294,1.38724944443432,33.3401480749438,39.2316369805566,33.0618318766068,18.6094444771658,27.0278381282033,27.5250279073123,43.8721017261273,29.404455198422,41.2904149914849,34.2138257230831,31.8486692951642,28.1390998048289,48.6965831974252,40.6836318570529
89.0665471703199,66.6804470680932,74.1360388086422,67.1411089512539,71.8924885395392,72.1636218724261,70.5477746644239,67.6123003767474,78.2236730497311,65.5446324238312,81.0259790277356,83.8137001391384,69.1775915239512,82.6368437980232,75.2070533371681,129.551829070121,80.7160204870915,69.2555152400499,138.403709381606,73.0116476788559,87.4672400141482,77.2090301061392,72.9124917166534,81.4824653681929,69.8279938733348,70.268382198339,78.0827566489382,78.0456037048915,76.8389470559342,72.2884367798764,64.252674212998,43.6860041622806,70.0817760214159,77.6456892075347,63.2157202155373,61.3386935579591,76.0018872700363,65.813551285436,84.5789106073866,66.82744585833,66.7264863427279,60.3480611562245,42.5124730403032,30.6565082011569,59.2491735107657,37.3932916524201,51.5165272382043,38.1652804817367,58.709989823774,36.2386732661009,52.511409263878,66.4575117087344,53.7587143123943,46.3045045764319,54.7715085502009,61.1267241796108,60.8404722731746,54.1540030128764,67.7774262597411,61.0565034379065,60.6899366585383,56.0162169599166,74.2100972558227,74.4750331599475
76.4052267804043,61.5902663500634,69.0905494677286,65.2793275143255,67.9697889023551,61.398356800681,64.7500210086257,55.4127634796721,73.8329397720315,58.9553320265291,70.2249175203508,84.6239352224614,71.4101525449893,84.8930915498202,66.0404011868556,132.375798125189,67.2970106614353,60.0543646237768,143.530894652649,71.8840985647966,79.8126411832258,67.7912506950378,59.9958624828607,79.5785714699785,60.4383625488617,58.6574745542151,70.7536387388551,63.1200029965793,71.9175902540691,71.1561441038833,58.808842450534,37.6175247377918,58.0763846778492,64.7990092688365,64.7072998080103,56.4308476695856,69.6692287557378,62.6730575681315,71.0501536736111,65.936643747743,69.5740373663687,59.9436735255054,41.670600050762,21.3053726564546,58.0329135560861,30.593051969869,59.7167088972477,36.2409558354578,53.9835984939223,43.3996492157902,37.1594997115867,65.2465967314571,42.5073115315509,43.4897232213078,50.3834199027231,64.698145123859,46.4493863072009,52.2458917191365,61.6401478442162,53.5603533933568,64.3110379538835,55.4433828272908,66.0200350378933,72.8164406037637
69.9176021655532,57.1011363610712,63.7594279174298,63.2545845006704,65.4332928757584,51.2997988188612,57.9364427677055,51.2587800314016,71.1812950798621,58.4787414339577,60.5440548886014,76.1378500264298,70.7012990675203,83.9577671788849,57.4679783410855,125.443349979788,58.4691820838427,47.828703287293,135.727935108326,68.6622492545863,66.6277608678639,53.7246321750024,47.8268566794351,73.5944079229733,44.4275418942745,48.2528279245629,64.2605099562748,50.5444271746499,65.109571634349,60.7950829101595,55.5164569758571,34.3288511903556,52.3523791571263,55.7499977059039,57.57623491323,56.2141874785182,62.565942048194,61.3838889426821,56.1286387759741,61.9894957964448,65.3693199022075,61.3170841536275,40.8636250174797,22.2317012360268,60.0299666328631,29.4316492656086,66.8264715226497,39.7260238996943,54.0771159666861,51.6232930162289,34.8046250976692,68.9969215718173,42.77381580245,44.9441661470517,51.1682199884972,70.7479969776069,45.5616820986888,58.0295492706175,61.5079503408377,52.3092811024912,71.8817595249338,59.7153169185776,63.8131762859772,71.1376913591779
73.5590828838283,61.1126040547291,61.6671702859712,66.6388652100038,68.3101296690462,51.2976072488761,56.6746102151222,61.2426403278359,67.7271452662659,66.6943173733708,66.0144463889002,65.9241274348302,67.4460723392188,80.6129288675513,54.2807066986045,118.399663874616,55.7113280246987,44.4415694340397,127.281550670055,59.6627852433178,56.3288652762289,48.4609017934245,41.3774672415986,71.0935503775612,32.7193873174204,44.8272310151779,56.2391031084463,39.8431804117784,60.8725740317676,40.2388797714222,54.4638717571531,38.5490268939678,57.0106865073665,46.1564847346118,41.4205817167135,55.6856457093785,58.2085225892489,63.4771027602817,46.5755225837784,53.5007912595975,53.2215663656507,62.9573836324851,36.4589224418918,29.4072460748829,63.4897159182952,42.2082124152496,76.8838625243342,52.4229554142348,70.2768771575099,66.227290999175,51.5579651582229,81.8279928347735,59.4243913121894,58.1739453561202,62.2740229188977,85.0720043906967,65.4450088243957,69.7337434679429,72.107973030286,67.6669751112766,81.815272231434,69.9774578708416,75.6810200928,81.2392882945082
69.9660145960814,61.8375190292446,56.1559853263717,64.2227840406727,66.8279898628803,49.7166857528414,52.8824437513682,64.6954047204664,56.2749428495837,65.0536518927543,70.8790345646824,52.4181551779734,59.1886990819418,70.2979425755983,45.5058954291716,105.682326217432,37.9717873438669,40.3895610381458,115.668173366578,42.3194523621927,48.2015300289817,43.1460354789198,30.9057645609537,66.0529149202466,19.7052873703811,38.7252018239898,35.4967646154253,24.5908358665381,51.4974992449449,14.4207682365077,46.5017603137508,35.67797227738,53.2227663000251,20.2126793918563,22.4467921921185,43.8862796393731,49.3066698704806,58.2344929282741,32.7502947756266,35.0715500098789,43.3128022411605,61.1889300928414,36.7298843509163,32.2975344266557,65.4022705356876,59.256769369941,85.0466322389039,67.8436685910239,80.9147296531081,73.8599911888271,64.9305411068027,87.6877138547592,69.0064865986118,68.7883177295262,66.4383729983271,90.9701610007147,76.2449709130729,71.740264852756,76.498537903942,80.315429825431,81.407327659776,72.9589443190547,81.5815407099779,88.2382086180617
72.5837103183616,74.2707829356635,65.3671360135462,67.902268589524,75.8956716567952,59.0190863372398,63.069390913388,74.2465508484538,59.2049304857115,68.3811938189096,79.1434433736281,57.4230880266646,65.2033952154484,74.9329926172087,52.0265946792094,109.039952170413,27.436223092923,44.2733850064126,116.25850530472,44.5168690516922,58.8544533904947,47.2947802247741,37.0496186833824,74.8927739021213,19.3068023868947,43.753472352199,29.3809004088281,31.0821456839025,58.4328712472714,17.5315728223588,55.1092073322687,41.9164048988479,55.6705948013806,13.1220169314552,33.6689605632246,49.2746002894643,57.4992970758552,64.8927882774456,36.0624124164509,37.6342541924735,59.7950724116847,71.0051903439067,59.1761671402694,45.1490614172299,81.3150295917441,84.1279396540597,100.966769097569,89.9895607623488,87.81266023356,84.5567835082314,83.0873615652805,97.0149792010983,81.7459370617948,85.5250417960324,78.0316214431139,96.7191917231684,83.1424709807752,83.3561650542468,86.2951715913812,93.4682434373961,88.414627578493,83.1556580870578,90.5090469966039,97.4231967537707
80.4606720857938,86.8307252033363,78.3006856230155,71.2118358011467,82.6152341921265,70.7006037505607,74.5431956025247,84.6617927902846,70.454666360259,73.5954137143464,81.7725168367,71.5553548655471,71.791979608841,82.6192227923675,67.1770244023195,118.299725177202,37.1781980720507,49.9327511030595,118.801233969669,58.920922803969,72.5697889526884,51.6406205620257,53.33025285084,87.6307386993777,29.4775720279749,54.7226010557312,41.1474809081067,51.4764638349398,74.0398314390916,39.430591914319,74.0673541136143,56.1439732584572,63.6224601103533,31.6397638189498,61.0464406065196,68.3546072286627,72.8787518564776,76.5086590196171,53.744831544876,59.7611845817003,83.3709707144389,78.9967001449782,76.9722986535669,59.7579759136646,93.805453986067,99.9821070529587,107.70785290009,99.9393341945207,91.3591497957642,88.8797300814978,97.0709004612789,101.971656292235,94.2416130800698,96.5207602725222,92.5642310435148,98.2462424026894,90.9104186768796,97.2883049873313,95.0575602094796,99.6863584888157,95.0760535294301,92.2084600109017,99.9730163461265,99.1722551594599
74.9244299588146,71.2496515336961,69.6666309974625,57.9321776126453,63.4528880217129,61.6649440716477,60.6926512232013,72.1192282240926,62.4334359242105,60.3195775295115,63.7705681907385,65.4647518160847,56.318623700236,66.8823109207221,61.4743860337864,101.931392145106,43.9050355546618,42.845477243981,102.145480696064,57.5385491253499,63.856741662406,39.2366043943536,52.1530467233363,80.2840984537513,33.583145314631,54.0653751164475,46.4380255902525,53.9361560185225,69.284877376445,41.5981611042302,74.1507913818715,54.6074030608555,53.1816205107745,42.3491723373343,65.9921835379231,68.6535012095345,65.9292948405632,63.9842985725185,55.3414422031052,66.0682378714691,77.44582285958,65.223538223005,65.6096081189802,55.9788709429929,79.2533391174926,86.9712784348123,86.1222000052779,82.8553943283758,79.4032203982076,69.7439195722495,86.0430285504308,83.807076528832,82.9571656573702,79.6927113289065,82.3676362343097,81.0273843772886,80.6716186977977,84.1226731346262,83.1944368370748,85.1304896823562,78.9543218478289,75.5894171301777,89.8933268667376,77.7860212586734
55.5439289947569,39.0064695415714,46.6517540008708,35.2557471431381,32.5236523933429,38.7536162916883,33.9578951548226,45.1016124924335,35.6895561246974,34.1955141946239,35.9501080420846,40.4022541969163,32.9746743321039,42.1847097550825,38.6490473414986,66.6594914895082,31.7371892205207,27.3660090346295,75.4965473972955,43.8165403499393,43.9917301734668,24.1521581216483,37.7581450129589,58.9890482200956,26.9438536781007,44.1243715496387,39.9929261245075,39.7741291692537,48.2442707871272,26.0203943167242,58.729721395413,37.1818566213262,25.1624618394766,38.7817529801254,52.2513465649471,51.8892218737982,44.4282411815332,35.6116659644808,38.0975030797341,51.3150786361373,48.2523830752924,41.0624895971642,44.9163879009931,39.9248281757692,52.3095993156243,56.4108895424489,52.0261512019571,53.7919732437778,51.1488867673183,41.9259759666929,61.1418155144682,53.6098675229514,52.6800145791853,47.0170037901869,47.8676138638712,52.3912125274406,49.1400832373946,51.2299911773507,56.9381801676171,58.1499757877705,50.7220232841099,40.4657967462601,62.1123430687847,47.6246099755374
28.5202829803938,14.1247671127984,22.8142923455943,11.7489238854837,8.37731468787227,16.9930145413046,11.5963126067505,21.9497463050243,5.41168031293735,8.82010059303855,10.4215073303651,9.56581191004124,14.6985708975348,25.5440121083777,15.8757934392575,34.0734642429273,5.12273620505855,7.85175340925288,49.1780791771159,26.2719942729343,25.161985742501,16.6986944012733,20.5861140606629,35.8402347549449,7.66524293812345,27.2416251151047,22.6713051054921,20.098023752254,24.459458410063,11.6655829485272,39.9882489454004,16.3177145583098,-1.93990301307746,29.1259450517575,34.5103865411997,33.6441432853703,24.008950900364,15.8094313064871,19.2281593752689,30.7061024283882,23.0180792685263,21.9231024888793,35.3182997571381,26.6774347062702,32.1675973206756,26.2133781458418,23.4539250593476,24.3034497191798,14.8408813396501,18.4850859057956,36.4260916527093,23.7327359270085,20.5743153585566,17.9546984013505,9.81934436186847,23.1197584614105,12.5040654619879,21.6060604396828,25.8021096540872,28.6324657126332,24.8596564691569,6.23398842833159,30.2665119212664,22.8543461542785
7.36574598194673,3.03552823965717,4.82257976296523,-5.3512766677175,-5.04426922358318,3.64097685513218,-4.60120530507664,7.49438283605043,-14.0567312605838,-8.24859150122954,-7.92344938892398,-16.7554662907729,-1.4782650199992,11.5351889774171,1.1605091420695,10.3625172943095,-14.2339975410138,-10.8502709446469,19.1744689708713,6.87708984828187,5.83114537664308,7.33993221206635,2.31499661009035,14.0919251769769,-13.7057412059571,7.43319540258054,0.442695006434711,-0.175158595942887,3.70174546583613,3.36028315737605,21.395354846745,0.0366602310271386,-15.3383846666676,14.5495255528315,13.3931328689902,16.982444817731,5.76504059893325,7.20575951992099,7.34658342241014,13.1576754621993,11.9889566969658,10.678077817408,34.0327752964901,22.234822522013,19.1050777610587,4.85715338134087,4.55262426097079,-0.603570248219841,-11.4620385722316,-3.00362390007901,14.7428696771741,-2.4164457047347,-5.3193038439301,-1.36422198057837,-13.7400704138186,-1.17584656001515,-8.15427861747878,4.4479065265755,-2.15250680869322,5.99326127331652,5.30945620922548,-17.7205967785722,6.98940926016981,4.66067958256164
4.67288816311502,-0.586452315203624,-4.09208772871686,-10.8238914510146,-9.05433398880966,-0.35623720907225,-12.1292117524471,-0.335868651111896,-17.1005887496045,-15.6002891054416,-16.1808572992238,-30.4771793572066,-15.7900716260428,-4.1299441669612,-4.41068885981291,-12.623810844558,-12.1891425979424,-19.9848024007647,-16.0273276912934,-5.42196102155898,-8.56992826858784,-5.89407065596227,-8.94157321054628,-5.40222231547817,-17.3835695048063,-3.09940342024136,-11.0188201106528,-12.348427688772,-8.35106219116363,-1.9470157217436,8.86481024753056,-9.04969516017155,-18.2595838161557,-1.49683026108993,-4.96552241679413,1.92373156766892,-9.4133757962647,-1.87037850442553,-1.88413202035907,0.0834422037760882,2.58842346877909,-0.690651187535329,26.7689080735726,18.3546809995198,3.0723942394264,-9.41832237778715,-8.00450959188022,-16.3046846793619,-15.8090301493033,-20.3215522874828,-0.340160800211507,-16.6764606620367,-20.0524649938796,-12.6522920172581,-20.6932993018789,-17.3770006942713,-8.05593116204157,-2.07093905524089,-15.5308677895233,-1.79333200950505,-4.75327292719465,-29.545514030207,-1.82719038173511,-6.87684834413717
1.38921933063913,-12.6252157328121,-15.4233008136714,-19.2147441650647,-15.6006337840886,-10.4823306368584,-18.5887817749675,-10.6416012044145,-21.5901620720146,-25.7490642991318,-26.5792811952382,-40.0489032351791,-32.2146645518723,-22.0027569845203,-13.5182474743683,-45.4553542157122,-14.7116694655123,-27.2618928187265,-55.00662873196,-13.5703997792151,-20.0835409829498,-20.9391843967824,-16.058866246011,-28.7649050647448,-14.2536726106049,-10.6106079728271,-16.4150075858057,-21.3029492781751,-20.055289629232,-15.3683618051369,-0.765601272604532,-20.1810975377302,-29.7383026012102,-19.0914683197013,-16.3565008929513,-14.7119924452313,-25.179653475203,-20.4970619622624,-18.3527693361575,-16.7247423248401,-20.0918939460374,-23.9933648261299,5.0693664016008,-1.02701579022845,-22.3462455644998,-26.8807205081916,-24.3355381867693,-30.5749635871216,-19.7790257434045,-34.7254524333372,-15.3382981938073,-26.0411071278333,-28.9359086284374,-27.5083843959907,-30.9197955588648,-32.6783618072121,-14.0425590347315,-11.3330190417416,-23.6255376081498,-9.59866083384807,-14.955022787625,-39.5505215346215,-10.5304496404166,-21.1739074492753
-18.7424922793492,-34.6835270872049,-33.9481041566961,-39.2093695048264,-29.6043668447172,-32.4546060662819,-32.8117036235744,-24.5907338093428,-38.347682514226,-43.9727107903453,-47.9754120377511,-56.8142544696871,-51.1743683146434,-38.9233248941964,-34.6333179524533,-77.5929508265603,-42.016336965787,-41.0416461834395,-87.7962063635073,-28.9402240616427,-36.1595308084778,-37.3928500132418,-28.7713577111915,-53.6064143672616,-26.2115692647502,-27.8521243518757,-29.6407921087325,-38.9302989448689,-39.0181880914787,-39.5996733515977,-13.6843387155018,-36.7899677098713,-54.0190963822075,-35.6275495099971,-27.3168259492054,-31.9185467236095,-40.8568583074816,-42.1710237757508,-39.0361483890581,-37.579792954911,-44.0262171525889,-49.2416994438143,-18.767720914533,-28.6289096171521,-45.0645555085714,-43.5917112644702,-43.2338128316815,-46.4659960105141,-42.1957437494508,-50.2822795207279,-35.9645818954429,-44.9160520822384,-40.235082550287,-49.8719574350225,-52.5780578831698,-48.9353516736228,-40.7802628021562,-30.2185220281681,-41.2372446246188,-30.753788702854,-33.6252597233487,-56.8650353331499,-31.737475630347,-42.1522347589796
-25.9303428255727,-39.4357648636406,-37.1520951958129,-46.8293904200156,-31.8843499482376,-36.9987171948343,-36.8986263563274,-23.4023238947316,-42.0080081461105,-48.8008857430036,-57.0331229993732,-65.7940335085435,-54.0670430304403,-41.1216047271124,-45.0022319117453,-83.9018733773765,-57.6146872953454,-42.5302731960923,-92.5792312241259,-36.6346865008935,-38.7550524446225,-38.1518771438688,-32.4565077238287,-56.1477361892688,-32.9035969893976,-35.2673610036628,-34.8286563958512,-49.1669718999163,-43.1880659178312,-47.9972386720801,-16.466635141608,-38.2971455574135,-62.0305447414008,-33.4338541227751,-31.9046667070961,-31.4587825377488,-37.9213054370379,-45.3454343282419,-40.1704814379882,-39.4226878477796,-44.6517169015279,-51.5481408614439,-24.9689357982592,-33.0439797612524,-48.4798864121472,-41.1282713801874,-44.1961470874481,-48.6261419275381,-55.6865897203757,-52.7803141839238,-43.8909041076968,-56.5358465719934,-40.6709159750693,-56.9342172840189,-57.984009133831,-47.8568862840572,-56.3023593810566,-36.6664040572734,-51.3168622902647,-41.4076401909474,-40.8548244553541,-64.0639247714785,-44.6456865160272,-47.472821019755
-4.08915915139053,-19.4219746610813,-19.4418647444203,-30.9804448817514,-17.8802010473077,-15.1177503773673,-20.7500034611126,-5.64660798126328,-24.2797336443099,-32.4386500139176,-39.9954033373611,-52.6269720696512,-36.9756299320451,-28.1441811449479,-29.4387712484449,-69.7081410538143,-37.3960833757542,-25.5989635408519,-73.630539760762,-22.6730756580161,-18.9375762191516,-17.5171589779737,-18.7383308787925,-35.0819596806302,-16.0289105871346,-19.1661566986985,-21.6087032220528,-36.6626415754522,-23.3025663388534,-27.8522952240323,-3.02930333235361,-19.9459815726861,-41.0194465209805,-14.3523837973117,-22.3526130251985,-11.4133145205059,-17.3218753292331,-30.5982817287424,-16.1194988067892,-18.6352053161766,-27.8274124016385,-37.313046040289,-19.0838676293813,-14.7153335870463,-42.4485028783571,-27.1987352586346,-25.2397462371877,-35.504479712403,-41.6446899098366,-36.2386317682778,-31.5305681402121,-44.1099552090232,-22.8476205140143,-39.01643917655,-35.8225304213683,-28.9181058139575,-41.0064577613065,-19.1108462179874,-39.3177668226289,-27.7834161608249,-25.0511716389459,-48.1705681906221,-32.5049915989806,-30.56206684795
-1.7409089454841,-16.4975880694457,-20.4184695548722,-30.4883791227728,-23.5214428453396,-14.6037634825125,-20.1395516146085,-9.94815041966168,-27.8735343823847,-32.7987884526,-35.4995493222558,-46.1096650437016,-37.1884931719875,-30.851065250902,-25.1078536411843,-76.7462987756556,-31.3320570891349,-29.641889089979,-76.7305859332531,-21.3502919744821,-19.3649439586635,-15.9589409514904,-23.3607386446446,-37.0964405187306,-15.5516977342159,-19.4018880766813,-26.8399908104832,-36.2453342012819,-22.2012902452771,-21.5935503218791,-6.83727060813903,-22.5433515153932,-35.4448661737749,-19.0554126047663,-25.2534564491681,-13.7885486126218,-21.5574170114078,-37.2906130695097,-9.92656517767307,-18.2952382787663,-26.9139447048005,-41.2291218694291,-27.7159956741455,-17.4909058268314,-53.0077522966871,-36.7217990365139,-22.140529778549,-34.3952733769811,-41.0142134770242,-34.8451779969285,-33.5592689497582,-41.3689314393016,-21.5487533761463,-35.589646648409,-29.5953148446477,-33.1533704263761,-32.3774107705922,-15.8490721063709,-37.6250738275956,-29.8629062465768,-23.0378215524657,-40.738223835104,-28.509675329902,-31.078495507022
-36.3617686278518,-42.6463654147979,-47.3255375250487,-56.6888959275635,-54.2261863716517,-45.2082204768771,-46.3315744538138,-40.5137400076263,-56.3993052297127,-60.0107004988031,-57.9528335608318,-61.1260685668277,-61.851188175422,-53.6609114793261,-47.6186263729965,-103.010526548261,-61.4060366773156,-61.140594919961,-104.318001723447,-48.536610142368,-52.2867545280886,-44.7448571757838,-53.266284535813,-68.3492768346076,-44.2577415554111,-49.5789341024063,-57.0970226134031,-64.5703016740549,-50.4908838548044,-47.8406785253987,-35.5163767960174,-53.7190106916591,-64.4614116394026,-48.9613641196474,-49.0879163142118,-46.9084629689125,-56.2537500007711,-66.4224702018994,-37.9214789540871,-46.4340488669387,-43.8560333307166,-58.5530252984473,-45.2651634426931,-45.6320384362555,-69.3846189684767,-61.5265526894465,-42.7311584881406,-48.0170327504312,-65.4338079440628,-55.3334437486516,-53.883551378459,-63.9143414199706,-45.7123331226974,-58.9572130306328,-53.4720631957634,-64.4120589281873,-46.6262133458897,-39.6883895465443,-58.1501918262308,-58.1352317659812,-46.481494813469,-53.3347856908714,-47.791238073761,-54.7444062679703
-43.7673885266442,-45.4659625120322,-46.087179283982,-55.9197440561188,-55.0923819559078,-43.8582320080524,-48.7383393678152,-41.195175696758,-48.171607021635,-59.4178649015187,-56.7140386894067,-56.1358545304069,-57.8851439844002,-51.3721442251098,-45.0025847657826,-91.4534086176105,-63.0762692639294,-64.3645358255674,-96.0984077926946,-53.1874339066312,-56.9952503136623,-46.3712748271429,-52.0711640534118,-65.5692955410564,-42.8011233088747,-52.284070670843,-53.9591074277283,-67.9709293950017,-49.6057426677114,-52.4684883482181,-36.4748559689785,-54.6660212962766,-69.6574023619697,-46.0177415495037,-46.2457156226643,-50.1914520449575,-61.9831419441867,-57.9125607535502,-45.3583924075732,-46.5626961206493,-40.1108998858937,-46.8190052374028,-38.0509118117622,-47.3554905216332,-52.9145797003387,-50.9167762501424,-40.9029285456296,-40.1898365311866,-54.5784584186624,-46.2584263067736,-40.4090943205214,-59.4730026641229,-40.9726745483045,-54.8886174803335,-48.9642827836616,-61.3659152945015,-38.7078600911911,-36.3393641046755,-52.6108309258435,-55.8001129986651,-41.2311062999919,-40.8386772231986,-43.2216123661678,-45.4097293805613
-7.77334392531916,-15.6496917775629,-11.1149905928714,-20.9990002168624,-18.768352847708,-4.15682375720313,-18.7513246076659,-7.23333720740271,-5.5829161845174,-21.5257477218572,-27.0862038881458,-25.8378203968492,-21.3896551929264,-22.1090588047055,-10.0399663199962,-48.5814657812968,-22.1268803237008,-32.7863124739557,-56.6773228487651,-22.7543408867223,-22.6081267960173,-9.41452306028287,-15.1901041317855,-26.0091519067757,-6.42695868605307,-16.0520897243681,-15.7490207336126,-33.3184898930115,-14.0043921893282,-20.3878634931283,-3.41899444024429,-17.2445201154996,-33.9650426392577,-9.94532580340142,-11.3586946125041,-12.4793525647283,-30.2248776211803,-12.1812233280602,-16.7550612649288,-13.1138228816828,-15.1880160794171,-15.4535550245655,-17.8507381324835,-18.6108976429261,-16.0287155361609,-13.5257255559053,-9.43887493489858,-13.7574774100796,-5.36713812319608,-6.26954169500791,-0.252167651765312,-17.5791975696693,-0.627292253518008,-17.9332307762772,-6.68618611712274,-17.0696172855023,-5.13293145718722,0.0419070076443546,-17.7486619279881,-17.5218696857175,-3.34929990843715,-3.01324590268409,-8.66074237433966,-4.36788399261169
5.18604454844991,-10.5303579411061,-2.29212379889651,-11.6049428267977,-7.49909399494575,5.71582687708749,-13.1626022686621,-0.862376174548229,-1.16819612265206,-8.29458749395842,-25.4634302263002,-21.8040413996799,-13.8046398882218,-19.2170217412915,-5.90245931811566,-39.7994698411656,-10.3390507331594,-23.7001475593976,-54.2586503025932,-15.2925898197639,-14.1888510366601,4.18407824163493,-6.91885092051411,-17.9783790023335,-2.67292781374492,-3.55360590668676,-10.8054008748767,-22.3051554751304,-7.58248958301686,-11.0645709497568,3.64469283728747,-5.33526487157018,-20.0833493338837,-5.91015658743797,-3.75472145834675,0.347971906451742,-21.7294207721141,-1.90093049498236,-8.90170139965632,-7.71502305712767,-13.738811696212,-15.4886358999791,-23.5598173567645,-11.2360340297594,-7.36960840067436,-7.53473081621299,-0.176801033955591,-14.1043173809943,6.88380590060023,1.09158729628999,-0.748925952913655,-3.04927201504226,10.6113228023631,-13.7343279924775,2.63108962417395,0.0465413495282893,-2.18059502796887,2.52850311272048,-14.2874959872885,-9.51421803792418,-0.53868857848733,1.48574440063904,-1.97590699503901,-0.346528426803013
-13.7983308596471,-34.4157233827657,-23.2228846229817,-30.1026305028567,-27.6417523162937,-18.4341814991925,-35.4637599358371,-24.9198509084168,-29.9666295831963,-26.7168320562182,-44.7066016127791,-40.9185344331242,-34.8991583923942,-39.2052849818931,-33.2349569641603,-55.678699334131,-33.7108020442112,-41.3280684689236,-78.8133244671353,-36.4197430079871,-36.5517278662288,-14.9777767100816,-27.3483488472741,-37.8422061061277,-25.7732543734567,-22.7936687427465,-35.7287281868072,-41.108888079367,-29.2521944139847,-31.2493630586677,-17.3927204596734,-24.0738126099762,-35.2364644296778,-32.2563376863008,-25.5745391292422,-21.3312748361361,-38.0579713766598,-28.1744051612747,-27.3000692290172,-30.9615144152581,-32.1601881284807,-36.7499407389953,-37.3056728134636,-24.8088442293211,-18.5844786467969,-26.6053336524198,-18.2787068087398,-34.9160821739172,-21.5123069589002,-24.7225931722389,-30.9545366550605,-24.6775942185173,-12.8071650841068,-42.613657914588,-26.6257721744764,-21.7105260663749,-26.8670773605878,-29.1091250244661,-40.4770405239155,-35.8901111134673,-32.6309282491688,-21.9990651057112,-23.5951579302574,-31.288883562147
-5.88339310239857,-31.4317301082938,-19.0517058623166,-22.2880521849978,-23.2711310531743,-15.3236178201494,-29.7043454322689,-20.2013147177018,-22.0982625902892,-21.1159428493956,-29.6542949334386,-29.4489218282072,-26.1788367753183,-28.6502999814553,-28.8003430955223,-37.7912106495021,-25.4927265189813,-35.2646622958,-67.7387592333298,-29.1485088003513,-30.0797901964658,-12.3027151461919,-16.6426601041973,-23.668925931029,-10.3683682982786,-17.7080243295305,-25.7636048371443,-32.1142646271106,-17.7778910909353,-22.5486046390445,-9.96484794705762,-17.196991462785,-23.1292091460989,-27.0608982212634,-19.0837168247638,-16.9209173762447,-25.200239906815,-24.5991996169933,-16.9447852883849,-24.2159179534466,-24.5007813798553,-29.0846870086667,-21.7154453242773,-16.510097508357,-7.25363288114129,-21.5920042076273,-16.7709600039181,-28.9885830829648,-20.9940772652593,-22.1650051990021,-22.875351362247,-20.8811998629259,-11.3172877983766,-37.5857494336412,-24.4919756528578,-25.4643497467886,-21.9966023763801,-26.8141208396416,-35.8088056006304,-34.8159798481624,-31.4246427775153,-13.8555706600555,-17.3454334869363,-31.6940604188444
20.753692973545,-5.50605888544593,4.50174214982401,3.45188140057859,0.611971689824768,9.21292580022354,-1.67279417008047,8.48424889813741,10.9757992414427,1.4444850869451,0.174885801577806,-0.167036320421444,2.15828325767887,-2.23766611853287,-1.42369813397195,-7.81364601693834,6.62990891621415,-10.1873216428438,-38.4208496261857,-0.697495270122196,-2.62866833685128,12.4543192581485,13.8123833306989,8.9810424181316,21.0197305630659,6.81519971196051,5.67873586353857,-2.15671692712609,15.8615232131638,8.564194096842,17.3421127407117,7.71065174095073,3.09994874548116,1.79724725229287,9.86427273237183,12.1990976436706,2.90627724451851,2.09879494112946,14.2361534355129,2.05872523744685,-3.71945655432897,-6.96735597188279,-5.87841655912007,-1.69673289225177,10.1250413069132,-6.73853607151693,-2.87081830118648,-8.20418893747688,2.39773086517879,3.43628876515514,8.23416496724738,7.87308438060465,11.9204885062168,-5.00606328934296,4.74358583047378,-7.67243673139623,0.399072627965103,1.76710446359414,-10.9886658776925,-9.15956000288864,-1.33902332292706,13.7152474934049,5.70149671924739,-7.17000955535677
6.75863573438953,-13.7547479368273,-5.47225931019496,-5.90501650725186,-11.0223935221689,-5.69808865736759,-9.12555458056461,1.16636161319975,1.51698441319681,-14.8951305325494,-13.4762724973469,-10.8727027489913,-8.99831711468472,-15.8575918240022,-15.2927093985052,-24.558143335705,-2.91429503354342,-17.9690024217331,-49.2754233703868,-12.0827590592421,-13.5726840446008,7.25535791123203,3.71444070850708,-2.3549704473992,-0.75666709274721,-5.69946919217155,-5.15039413377978,-9.24295833079242,6.86846791039974,0.138183063136789,5.4965370896709,-4.4809502350289,-12.8067398832019,-5.54307178022835,4.40803340546632,5.96825869754769,-10.67075835828,-8.60751394130226,6.2207247577837,-11.6763591586527,-16.5003275876119,-16.869858683162,-27.5413721177592,-19.5855292922369,-7.99521883245658,-23.6417312503554,-20.5904894953152,-19.6965699771648,-15.4885066406615,-4.5678096047247,-3.27435556033383,0.902018068302674,1.15041620736472,-11.8409217014391,-6.38189045788352,-18.3380914193527,-17.217324595855,-9.58149690210858,-26.2686606007252,-15.9325708534746,-6.96563259659554,3.20357612081754,-12.6332660205156,-16.2512997122415
-24.8107051587964,-42.5398389722252,-30.9127784007677,-31.6181214627824,-41.0859651956864,-41.5529919427467,-37.3981497116232,-27.1828534214623,-32.641835664113,-46.9847492073658,-43.6484067555089,-39.7274899623923,-40.9140150413056,-44.3058813397393,-51.643759605108,-56.7269688673432,-34.5209264307963,-44.624965055881,-77.1592205826137,-43.8494418265213,-43.122638997786,-17.2045809837287,-27.1056713555263,-34.3671886079132,-40.0914551670925,-37.9229158188435,-37.4861573864138,-37.5100484885834,-26.8189709983304,-31.7260524163659,-28.2426387678947,-34.1557831760669,-39.3242475006251,-33.3154049547029,-23.1421214948442,-19.9421876119476,-42.1250970643212,-37.9138047758063,-25.1026971067504,-44.1064466765351,-40.0912259997132,-35.4705819292867,-45.8845590454196,-38.8618783884153,-34.7586305350031,-44.8235915689596,-45.6604739611126,-44.8557206783662,-50.7029297505629,-28.5699539036669,-36.265741094711,-30.1802414466407,-27.6760353414618,-43.9871762403309,-39.4496001152147,-43.1897809882638,-48.6455691532799,-42.7683324553835,-58.7752233831537,-40.1891547801151,-35.9597715869611,-23.5650454739631,-47.9663078687637,-43.9431727076593
-13.41918027816,-33.7917613495636,-19.9717959730434,-22.0368800129717,-33.3394231063945,-34.2817260530174,-30.7278506457098,-17.2284904867286,-28.884885700391,-33.6918750074994,-30.3846917599795,-27.9995130659174,-35.1979767180089,-32.8490442938085,-44.8726392615519,-44.5307514621794,-22.7286667837787,-37.7915960059947,-67.5142456131828,-32.7492308153415,-32.4621797109108,-9.56304771250885,-20.4992263000049,-26.9140800467002,-23.9728320763946,-31.7738630738737,-30.7025009809702,-30.8861339080082,-21.6192677324961,-25.9902821515933,-23.3217433449054,-24.7302165743027,-17.0733608889921,-26.4053887405702,-20.5007827804482,-7.23008398760879,-32.4818421645078,-27.7319261939688,-19.0730369005953,-34.6965296162906,-32.3721036849751,-22.091800527087,-25.7173316322704,-21.61915421555,-25.9921864504367,-31.056900933955,-34.8738304057843,-40.5061240760909,-36.5352642286118,-17.2206871632791,-29.4879714496773,-24.6054803505364,-19.6790264806012,-38.4516452943032,-28.3182802918621,-29.4183174703131,-30.9603517175832,-34.4097176589019,-46.9533387851479,-28.4447030016564,-29.5085183061659,-11.6901191943223,-36.6321855973518,-35.9331986456288
6.87401533093567,-13.5756182676909,-4.22316865418395,-6.85284624320484,-15.1244041071172,-12.2550084702214,-15.5078252994098,1.48218668826355,-11.4330903225409,-8.48358637791311,-6.15768139122107,-8.85105565653932,-18.0230825318965,-16.1532472252945,-23.1223312142333,-23.6527696658091,3.2694253438767,-24.2925271619743,-49.0306521399911,-10.9921825526277,-12.7989943767328,6.6597404210842,-5.15120955185681,-13.953834440534,4.9369059464337,-12.6388874556838,-12.5951711820285,-14.7971164844286,-4.26597436527171,-8.25746900913683,-4.05253089946344,-4.57314192203451,10.60872466256,-12.3168419553139,-9.2212818379616,10.7248489928275,-13.8971983315323,-7.27768140029087,-2.42356554702333,-12.785875315669,-20.7812294805956,-10.5721624493829,-16.4556382588618,-8.29859171897854,-11.9470440919543,-18.5698153963653,-22.0777206500725,-29.3783468712339,-8.08833122392205,-3.78995120449911,-11.2779859165177,-5.13747008355937,-4.52098359070432,-19.3795394694421,-5.01004235545841,-7.63162165311345,-0.111117003887343,-13.3124926370479,-22.841575506793,-8.95564489563523,-12.4732009965395,5.37587463552,-12.354184916845,-19.1135915831459
-11.9898411992279,-27.1427235438082,-25.3603483709441,-23.9358541055323,-27.8631150161505,-26.2730536712511,-31.1744877631653,-17.60252360153,-21.6083547891764,-22.2290861995873,-16.6769181577154,-27.0735492443544,-32.0671655062057,-32.8309970187749,-38.0316343371501,-36.6549879640501,-10.0339479385047,-42.2527331229432,-60.4133324995226,-29.2859728835616,-28.395948401164,-9.40029431420652,-22.874245082678,-39.9526776382487,-14.3619578724965,-23.5638090748703,-26.8310784748989,-29.619245742161,-19.5264955574096,-22.2073926790804,-15.1213738220326,-18.8236930511237,-7.21145918831105,-29.8833991588091,-24.7783528961187,-11.0306374547985,-30.979839280224,-19.5992674705663,-21.8038857937173,-25.3313245833452,-26.7240002499359,-25.8804692732194,-36.5633561480444,-20.6956898877731,-21.2221049147615,-31.6263387081986,-32.0244731230508,-32.3236874426885,-21.3891505212258,-25.4274024568997,-23.6572779942193,-18.5431458465731,-24.3304248764612,-30.255579362636,-23.0504359271884,-21.5190476768883,-12.8806033237927,-27.099279666904,-33.1975031726641,-20.5186382189724,-26.0320724356483,-12.5376623709722,-27.8637139101344,-34.4360472956182
-24.419629742032,-32.4568956778696,-38.5866772249637,-30.3105645588643,-29.8932326429174,-35.2167254497955,-33.4201452596291,-29.3093685032456,-22.9156265838535,-32.231716767832,-20.3618006980524,-32.4908253062066,-39.8300001492451,-35.7936266651449,-47.4753474483881,-38.4109587347875,-24.1941080599997,-45.8273137200809,-61.6732671821607,-41.7467236168644,-35.4369435967759,-20.8829312382322,-30.3705256162919,-53.9461502257134,-31.6005025491596,-28.9373594140543,-34.4868779838345,-33.6956266036129,-26.761519857988,-28.0814546120773,-20.6819085908224,-29.7449527250379,-20.9483652145836,-35.6123256056283,-29.3425035926403,-22.0726641401274,-37.3562337227621,-22.8803628555338,-32.90137149578,-33.624561934924,-19.896681340683,-25.6235378854708,-31.8960586263583,-13.5620357664937,-18.0095151879919,-25.6628459325433,-22.5168771152963,-17.2161965398158,-33.6139770904361,-30.9159819813097,-24.9050632008115,-27.2843488815378,-32.6725191464448,-30.0938768898773,-37.5713949159166,-26.0240170166956,-29.4958089726756,-33.3877409352434,-36.9440262190732,-20.9703997530227,-30.7543711485206,-16.8344321364639,-38.5689705693734,-40.3484156639954
1.86125253489042,-2.53400488767085,-13.171176787301,-2.81942532541343,0.907488673910078,-6.90615667377488,0.761848132971246,-3.04823962631809,1.57102347840554,-6.61225686712695,6.87185983084397,5.29850418901654,-16.5807369602803,-4.3357285060995,-18.3305431900542,-6.29510044209337,-3.02298074003753,-10.3806880036329,-29.1501501384459,-15.5543309879395,-7.91100141675339,-1.02204210417643,-2.20814835004398,-22.7344422148769,-2.73088347678182,-6.8829626889176,-10.4473316803945,-2.71919856343514,-1.55666138663168,-0.978324242052299,1.97839143334067,-8.11070956498718,2.50495184556906,-6.15126317336667,-3.15027990999201,6.27525273135518,-5.26617577966168,6.68520407596156,-3.22825493965992,-9.62752092033826,-3.80977170657396,-4.36869386761424,-7.18445252874006,9.07963882072967,4.40153374767528,3.06246955012892,6.70155421378784,11.408366406361,-7.34816061654716,4.95274069059159,6.74481378834396,-2.27003520996988,-1.46243092103168,4.75536538098066,-11.0962380460529,4.59704975931218,-9.06092876840528,-1.83949469629331,-10.1426776890542,10.8746256366715,-6.08165072087403,15.7478092715295,-7.59240503291602,-11.834818058285
14.1903175500476,9.8766668525666,3.22130564108224,10.7891031892476,11.7688986643143,8.63215626897907,14.8269744878738,11.4617791409797,3.19682793838489,8.24185611755531,13.873595218348,26.9019374456723,-5.50107588443949,6.5889448653026,-1.51793024966005,6.5460259963313,9.54018957444258,9.43358192073344,-8.36477727352026,-1.57742967571329,6.19594296998037,8.75771004990479,9.63221047408234,-0.218557092171669,16.9732028347302,-2.27301081467124,0.681244629789682,9.67616572546977,7.57113159673074,10.2610017757324,6.29570337646448,3.8358821734352,11.7772264574118,6.16883043406867,6.12918202859743,18.3386911341434,10.5355742414694,17.2399757520713,14.5352383941012,2.74940860679861,-11.7161483825292,-7.25646073966324,-15.8403016792956,-3.10788189996255,4.4667291051203,4.90923155009076,7.1992122564619,9.39254040219158,9.31686339302452,22.5421951511339,18.8454657542698,9.64520036297784,15.0168136949139,20.8947766258321,7.21049655339009,15.5673860680074,7.94278310611975,15.4661308088423,-1.76925987817415,23.1895746773897,-0.602564855300868,27.5514603748951,16.5071407227148,-0.375601879081791
-16.9289812188711,-17.5757651567602,-16.6594992927574,-10.5473813672947,-16.9486231694628,-15.464705546275,-14.0393074698392,-10.833192765617,-26.9279336695687,-10.6974910152479,-16.7894367114599,1.57775257595106,-25.9883727297066,-20.2580321936958,-24.9179863511984,-19.7719177414519,-14.9155647977146,-11.3704591242906,-22.3799482487577,-25.0862455067595,-11.6681461187759,-11.0173907138226,-16.4158415139493,-19.0245815521423,-11.363287627232,-28.9268628670007,-20.9496838100687,-18.3938783353681,-18.317485054071,-15.2809227414051,-23.2594517295784,-17.4338085558709,-16.4885935731808,-20.2228152915186,-17.3821241270475,-7.11096202224407,-14.0554009049508,-11.5712736709169,-9.88514463732765,-16.3116570948548,-29.121867568099,-30.464339287463,-39.7837540243031,-33.8156371040725,-17.3793193862915,-14.7683709736988,-14.1118259919586,-13.5095971528032,-14.007862330001,-5.00827234604558,-6.27126338483126,-14.958667060892,-8.34070589953101,-2.24800326714511,-12.491604204846,-13.8021391018052,-10.9391620182364,-10.7902879976218,-26.7025432080674,-4.91443517605676,-29.7224581565018,-3.21335548230607,0.119254962052877,-26.9595294663887
-41.2319166015836,-34.0936358706277,-30.9835553976099,-25.4153796999352,-33.8075900767145,-30.3452848049606,-32.1673266963128,-26.9255872747743,-35.8289104948247,-23.5976773220303,-31.8517547856009,-19.5413491223516,-37.1234568105972,-32.8554735418179,-40.8738577672647,-35.7782619970192,-31.8745227400583,-27.0737638223275,-33.1787875741725,-40.6285637007935,-19.5087026603739,-20.8657760736048,-29.748896534432,-35.4324565655401,-35.4570932704758,-38.6229970892312,-33.3955132495346,-32.8963802788789,-32.1583569021924,-28.8949941523242,-37.5611048887026,-29.9939792258616,-31.1918502840705,-35.1588960292322,-28.6426691201561,-20.2777712237651,-28.1065168886254,-29.6716336849081,-29.7393547168455,-25.1413651860054,-19.9588111739459,-31.5283934586013,-29.7588729276446,-28.793770798248,-19.9171788922494,-9.92337670670374,-14.7719546691769,-10.8673518563105,-30.8952318733091,-26.0107616446556,-15.9649441681947,-29.7075650000828,-21.9399615487771,-14.1410623812894,-24.4320107275029,-31.2748246337074,-25.6904326304773,-32.3299296453043,-33.4371329670585,-23.1410925812794,-45.0884473324404,-24.0240941119756,-17.5002910267887,-40.8916877909886
-28.689051577167,-16.9150083366306,-17.4505446927273,-13.0617870680836,-16.8198509201775,-10.5203868232197,-15.0840129952666,-14.0713093163671,-12.26631888988,-12.7290385109453,-11.7158827308688,-6.54627796267199,-18.9865714422822,-14.9378412588424,-22.9485001023769,-21.779714361303,-15.3662041118969,-13.745568816028,-19.6574488257187,-25.1456390728973,-3.29396890830664,-4.70315169729022,-9.80899645934519,-18.6741011863212,-20.0391135658282,-17.4619995137766,-15.5268289510658,-11.9120095354058,-14.6606505029908,-7.61464491614076,-20.0662298271054,-10.375853976803,-9.12103732928045,-15.1696139888729,-13.0360738182528,-5.94974328959147,-8.64994709704368,-15.5496934935234,-16.714140987043,-9.73118782623946,-0.708176322150371,-15.5031152088942,-7.40683972794371,-2.1211457438384,-4.41900157266593,8.43751340139505,-4.22104694106522,10.2959679652658,-14.7988895093791,-14.4316037909965,7.95731694381387,-13.4796613574656,-2.33488061768618,4.44005126083439,-6.50818133603318,-15.9879004808215,-7.97593290533553,-19.9366833916494,-7.78416176136337,-6.10309417674608,-28.2420008313997,-10.7340657933223,-7.40883253480536,-23.2037289868657
-20.5707985919828,-8.10583841665349,-13.9618633975327,-7.2504241176703,-9.60700240744876,0.283863247583496,-5.33198222094744,-6.34600788450662,-3.17789629811965,-9.51934277991485,-3.24072672164738,3.25735340262036,-8.12069654441911,-10.2003991707075,-11.023868447727,-17.032010302156,-4.05172815408137,-3.32970509492074,-11.7893738451367,-14.985128512956,2.33154201892935,0.695406607641561,-0.755070386303962,-2.76237250122376,-8.35898141841393,-9.76686531812182,-2.22944929183173,-2.92103800717722,-6.50339989221234,6.10710197305606,-13.9785337914644,3.61110215551177,4.81826151082747,-2.33493984287219,-5.30243326267563,-5.48249726969842,1.83369189534379,-9.32517719898026,-6.88332037160047,-8.3904244449924,-8.96220545696262,-16.352250926609,-16.6331477445457,-4.77878893242463,-9.85790574985715,-1.65243559956848,-17.4509514464866,6.78147784026492,-6.16629710583191,-9.16110374623651,15.6133859847643,-11.0302231710585,8.10410305232826,10.6616988931493,-4.84089133696562,-10.0811123828822,3.69627952936592,-12.4194831559949,0.114650654602485,2.65183625669361,-20.9670621302761,-4.82733424023163,-1.19777077795091,-19.602442777033
