-63.8693618068973,-54.662314191147,-46.1077345166704,-46.1077345166704,-43.4978627515759,-45.6727558891547,-38.3506156593061,-43.4978627515759,-40.7429981106428,-38.9305871626604,-43.9328413790916,-56.5472215770487,-40.0180337314498,-42.6279054965444,-36.3207153975659,-51.8349531122946,-33.2033685670363,-52.4874210535682,-68.4366373958128,-69.6690768404407,-51.9799459881332,-70.6115305333915,-73.0039129847282,-19.4290453623706,-68.6541267095706,-60.6070221005291,-59.4470790938204,-64.3768368723323,-42.1929268690286,-54.5898177532278,-50.8924994193438,-41.4679624898357,-43.5703591894952,-48.6451098438457,-50.0950386022316,-43.4978627515759,-39.6555515418534,-35.7407438942115,-46.9051953337827,-43.7878485032531,-39.800544417692,-37.9156370317903,-40.4530123589656,-36.4657082734045,-29.7960359848295,-31.1009718673768,-2.60987176509455,-30.3035110502645,-5.43723284394699,6.95965804025214,-21.8939242516265,2.02990026174021,-9.20704761575023,-32.9133828153591,-36.5382047113238,-0.289985751677173,-22.0389171274651,-46.0352380787512,-3.55232545804536,-16.0217127801638,-71.6264806642616,-57.4896752699995,-24.0688173892053,-91.7079939679058
-301.101260913906,-258.791462335744,-217.910191182192,-218.925141313062,-207.483813019001,-216.571191896883,-182.117789296108,-207.55630945692,-193.252100137112,-186.029683855486,-210.417733938534,-267.807801319839,-189.159692755001,-201.470978304095,-169.94858353459,-243.128308940982,-149.212136029609,-242.164453914255,-312.188399454961,-315.063942549693,-231.926881010386,-319.318374509023,-325.305438257757,-79.0685217510355,-307.638155567426,-269.962302839573,-269.533150388584,-289.807391755745,-188.242563200021,-246.703045448735,-230.101807993418,-186.832524020925,-197.750802092303,-221.90287461608,-226.970342549771,-195.811886513994,-178.52266117051,-161.686902700054,-212.922055578878,-197.985323107441,-180.080606313709,-170.774281577936,-182.959062496704,-163.16943831707,-133.479399285192,-146.123473253515,-23.0407583611488,-138.859710848468,-26.0170351200343,11.2744872562458,-111.933275722314,-0.517670874357858,-49.5594423700908,-147.25618874992,-165.760821836651,-2.8984009726399,-98.7019475299775,-209.736581942825,-11.2009811023957,-58.1885379143483,-325.946700674177,-271.627254651654,-97.2418229626689,-427.902695473932
-567.711911745077,-495.466876338825,-412.257812239825,-420.626052915041,-404.538256163902,-413.116923785682,-350.327064824598,-404.809753670066,-368.383145974286,-362.123598348068,-412.914429460029,-510.353459451414,-359.415064497649,-383.618092663354,-313.435709239356,-448.779878487291,-255.410745522079,-431.031325228699,-547.306105228118,-547.317281647889,-383.969769048197,-551.454197700231,-544.434240878704,-97.0677442055583,-526.785005726958,-450.092937878329,-474.999094142995,-502.530261661941,-315.520313619449,-433.570418079494,-402.004745069954,-324.862233793694,-350.350653494006,-396.294378448272,-400.743737688495,-341.325615871145,-313.225287692463,-287.886700673198,-379.776262786584,-349.488303909759,-317.222706334897,-300.960147445974,-323.723036460039,-284.326007286983,-234.152959918365,-272.365911750913,-85.1911367608719,-243.522641385561,-51.670177532035,-62.8473905983852,-236.473304944454,-38.8943187820514,-110.631733900182,-246.75761411941,-288.327389359636,-20.4471929056049,-156.956614416667,-373.069323922412,17.1246245098711,-36.0896401709326,-573.712269518106,-516.413715924815,-109.095595210531,-790.129292581971
-529.990285951563,-483.681202012643,-385.068514180984,-410.145207812921,-411.032303442138,-394.953160772154,-341.896384690265,-411.710501723559,-349.332631368909,-360.463001228547,-422.123209596473,-491.639655651112,-336.298201031119,-361.812314129879,-269.920488854328,-381.089447683451,-187.718692046551,-333.689285299477,-415.822972946998,-422.926862489254,-240.233152781466,-414.983761993985,-367.554892847919,37.1602470202988,-398.328509533261,-298.966991481989,-391.530622278858,-392.819234840742,-212.258156428518,-356.59959511511,-319.470977703939,-254.180331637234,-289.309781258647,-338.357507299265,-332.536204743131,-272.814888792237,-257.06543732902,-247.495545242139,-328.286496535338,-293.368805019687,-260.006484743158,-252.816523543265,-272.642622601097,-233.917533261508,-196.653620648541,-235.030168140771,-165.384130920943,-166.562888498799,-41.4900911811065,-244.836170450191,-251.128846894283,-99.8154240115127,-124.240096414042,-154.670389309131,-197.088513068802,-48.6017858335817,-49.6694818591226,-289.730058149384,150.40366888582,178.603432160948,-433.675062536948,-486.04358166704,120.212823759664,-689.754261364688
-220.679435318846,-231.532322582331,-151.491724883479,-186.170245257066,-212.40183643699,-173.741062885532,-152.070897216887,-214.051816864369,-141.140303301374,-161.737038864175,-210.042374401629,-237.159820642313,-115.300862608304,-126.233711691733,-59.5222132927016,-62.3820208762839,-17.6296832364618,-12.8302866525123,-23.8512460724063,-81.5526999105722,65.968043276933,-68.9143573241903,23.8723642295476,231.561211504821,-85.5403166305569,24.1167746763673,-133.698378211592,-93.8789633752715,15.5335527405578,-119.135071361524,-82.0006662232214,-52.32041863382,-77.339525562753,-131.160018639736,-112.313538096087,-72.1541081844054,-74.6024995633071,-86.8807576716336,-135.697290054768,-108.304776233799,-77.5873476161861,-87.9435750942438,-98.8399723109337,-81.0109562340596,-68.2429724386432,-34.0626256186838,-161.321283624103,78.8217811514268,54.592519615789,-365.691525323669,-84.7990746450944,-48.6005727671197,-51.8872954310761,82.4767692853605,107.37212444777,12.4434375970136,196.972115552975,38.5794195154292,351.453326887066,542.613170378576,46.54881211921,-166.528776749504,541.985911182167,-163.556780001723
38.5315830202266,9.9578621011055,54.8563967799137,36.8219332165133,9.08568011057929,22.0108053527836,42.259475501118,6.01049935521914,52.6783413069374,60.5997702957054,46.6352269476793,-31.521705116104,108.133171186668,124.851872214994,115.760025825623,213.311145280809,64.543561761015,219.549103045731,234.283046466457,89.8935729390529,212.063778766422,63.9152669678665,187.305632102007,300.25259224083,23.9319753261578,137.478143547211,-18.0109745701444,36.3670484222253,89.2084097193033,-8.37200138229652,24.6218558492323,45.6658622770545,61.3476873786541,-28.4066242980607,-4.56339317017584,26.4398156604517,33.9221083199631,31.2779388441924,-33.0094316348656,-15.4041982207568,15.0506372261833,11.3046833019811,-9.85623288256316,-5.81589829059353,13.4831816396026,143.418675976765,-11.6487920389018,278.775943064515,231.087386828917,-264.418322026117,144.539133216098,202.878825405,28.2577693290485,267.923633721857,437.21488643449,271.991149709209,352.946416039141,409.545918182356,397.684497033881,813.738955410652,510.315281290511,202.665494000446,860.670845113462,342.434285859379
154.123662887323,135.721971974348,145.286399793358,155.01910450618,145.778795918275,104.178355359736,146.899676767511,140.162543177895,136.975979113232,187.568273871487,214.105309348667,29.6633933758935,217.789936711865,261.861582511798,169.568677003111,314.911237343514,61.2276314882519,277.982819880903,302.507651648112,93.6496796998609,219.22262957025,2.7513453246672,141.165352105988,231.390520167519,-32.4020216393145,55.0281955189432,-35.2675189818616,-3.37495472566172,-8.09376114575556,-26.8918382942973,-15.13509852232,4.86484322023448,77.1094405813662,-36.948342343425,-23.6821065325948,1.67932945420405,32.094091461269,65.4583457973498,-31.8886912214141,-25.0931775465925,-7.60911305539863,18.1201972680135,-27.2945709940168,-20.5486667164016,20.8524886433839,168.485078395226,185.981522242951,276.666340962039,368.083096859276,-20.4595525486713,233.440278906552,505.818299555801,-19.6082487337831,306.377324560045,654.596450828413,633.721613509237,215.132033790207,694.007709803963,70.5550137442244,697.940752632229,805.372786977694,497.847256902319,769.651149159864,673.096634145314
214.922223085741,185.416533504175,172.25763524349,193.157082105147,193.464656255363,125.132938905268,170.219662322332,177.704368915646,138.597921902522,201.634645405934,242.413496251115,20.6958660531219,211.318022577583,259.245373727066,137.250678842287,279.824681911971,63.5877563731572,236.905870050043,296.287408697591,99.0098315946248,214.255424563394,-17.6158370289519,103.24515574211,108.628429080985,-38.3127818206151,-25.1669851193842,-27.0917682537354,-36.8689853397539,-120.182562784999,-38.1953724766711,-66.2015111691291,-73.9272933160659,24.7598124972134,-38.5162286155412,-51.5626110561792,-48.5413389338266,-19.604499414582,34.6303891886127,-37.6734575860022,-48.2988429459957,-55.8927217106582,-20.6814412076693,-69.7042860192246,-61.615464334191,-20.4542600694662,50.7907484836719,268.276805594586,94.042128908824,333.119506732301,219.105759851999,72.8011881566421,647.583437346773,-236.15015604616,192.254486321077,711.195470994974,888.471238044238,-192.338144319796,838.228651664839,-536.349670525136,130.121860603904,919.167044901293,683.769120981314,187.607217384671,884.532431104312
237.549070554878,199.094563675875,168.458395080253,185.047393789259,184.263923468819,117.30298220421,140.096522128092,144.897570986116,94.5958080315583,137.548589901993,160.76643311798,-15.1390217870854,127.289440729646,150.341101556805,62.0234213004816,146.484179735807,67.6750750124876,124.169568439716,187.103144883728,88.2320299781497,131.73199135117,7.37352397255161,65.5804669550091,-40.0097983967383,-1.76435850972805,-82.2476162052957,3.27980325415212,-42.6530083430628,-173.617271429744,-28.1071140884036,-88.4059609175606,-123.958590302159,-50.2873212377721,-22.1414034040583,-60.3671223293316,-84.4198251526961,-74.2379361175443,-31.4803677561212,-37.1248097436306,-66.4979172557413,-88.2867953158951,-74.4502035585495,-100.961527880006,-104.614593084789,-79.0278154872419,-129.823423754391,166.311503264843,-134.41277295544,109.393772504096,371.558028494603,-242.62928050801,549.108535324169,-492.259082752828,-26.7896028226662,602.413318883351,946.667356924561,-598.860891140691,816.707331832559,-1005.89864930013,-534.248282513923,828.865509612114,731.165756503671,-566.851886217901,960.806845924789
218.720471270479,210.234647993238,154.275159257897,164.968636736485,165.223522223988,103.680403710817,106.170604006664,104.878896588359,55.4193993125893,70.1887780151073,79.8102975191227,-40.5440840290701,46.2114204479402,37.82686092347,2.89801553258005,4.42678056119502,60.313849746917,12.5597168830716,20.3509028811408,42.1375013104077,-10.4713612128631,16.0648921935708,4.21497478825082,-146.926320786498,17.2546645130273,-111.253436394181,20.1915138669885,-38.0641534332306,-147.838652158965,-10.9971961184448,-67.3677945398552,-99.8356121310977,-63.173437812671,-1.62299522251177,-42.9913617374312,-74.0495101921703,-71.5486362592576,-48.4885340622812,-25.9053732789885,-60.3806574677631,-73.1415435714341,-76.7403761614596,-87.4929216895671,-103.728256439981,-86.6803173457834,-266.308939914305,-60.6714631666619,-303.7945509434,-262.542500579593,324.0881481161,-494.581236848159,190.900828256773,-600.066078600516,-260.946530049723,323.856592551295,750.646488140217,-745.608023314109,625.543400124315,-1009.20756413172,-877.052182335403,592.585628619349,687.449447749933,-994.803257411976,919.548527360954
219.842391747937,247.650219190978,170.905691319063,175.502000165219,169.291529384484,130.77435917119,123.728213272355,119.843599868309,76.0901454880667,70.0752825625283,85.3564457785688,2.03919251759615,48.9829497158665,25.19523045271,25.0355814594728,-17.5466398311145,93.7763407187371,21.0045186508864,-8.49686017463427,62.4789019000909,-20.6879605055969,69.7134770138564,25.405282465184,-92.5062678576357,77.5172678289218,-25.3111324139523,82.20249375799,31.9262876371972,-17.9912249295058,59.936191006716,35.8976114939663,23.1283988022756,49.2259462765096,63.5260906916678,40.2759223399846,22.80407363163,28.0800797834176,45.6340982752544,40.0204806193286,18.0455067442904,26.2206656789811,25.1798574777499,6.79436302189016,-7.26540658390074,3.74200580986656,-263.297618119137,-288.373786564784,-382.622551527988,-697.774781229602,28.4442082567522,-536.028914241084,-367.707119480982,-500.804037504649,-425.562122066521,-101.238339211547,194.637815078765,-635.218080403763,278.588245564652,-656.572974160544,-868.766105660537,347.632816274474,608.989277700476,-939.864117775967,848.398344005433
263.821084053172,296.993874313257,221.558079300995,216.960039381716,187.971103294033,196.355569138005,182.018007767262,178.013110507788,145.572594178028,127.191838165413,144.834809930017,96.0467875586683,117.822610819481,97.2408489112357,110.034219398147,69.7009471588014,173.33870486444,126.916469311267,115.9423741067,168.43056179261,119.536685438346,184.689690866123,136.677188201888,82.5094017839462,192.329003960526,142.499786368756,199.812493012901,159.57624956081,157.702333232547,178.191886993174,177.517990558668,178.423432622492,208.013980248005,166.9988302163,163.471086527865,160.176407209064,165.294027373121,181.861712079506,148.288771140658,143.317227491979,162.875912625035,167.965241281072,139.941402845483,136.201240244141,135.341742193573,-121.257506224523,-394.298580869066,-335.837605174886,-957.152323750872,-323.869216762785,-375.747619460558,-849.372990376513,-282.11885474345,-432.646178017426,-501.714259354703,-603.534852041704,-410.514633405174,-119.988462566028,-292.057106758304,-720.161540998674,177.673118177025,477.502992504832,-695.916259337303,763.642134584289
274.199479101637,297.304798031094,244.062757358286,228.091835326752,178.806945788264,226.949730740332,203.514232406534,198.674649261283,188.11395000406,156.294261553579,162.939182672591,150.074565685093,153.156953354302,138.937957402997,159.930486410873,118.927039213586,213.680860100859,180.283381257969,188.174023697641,236.917717009624,204.796565128304,251.06145206391,198.701706508564,177.377680280545,257.280388092861,232.726691639872,270.825078760516,236.392884315958,248.307314922147,244.577672603784,243.097018796744,246.372426168425,270.262618357477,224.961676691405,229.072516859118,228.553032638158,229.587360953023,230.530672624882,211.124791444516,214.420759666452,222.49227009249,227.062659954749,210.506564067947,207.687325908586,195.041150846479,55.5688421026771,-306.385130203758,-148.734608528856,-786.51942014359,-453.863023322946,-117.673267446355,-917.1449363947,-33.3148177228303,-246.983582105406,-604.671762613813,-1164.57473462877,-143.921603850128,-348.041079977764,-54.5572462926604,-537.45557941448,68.8754621501019,310.642129892749,-540.752370078842,632.094871267737
203.437499164662,215.838979837959,195.322613463202,169.10225461699,119.963067176374,182.393950969292,149.073815098081,139.955550929249,161.181167851289,110.232618655458,107.052636156732,129.317386707266,111.135278062759,92.7561504392275,131.810401171794,68.4397171618526,173.650103585857,128.074618932633,124.179793372828,206.829611827786,142.498368728609,217.105295100837,158.357587915044,106.47269410823,225.110604566203,197.506769376998,240.775392458204,216.025859997894,215.752374156355,215.080279986773,210.199338055773,205.318982181223,216.655203209113,202.653459511366,207.212928912058,201.713979103189,196.757693375476,173.497398366023,193.580258148114,196.398196484344,181.974914836502,181.311818271724,191.874440506149,179.255712308607,156.051762607465,167.29315623914,-58.172440350335,69.5655808743991,-266.592553367179,-297.067502069643,107.327918733379,-541.688756449679,191.138534247874,4.33878685066502,-339.785380136015,-1091.27496164757,119.396125967551,-266.128857799371,137.252902332656,-320.711637437341,-5.68621973872883,195.408305842613,-412.167830712976,477.551451256079
112.675655986174,108.23928887443,114.623661338381,85.963557946109,52.1422740240156,110.943725759109,72.6319841357206,59.0357813522036,102.513397828008,39.8777709584295,35.1296331441253,91.2465932938121,44.9969420946792,19.3895619342548,81.189014196637,-2.84596088288465,114.825735537172,56.9680314227835,32.900813864099,151.888543874545,36.7916001814998,162.131027576065,101.094164611255,-25.8832850461481,166.294852537749,139.073432202964,174.939887260303,173.262626043492,152.201656822714,163.05189641637,169.164526792578,150.525104021691,152.848696893835,161.759404592673,170.791747571586,158.231866574399,147.282046021502,115.105941976034,158.990752965027,161.094149096031,139.989581502865,131.131614311022,160.917951679101,143.345623998668,106.180979370291,181.968331311698,209.470906321703,152.371185116945,197.007061711528,-17.878902790753,208.492516849615,-58.2449719748228,332.872930170111,137.174871152809,5.04588418409528,-576.422331776738,306.498295238988,-40.5775052303905,312.426735110212,-91.1062086253788,-40.0630000284654,126.908077458736,-166.178128697494,307.603363527302
68.5018039289026,58.3953589895269,65.0622919443405,46.3965639834587,35.0872972007373,69.6717458346952,39.111021986824,32.1816374044909,64.0804541728188,9.80869714812671,8.10948255751141,78.5235551010724,6.51678879132097,-13.3337467460769,53.47304598576,-41.9342755451536,85.7228234233765,24.9376733782226,-21.1481939918113,127.772403862232,-29.947156599887,142.119657067858,79.6660422847911,-119.039965713456,131.157839517423,125.609261261835,133.154633889654,169.211584998534,130.25516349909,147.389611462835,170.098939029327,144.157840376267,142.15602442616,152.034581221446,170.002947246363,153.119819049313,143.006829600253,123.574002260988,154.899989595381,161.833174162206,151.096355820244,139.197024812683,165.756567618457,157.82752061926,115.459877063203,128.193983332727,340.957838075303,79.9592566816275,322.729952958099,214.417783337895,220.833364193569,190.89674824154,396.890190876306,141.304109821527,92.5983517806309,-186.700197743862,409.439726826181,4.35132031922368,419.042909114264,115.542547114496,-57.5187625014509,-2.14617794532891,120.214037324624,67.5501305589972
51.7532907648229,64.2866436128503,42.7441598775193,42.8659758362204,59.3173548406776,43.0971781062137,30.7967463341207,46.188021937408,37.2477578854913,1.78683422781304,8.81887439779422,56.6368171918026,-23.9318120585897,-30.5481439257131,18.1353841197876,-90.9127991877966,44.7015185376992,-6.92493976848466,-80.1081520671028,91.8409039841022,-74.6219191302485,111.525504226084,57.2041886218908,-173.44942730486,88.8553889724449,117.540401975235,92.2272955415321,159.390858244137,115.22955730097,124.962877830084,157.384908749411,138.395301011204,134.771082051867,135.396476382659,158.234550835451,146.369684698527,146.041906617354,144.641316921143,140.542503760665,155.638217340222,154.837251919731,152.044138783055,161.137981562081,167.09752530698,144.391164106944,62.6791182613054,262.271083164863,10.1138929932215,207.231007623183,327.998319183703,250.879896421822,156.378916546171,450.83494274833,148.951996935367,-92.5804993158733,-161.525038738995,477.911372663766,-222.883011116888,454.148145714062,274.467086615885,-134.094001910361,-210.140773877272,285.869169765761,-222.146374950011
17.6457544308962,55.431589906888,3.20800342610664,25.1171180039113,62.5603127343986,-8.10593119413175,-2.50872933588263,35.1593757725033,-9.19294618972755,-33.0597968084408,-13.876082197198,-1.87376219289869,-76.0580220899641,-81.6928783643884,-50.426521239529,-169.044344246655,-41.3000011111289,-63.4244728878416,-148.695913208082,18.9449241389247,-104.643595860903,46.1284843591946,19.449202996082,-202.010426991408,29.5402848009384,78.5482176050016,29.936131107202,98.2077384274393,61.6251263049914,57.6400068143312,88.9063735827659,79.6060904479115,74.2428225230045,69.472584659656,89.3501791370976,87.4150454913488,95.6802948825268,103.402384189514,76.5455285754391,94.2234780816756,101.762939698082,108.355505500741,104.68540828965,115.761500297828,118.385638884311,11.7904296954424,32.7983122222005,53.753154488326,90.1636290685464,311.351703122975,319.400097072957,13.0955958933507,512.513314372322,213.563718184382,-304.330422707897,-218.120830442594,526.819860882762,-459.76715345965,465.617595213499,365.231236713402,-274.370361707911,-353.333710433724,319.381779190342,-435.649858282158
-39.1834114240917,1.85383180906958,-59.5244304942294,-20.728108852718,20.8491639796131,-77.0011317386401,-60.0546381926249,-14.9640533991313,-67.3641071225317,-86.5661864180973,-64.4594798437907,-62.8147624038607,-132.617920184583,-147.665495461726,-118.018039225379,-231.650404142065,-122.851590362035,-110.560927905729,-183.76835144469,-38.2054970186333,-107.889867699494,-1.63285552569663,-3.17978217864792,-204.467777057886,-0.532800844913282,31.0146896705363,-22.9886816421306,30.7554633346956,-5.73956701805096,-10.2393100025159,9.51708898635015,-10.8165897587111,-25.9300188223539,-9.76900775180532,2.43517996101246,-2.73375430189187,-1.06076746477761,6.04436555590358,-0.806564310897411,5.61387957844834,14.0335436751959,17.7316596711887,14.0908088920268,23.1337903096705,24.3411848146427,-30.5436472052175,-163.629874804182,141.368038945923,73.0913201889853,215.882479243036,367.685165223404,-60.2126783085512,545.95179812751,285.717211535441,-334.295135366124,-89.0876167629217,547.189479313039,-429.747282526393,478.788075415292,400.299942498575,-367.446018935885,-312.273819028892,307.250389368253,-547.381392172332
-133.927059345032,-97.4502346260894,-149.318531932408,-107.053363718169,-66.2153387400564,-165.880238110852,-142.388721118804,-97.3050901406534,-144.675554446488,-154.802839144034,-144.976223754428,-125.824846325712,-201.422522861217,-217.848077333173,-180.491869357404,-293.257346532139,-180.878006678191,-164.708029751462,-238.42255207597,-76.9647179444241,-147.866118088171,-31.4117777326303,-40.9509098408058,-243.898098390377,-17.2064258373686,-33.3933378039949,-65.149151210376,-17.6951915390493,-77.992529111892,-60.5175117474444,-58.8535377931282,-115.525766742961,-152.377814366271,-70.4859624470925,-70.9247426255121,-98.1275435935512,-121.833142623324,-122.746840195719,-67.033249075553,-83.4061375722761,-96.2910712013094,-101.87745607296,-94.5236364728809,-92.6737830187898,-110.892515289369,-65.7754714449114,-168.638529433425,166.490977361703,119.446985041471,124.248202590541,360.773228510338,-16.6395705502726,506.5997245855,322.657855809923,-181.58511009409,96.9432497736428,520.790031397111,-225.15405948651,449.235750233698,401.510970724151,-382.390723301593,-213.889245959006,263.286868434949,-731.283643895541
-275.48848072152,-238.760049661445,-280.006020023577,-239.091473439584,-196.02717126741,-290.230575605248,-263.208552104252,-215.937598683204,-264.244634604783,-262.556257420774,-268.133811958832,-226.351078188897,-314.935466939957,-324.764914518241,-274.735423826541,-410.911513757307,-260.289921557698,-274.614200021532,-402.905046324443,-155.300546776122,-282.618774748375,-96.1440116334804,-139.267481818141,-367.183631539434,-82.8561285179976,-140.151942264046,-124.40799835044,-85.6450266719858,-181.907654488374,-126.787117324153,-145.615766805799,-238.032663195258,-296.880107157865,-130.587111260913,-149.829831299546,-201.206610363353,-255.471616478894,-271.956665724872,-140.094902418076,-180.98156396454,-221.226296771187,-237.191288562738,-210.286568799181,-222.317223300412,-251.079948449159,-83.1754439649209,-16.3377029092554,122.143842954656,175.769880478783,79.3455465614269,307.250267675857,72.2421513499709,387.105890891174,310.624423928449,-7.01317459428462,142.933374614929,432.69165759795,-136.282156181249,330.896018983316,357.187548138575,-425.075952559989,-274.430512080026,160.014541881992,-1058.1716597159
-391.635090768356,-359.814837709859,-397.549795357641,-349.997607556959,-313.244168943344,-397.055762263877,-372.809562226183,-326.134217229472,-377.736639116307,-372.755774072035,-385.496935420812,-327.536039134647,-428.294641560371,-439.529645864903,-379.785487753897,-536.341291326614,-347.325917318762,-392.433060511694,-592.797424942642,-246.845019390478,-420.282264691466,-164.299766620443,-237.88404376338,-481.355766905951,-162.947172134869,-233.814786786744,-168.246584306769,-157.275245982398,-275.636316233253,-185.253540423164,-223.249010552341,-324.404303943405,-389.767099059044,-175.997440304168,-213.557514034263,-277.509333082428,-348.13680250749,-383.426641206172,-194.07575820998,-256.180121975539,-305.09079137038,-336.590057336332,-290.931029889228,-315.758655996763,-351.239568642038,-50.831402907891,113.359169119966,58.1145180705116,202.86208782161,77.817569468794,253.269967833759,129.85541569705,283.011096228975,258.860356466017,58.9280786392106,98.9223228451654,325.833514419537,-208.20810482358,183.697481620568,268.947262331835,-522.818953237306,-467.728320039103,47.4723001988763,-1270.96402645446
-431.250327696681,-410.33579889394,-451.024575703315,-392.995508662386,-371.565359216662,-434.768807497781,-421.359995568381,-380.943556256196,-428.264225060466,-430.643880288933,-448.242145552427,-376.371501781398,-477.619294185895,-500.194218752387,-447.402196405964,-574.221850668863,-384.552488751937,-440.876308052479,-632.379872070878,-278.313133137386,-444.594555104363,-171.234950591481,-264.915538892833,-489.201140367924,-182.646632599435,-255.719801874584,-154.820413662627,-181.186898889129,-296.615764680913,-188.559117881769,-243.407415295679,-330.095702022838,-387.546576071231,-174.045380274989,-224.66321190208,-293.399573322659,-361.262137065404,-409.865146481696,-194.520937461788,-273.001337831355,-323.064812990233,-370.769732898089,-320.339806430521,-350.205032772357,-402.334579554517,60.5260012559448,66.725298292211,26.1967201938236,137.349323847312,55.0685514902422,252.867983745108,98.3753140337884,285.150542329171,191.514479247814,14.5866535489102,0.480876846331587,235.753143653476,-321.814036829996,83.6811846141367,152.674098765433,-611.494297714576,-659.177813620812,-32.8542673678468,-1186.4641394466
-457.47490637447,-440.431718628918,-584.903566253268,-423.23403450628,-412.345990616111,-443.279542024488,-441.529161272597,-408.613060259631,-442.300624098404,-455.128416067808,-482.293825480816,-394.880259566068,-482.420376946286,-513.460649457444,-475.329484539145,-528.701449471216,-370.601007391865,-428.793588954243,-515.04570202346,-256.705963338442,-385.582839222826,-140.337289797192,-248.71768528152,-434.494275061795,-155.466753670018,-237.339284332492,-114.432827319501,-171.513950022876,-269.252409982024,-158.158775963714,-228.45433651767,-301.702052748294,-351.931875808814,-144.777689937905,-205.208787467411,-278.123211093957,-337.772369879258,-391.449080271913,-172.305633403667,-258.771071732883,-322.961216727074,-376.425906345655,-333.878496910494,-366.269003010188,-432.307641107621,232.11503383678,-166.607036746052,74.4226735907713,-54.0256308152194,-73.7680704501941,311.812766708261,-88.3562538499919,329.953040022747,127.294683542053,-107.561458431786,-298.199011497657,118.569253797866,-500.478521688274,-5.88387162092051,-0.00724595436804742,-700.064900116793,-859.348340256769,-143.689802391185,-999.242684049163
-517.138533876381,-498.817765102476,-1164.90287257347,-485.280435709157,-476.541399717262,-469.123369943625,-473.666843952183,-449.524753455962,-461.991202182815,-480.386514426153,-515.755625164379,-416.228185167107,-485.900087248657,-519.028490781759,-482.750478178211,-475.499298745023,-344.536790083384,-403.717492548529,-392.392798773518,-234.321455587104,-337.87088322432,-126.447397149521,-239.56784958035,-400.698992690824,-136.762910166367,-229.57508090879,-94.3582816404055,-173.046625862629,-253.37702575124,-143.287217659598,-223.991310368652,-297.209213088743,-348.93031744117,-130.286878668409,-197.64399886513,-274.430933994318,-336.269924025155,-392.386309912161,-169.054698447213,-256.746550288482,-341.474976163077,-391.754267823308,-354.11757454362,-394.205972744274,-459.350622406548,405.588337229398,-446.917714864298,198.649205956507,-283.040803166242,-274.654608683436,384.608449103503,-394.516905650182,300.180187835645,86.7333653311646,-291.01501928314,-791.803779355352,-37.974758391729,-755.571250986295,-140.87422828999,-156.142176749506,-786.479850684127,-1029.91406498476,-321.777765929328,-879.689730573579
-549.994353890557,-539.192616640427,-2401.27423629279,-528.04070847518,-517.448721160953,-484.923257622441,-496.428891968599,-478.230444755355,-475.566487849527,-488.08088388891,-520.274022265803,-426.361514565902,-482.236385353212,-512.685831326309,-485.410202231937,-462.238429452721,-327.803226618159,-391.563433112312,-357.236850533015,-226.036438742825,-328.944620481228,-127.5455686887,-236.701523578097,-398.583122540628,-138.588786859636,-237.682259217094,-93.350576226366,-187.062981102964,-259.58090460224,-150.018297275207,-235.643749747236,-312.685999698686,-367.956223092656,-132.924491334461,-205.157444373927,-286.724051494067,-360.755222084441,-421.866685694154,-176.296613066203,-267.758340608191,-363.160240014769,-412.608018246554,-367.568231791866,-423.435914063333,-485.191534729057,524.874187404127,-616.293779010382,333.276320300781,-393.666716069094,-397.423730015755,406.382974479291,-600.465041492899,157.347207243437,82.429579030332,-446.936990648272,-1140.10707643418,-163.845564694861,-893.805855229692,-282.785257144979,-230.259942078807,-761.523886009708,-993.565297241993,-473.647422007129,-761.043769200233
-497.628829419689,-499.180122977581,-3924.99473324642,-485.832681733001,-468.094834346921,-447.519544204675,-465.483674400717,-436.654527688539,-452.312797595373,-438.567345109534,-450.25766211348,-406.892409904472,-444.513603477832,-448.589485648421,-501.881700259638,-498.674222189207,-313.920614713978,-405.139587446447,-377.970933026578,-220.657417174229,-339.146654078224,-120.238648577382,-229.094772112667,-400.105369247914,-143.150338672287,-245.002808406691,-89.222936361085,-188.70640297475,-261.089498791492,-153.298788112824,-242.973081238143,-314.853436613954,-370.267162780224,-127.452982613098,-203.077060639346,-291.930362617301,-373.124448020805,-439.446675182327,-166.668220267533,-266.910450002083,-362.159465262447,-416.232189822991,-357.224411612467,-432.469443103699,-497.375089484247,572.603390177381,-636.3690578312,429.96872268413,-313.957874171913,-343.110369949111,330.285067812024,-499.595979124195,-82.5968015827936,66.5186396005356,-431.771186776015,-1020.31273129105,-245.880150018173,-754.035986703032,-374.584271685841,-233.28867311385,-593.312741826048,-740.307685941477,-499.33259654362,-653.414833983789
-378.986956885271,-380.672159031682,-5134.107966357,-361.074444250852,-327.908209491883,-360.778260149972,-365.555395362468,-307.949075987644,-378.625123119298,-314.963534502183,-291.03766916869,-362.355594619194,-361.469913251286,-294.400992935917,-523.91163388387,-583.913372949638,-279.52496974467,-432.740833007389,-399.802305036389,-207.991216444156,-348.646136925532,-104.078348922093,-215.482308701888,-379.564426774146,-135.283357078668,-233.660962244805,-73.6620718314127,-168.836407386564,-231.937001285663,-135.674166270541,-223.512613800107,-279.081021646145,-330.728801051777,-102.513702529572,-174.239298195311,-262.07518309617,-335.710398724404,-399.724531337671,-133.827494545465,-234.822383552985,-322.490250796249,-377.395157379271,-309.442361397688,-395.114081577804,-458.458879907819,594.741829801979,-529.236140530204,510.481076796453,-91.652209121135,-127.555585692991,223.507893972652,-125.798713402716,-294.617480984019,-12.4239488395983,-207.694317826349,-480.271928751922,-314.604689478993,-382.998533574216,-388.550239694609,-264.484988606611,-385.695106854521,-428.650281108314,-401.036737845614,-594.240894356545
-220.499569757033,-212.074128838754,-5878.17181951579,-188.394618075169,-135.53387729425,-231.870283982958,-206.29610150825,-118.871815091017,-240.419006308987,-123.201088645959,-60.7496986019557,-267.212982354862,-221.668568570377,-63.6082899291152,-469.02941879209,-647.899527969982,-176.350804551611,-395.952685094237,-369.183835562771,-138.537702408732,-297.726389831796,-46.7995285915442,-147.499677077834,-288.350268350794,-72.8766721700096,-157.075654752739,-15.4224377958626,-96.6864587636225,-133.407088092725,-63.7354527048558,-135.356406687494,-167.065723825187,-205.30941580037,-35.6389666606945,-90.0847812819552,-154.935075093126,-210.091631748124,-259.584495053728,-57.0044541538053,-136.632531444934,-204.3964792729,-247.712817677704,-187.16672630922,-263.369656560565,-310.146194874777,666.700545343054,-264.430463203075,648.061646875651,240.607039395266,204.759189116494,285.103606254777,344.185562297682,-240.826706958575,-36.1487269089304,143.735186518977,203.882903887187,-281.659683406141,127.238860014382,-271.396821870335,-284.499115430581,-132.776363767974,-48.64454729953,-211.699132143333,-361.196977347919
-37.0139432735252,-28.706251326062,-6368.50890025023,-2.45525961739808,63.3414149457845,-53.4706543530905,-16.9027012842802,84.2413159252995,-44.4384469151527,97.9216346469842,190.139629456974,-73.0130903918526,-28.9530012062199,184.604348657995,-260.069476604571,-550.863387070182,30.6420877699091,-213.125741210732,-222.133447112253,48.018244473361,-115.744309293426,114.607987535951,40.3047434213837,-87.287585399683,93.1550225167275,33.7789171299989,131.752237405014,79.9526166558007,66.0063512060538,104.507313820915,60.012845082166,51.8314954635707,36.6295968490246,110.19789050822,86.8480897440609,57.2497082237147,25.4529236217228,-2.98502628728274,101.530204202322,62.4946317778369,26.0795849588995,0.497281807168003,35.1126255662231,-17.1849193449332,-39.8830590652686,767.848708565991,101.141207224972,824.851528663582,647.500144866952,569.928477321935,558.352769996428,757.905781940792,90.537112802667,171.833601243297,528.306393739904,790.566174724796,-69.9340730408522,699.13174077113,-43.3516803396494,-143.440646753745,304.566038229839,498.933229084819,37.9149732703065,239.363534447898
105.169307997647,92.0059733606014,-6717.95187326612,127.452586866758,188.612528339148,123.185068730729,132.009339877969,224.242721244209,133.192316861885,262.053338817589,371.939188752592,172.997015404561,147.990119215379,360.768788401591,22.958802214919,-266.866773190683,269.735162303902,54.5046268046022,15.5601710031466,287.339628763166,138.625265282043,337.969145006739,287.084394236039,158.676929961828,303.645172270508,276.765854651317,324.996555101136,312.630717297394,304.193151063412,320.21188630498,303.67080830602,307.232401734008,313.152370756304,299.178974169178,312.231663415589,305.791216021953,299.058228981937,286.374576310621,304.990699613032,306.186539910519,301.375135172021,285.579063468941,297.030773435917,259.971733009663,254.340793575152,770.466197552019,318.129258434814,883.717785129368,941.824794444404,788.976435178755,749.694702646514,971.594723178114,355.623583067109,500.931734768808,854.379209926619,1102.36369466028,174.276381118266,1182.79378476783,141.383045955648,131.67769338478,903.383926961594,1071.42256866342,273.141566284745,998.586887843925
131.443774727388,81.7977558088219,-6909.04955212795,132.348909960378,173.370845925495,213.469536826915,170.093085232345,234.613102215593,211.623521582993,300.167750810708,413.915279376721,342.496912714341,233.205544582289,405.346061866216,222.661960816739,64.731501476161,406.969290809087,254.258627167067,218.698749679694,427.772361978636,311.657513706147,473.51812272871,434.584253273002,323.938533695007,415.781409414549,423.430184396057,442.248552578659,457.200613370267,455.959042622552,457.682013212616,461.974760258757,467.873808125105,486.397765121098,427.998108523733,465.377525111318,466.707392615,481.26472342323,475.988649341906,448.177048287623,472.917186854971,489.960700221979,474.78660022089,487.969800351077,442.138077833352,449.230654085322,609.980560049749,262.247835100573,775.469620138947,980.108247716412,748.139297676637,589.828301056983,910.653530446161,274.722052528666,626.20056027442,1030.88145549383,1092.04152934218,226.268840047839,1438.14034112937,185.813981657415,298.194165608542,1409.87277814993,1389.12137181157,385.734188979232,1545.58029576712
89.631374319539,-4.54449838614873,-6929.52616599149,60.1550354133714,78.3874087341519,242.616437478378,137.222046708449,162.706844824001,231.088242853342,258.072153013208,361.471001541776,432.052474154942,263.753501302106,365.607712658279,349.921538090869,364.040628185107,432.789269938719,372.367316716342,362.054485665142,458.129199228725,388.782772471401,482.34791222435,462.518953293829,394.658657249926,413.391998029042,453.14265749964,451.10521954601,483.406432420375,500.030647870955,487.200511978825,504.601038684541,522.892076041602,550.402336288783,465.074635021688,511.040112319245,524.450151366666,555.204501460927,557.456973346673,498.996302257492,537.824920106199,568.578655076179,556.383074985442,578.292686275557,516.217739643208,548.791003363975,266.204739882535,166.991667573219,549.39365100552,899.648926764457,533.354726120435,118.485329558588,663.529360098102,-112.661463309117,402.985581415475,998.607021608915,884.13664718044,12.0292137470162,1426.48584648625,116.607493352366,177.337389131063,1581.87236880966,1343.0635857478,295.314313989615,1705.38334229942
179.859178764727,27.7277745874282,-6773.95223855329,101.708461623046,93.9645694730446,381.624578067985,210.341186723456,186.95141090065,362.143604461136,299.643913924687,380.587069141477,630.894650061075,395.669052349259,398.006879371836,594.146072164991,736.733440679413,494.717579570902,574.885550303664,608.07467017986,552.559903401621,542.878890847909,525.220712140751,549.569277961889,505.781285268072,469.733782098227,539.838386311498,476.998539867957,550.047668165325,573.116588172622,535.83352533888,571.503300013669,619.104163226055,662.877660855307,504.459644777136,568.42463865435,610.467976141134,662.028030257133,678.647461165841,551.977100718281,618.71020945751,674.082400506646,675.739686024664,678.626322617631,622.852235647191,690.464428207774,-277.639310555054,340.020499666825,133.422654009424,895.823605581422,336.749252352306,-461.240926165034,392.738475501312,-567.981649644175,-11.0453413639005,768.063864307039,604.929014411582,-307.724386174953,1171.00154798883,26.1799564971146,-78.8531071209202,1386.55891763832,1025.13968068719,120.535065487784,1527.08665098082
563.605123074022,337.960968757459,-6430.56108854218,407.493633423427,349.733481017893,764.552715122874,530.727065268853,444.442969144558,733.278125471122,557.216122116179,589.021504831206,1077.35257332618,747.539762455602,626.243658264797,1052.8510162097,1283.43918225368,692.244648072859,969.139904631659,1071.78642300508,825.285943762727,875.810286848887,735.464366599993,815.143956650132,748.187182329876,710.012143822395,806.155015492022,640.976546383142,782.107301093918,789.183426804462,716.297603910455,784.221176279082,858.945340887634,929.602556796355,643.735301308472,752.419795906881,828.198618764396,907.519392227272,941.694567033186,702.840951535488,817.235484555709,912.325305703013,937.394670404952,899.636699912118,877.997146435355,963.456686471324,-755.335800560289,804.313437385174,-378.57580102918,959.364653822114,330.619034556316,-856.192265702288,246.328223065836,-768.760382500698,-309.466612514309,443.574412027902,319.146566605134,-407.850801163612,739.138910625242,88.8159407315957,-106.982364248822,986.291662834561,567.130289782628,184.210905618839,1138.91470677541
1102.39970929582,815.001090281854,-5947.11216247519,861.185785859166,726.801013653755,1261.24217165077,986.388731250355,833.146295354488,1217.39081408562,945.83481909995,888.08615828379,1599.66651159651,1209.61795913802,968.376485023915,1539.23790945203,1854.73721793669,915.943625536809,1398.20420672531,1570.02808087585,1125.46259142572,1218.59311092714,984.757441989476,1097.84620250804,995.587256859218,992.995598372069,1096.25440736597,862.941626230985,1048.82884809299,1037.71221617342,941.071846572692,1035.96417346754,1119.93523240703,1212.75272263511,826.622767039667,981.097272011833,1075.99796075258,1174.70602789378,1220.17016115895,893.621809229592,1048.60239619557,1166.47810645593,1214.73026025309,1153.12320924524,1172.20788760041,1246.24038953189,-798.570301752351,1254.21584826574,-663.816671495168,904.462091387292,481.600603251175,-870.987127458063,253.999455131319,-594.118379428454,-366.866073711666,97.8033484683298,80.9109858953893,-201.184915540349,213.358393227307,329.450064176243,137.106348715753,543.002475429351,20.0735441359617,529.100175907882,578.6583453193
1455.10832367664,1165.25396762792,-5456.9195362546,1183.3052517874,996.261228175264,1560.75747435642,1301.04502076844,1119.62438737878,1513.32826344245,1230.83128154953,1092.77061050836,1859.31631184182,1507.56433247034,1218.57073032072,1764.5802962145,2143.53438607057,978.864206254431,1581.15674199627,1785.38841334413,1194.12113576073,1314.01746925369,1019.2031948014,1132.66605364569,1046.19580709792,1068.55436845302,1149.66205432545,934.603141187148,1103.12023845164,1095.12847521034,1006.15251429168,1102.58502978561,1187.31266542668,1282.37224115486,884.224787727696,1051.54475909397,1148.04056727902,1249.30739744411,1298.61573977342,956.983023612488,1120.83003083403,1234.32186661773,1294.35629701297,1239.68850418034,1292.06749893262,1340.99520880262,-591.8336965546,1334.00674427235,-763.592358435839,532.227328302038,498.596115482034,-760.289665462062,202.344394268721,-364.377405684214,-471.627632847442,-346.922134396865,-125.494496524848,-85.5393700338276,-355.04797833432,421.803660540722,174.468680375584,58.3725189437472,-567.991585870559,704.48884099781,-132.642443798796
1489.2658785556,1276.95723448231,-5015.19866324686,1271.04920647985,1110.36714435898,1536.46490270281,1360.87212969369,1226.20093721981,1500.1363488834,1304.58012779903,1171.49907238234,1761.67103528052,1517.69669549783,1298.01291598809,1677.23276975583,2048.89631733665,864.01465364375,1449.35556600937,1662.78190371371,998.493161457668,1147.05480526027,807.205829083861,906.249310463785,901.675195192183,911.872317384882,956.310457604981,802.525980322543,920.058551202153,937.677088844896,865.343741329803,950.925918711563,1040.43058129791,1121.34308791836,768.321465645906,917.756272869173,1009.45910419067,1106.2611999887,1159.51253138065,841.445196499753,994.152331340063,1104.32950804567,1165.07169695312,1126.26275047245,1209.82606908691,1238.81492485929,-600.265959688046,1027.84694519404,-1002.53931524078,-135.379827200167,270.424258578001,-886.308354743127,-118.156825516482,-394.371978537482,-894.141391378207,-927.229362724735,-355.513659644364,-377.297139311652,-894.718816690874,151.104366101801,-359.205712381992,-543.305983079374,-1005.53133521584,404.895314259479,-761.509138102791
1364.1140278711,1270.03245879605,-4480.05352825231,1233.14091391575,1153.82578010608,1341.21166580093,1273.13589552488,1226.71010996461,1323.84445745487,1241.51177939067,1182.46578550771,1507.63955599929,1362.10674856269,1265.16367175553,1440.99242871022,1751.89398150645,689.692922100209,1170.93791076911,1405.20237502689,723.698352502464,905.629293447624,544.679815509725,630.289626053585,717.727739636792,701.948035846429,720.056646343312,602.553275968347,687.15516905649,736.590714597776,658.763385813729,739.650793857199,832.318140851345,888.574916626014,592.824652307757,715.517743780202,803.133205107646,893.966807763323,947.666949966021,656.179242588735,799.794592751761,910.780639836835,972.293307381405,942.586098455689,1054.88255712321,1071.64713903826,-789.696429723213,693.542855064189,-1316.55782524467,-789.659155517456,131.777860349872,-1097.0402668706,-563.328894261189,-495.024158075934,-1343.91718947958,-1441.29984066632,-593.067367496905,-735.075062764282,-1285.4752029722,-146.433460093844,-1058.37438087452,-1182.15655177134,-1071.83874282045,-38.0401243151048,-1006.60312702621
1237.98580399888,1234.05271365571,-3610.41205338208,1160.52614078571,1139.53535798983,1144.23644058603,1150.33683394793,1165.20654222296,1148.07859058315,1131.83952542972,1124.83069851785,1275.16201053413,1190.29385254444,1166.39312055423,1177.92563096018,1434.91592389149,517.863574719646,898.568186745499,1144.64051657027,496.275439839451,693.204153641718,355.805638764867,430.894321166183,568.309969460234,537.010894083015,549.637391799243,429.208657392737,511.687877012491,588.846320090366,483.780900623922,565.033578990255,654.379378475753,675.446294665247,437.211556553406,539.722239016611,624.605348703517,703.531074218281,740.65860177253,490.09905191457,626.507088944197,727.894567817439,791.158483762959,774.317601957201,901.450071925112,903.701516842836,-813.991632181249,627.116109907814,-1337.11775454944,-1124.86231853844,302.302377903115,-968.552698571942,-825.012524347564,-297.104221259141,-1318.27978130723,-1632.64602872476,-766.759755016075,-593.063189483089,-1461.60223280105,-2.24629427182446,-1135.63676201542,-1582.03689713362,-791.150178517921,-75.0231268547305,-864.161647394511
1138.94628643031,1170.41703915626,-2252.14949719333,1075.5155378178,1063.11099189251,997.847090155957,1035.8493893931,1069.28308944579,1027.82513596425,1024.8809315594,1014.77905124097,1102.84658779897,1055.40788925728,1042.33322521721,956.575644868149,1170.91709968708,387.274066529899,711.211791476958,906.530253242656,346.240495311004,525.702691389288,232.859829229784,306.736367371465,469.6755101174,407.782307685532,435.844353108346,290.647465342286,383.571506406145,488.349830575462,346.962183902414,433.290851642976,522.031662125195,509.249913050936,309.947594765666,408.380058099552,489.750181661644,554.465865801257,561.081513171962,364.971457552243,488.585233984726,578.018361929894,635.861305058738,638.658436438378,769.598408245494,749.040543627978,-607.854763773997,700.331476706337,-978.584460699169,-1128.7145769352,413.617838370383,-440.309270797825,-856.288797819606,195.392036243121,-794.308361083515,-1492.48655315019,-835.81047431485,56.229188941158,-1504.97730284239,554.452785785696,-427.008974054062,-1653.55402011899,-505.782452832863,393.459586625447,-713.386418827865
1021.12981529126,1067.26453357432,-586.367642016239,974.055417639827,959.118712726756,876.891046369473,929.800262926684,969.820992474745,930.304005926164,923.55453789197,900.629586059393,965.15666268087,937.922577351946,931.185068364609,824.555292110332,985.561310734164,350.225144409713,637.692926006973,737.007811806455,289.918116309343,442.441934281669,159.310693156653,246.351229227402,445.699756395909,315.995387027653,373.079387230244,198.030542264354,292.221852245767,424.083951051612,253.339691034236,348.915912440384,438.76489101255,412.119650091343,222.940911486285,326.340146711137,401.648931345225,455.757135359843,440.219688367872,286.572039942961,392.584544258827,471.882462989181,521.324075152255,530.990858951342,667.60917070762,624.133003903619,-351.673710724475,565.110808554861,-536.961897274246,-993.931112561535,3.82776324951761,131.751555480041,-883.735114912095,631.817323083262,-211.891726318202,-1280.32464842964,-916.81245576594,654.47407797765,-1631.45140675513,1014.48630256069,368.656243450164,-1759.33933475069,-629.274678793476,876.805398529224,-1013.04801870183
813.478267836884,883.191856623024,940.934401864992,803.54928838908,802.785426020844,700.936102273619,768.379165038973,816.035894858415,760.45167153347,760.02567505773,742.702064391186,779.947614876755,762.903735383496,781.23697944506,695.364329031489,811.886422490932,342.520177903282,571.784723391269,612.310419809653,266.877955227053,400.391162307492,106.819067312696,199.706057028386,423.443700692361,239.226926794816,311.666747285276,131.503901638246,204.747914436121,339.933974369678,176.016002523761,264.647998540613,339.432710531959,317.659571682646,152.251777133918,244.077164898278,307.396554161192,346.40576747956,329.05333718637,212.849370221583,293.256707467365,353.567078344099,396.307032080231,399.694954879672,536.558432549697,483.672759865316,-146.028092588556,201.999703664547,-243.85098149872,-770.281421865723,-743.867366429401,438.960282919318,-970.738969811025,767.804740983457,109.794560665465,-1163.78661759554,-1122.70678799987,784.486380283287,-1920.9614357594,983.920546046702,582.931305104364,-2115.49238232608,-1196.29400357125,848.670285314603,-1723.12335015463
508.203344334982,591.184078834162,2128.15989013635,525.417209231036,545.924866351639,418.729534177978,491.166141342023,538.037449557075,465.186392238309,482.420213546134,470.98737570822,479.239351885589,472.472546908336,508.773311719563,431.279473026287,526.869940107492,226.922177600694,361.813898291896,405.708531856933,157.845994657787,259.981376113566,20.8347835185361,87.6706571972074,274.634822943581,111.591272712628,160.262619217082,28.7541271449194,66.7449689548916,157.979165019349,48.6657696389393,100.72287512527,140.108795533481,120.567630116477,42.4197178562836,93.080399914016,131.471755947343,142.113305795698,128.574609453101,83.5959888020071,121.696352716599,151.223783948845,181.133008742054,193.071070068319,305.425354383628,256.515486524966,21.208956386203,-20.6566712014549,-25.32204084993,-326.337947231203,-1152.34122092505,514.002533197186,-795.823364084527,700.614156355676,263.400140203469,-908.823678120412,-1122.53712316361,612.260968116443,-1953.68552067146,629.809085449795,378.727470258314,-2201.26366192319,-1663.38664913614,442.215274783283,-2138.69370170107
187.061349687275,251.25983954774,3130.60023193356,195.005127682293,228.556167640785,81.6813289299131,139.485466716402,175.253498392994,107.461321186038,138.238244017896,122.537864012887,114.453629235357,109.778738940943,136.150945902571,53.552411218682,130.684090007588,-11.7277254082293,16.315358231744,73.7566810223931,-70.5870596963623,-22.1926113097055,-130.813978127973,-103.910983116135,-8.34542984909656,-97.764737869085,-96.3335810249728,-142.059540512251,-135.915740477934,-113.490442573089,-151.527261524195,-142.19540991334,-139.117056159042,-172.716475609164,-120.232292201189,-125.669364056674,-122.946138072873,-143.982266154878,-163.466042556868,-103.298017948453,-117.704952487223,-121.348168883957,-111.357365720979,-68.0529351221192,-3.34514068907593,-48.3427035839995,122.962361213395,40.1495294074632,182.357144487273,227.128009002444,-995.939018744937,497.657862144936,-207.464675523676,596.935960612263,412.136128081324,-265.459112318965,-483.523094977611,490.906964950287,-1216.4089084823,362.872054295536,343.840271417765,-1494.17468462611,-1416.3895527145,258.476780677778,-1690.72013901124
-50.2736508507226,-15.5867382133567,4068.92961719519,-68.2832030604656,-34.5270853122613,-193.181177211485,-151.940030766745,-131.299469477,-182.311554960209,-150.49254440986,-168.814804171625,-177.389079721303,-190.825599072973,-196.348111741654,-271.184417161542,-210.594626047941,-238.870408220191,-294.965102671656,-241.138027865997,-309.565982582324,-308.370470794791,-303.461686902742,-295.616942515319,-277.536861967277,-319.240484670357,-351.750141444741,-325.838408566052,-343.702047614779,-363.814683465308,-350.446962909053,-365.512481589519,-381.538838016618,-433.245767262105,-282.125909423299,-332.277242714714,-362.081488145113,-399.425509747894,-424.122063013344,-283.010400887123,-336.745623035641,-367.285599917856,-372.894380007278,-301.886485494578,-285.124515771135,-328.769663188845,118.85512447137,72.5197123208618,254.325156525884,477.013147259979,-777.422160499476,387.696899101572,335.431856538821,446.881827744598,476.273115752196,479.171669492282,488.586978263717,446.172687441031,18.503561881216,267.215540573883,603.116920069924,-357.240376319777,-486.75639219786,483.566777467934,-670.672571084026
-156.951734835116,-131.60037176658,4907.34701495639,-187.897536650866,-161.963523917224,-323.55611109473,-282.296187685621,-272.279219833604,-324.939808737497,-289.62455365011,-303.975054233287,-320.205421621809,-328.132356791985,-364.630960470235,-431.225405709941,-362.026444477104,-341.951908683257,-436.512644117968,-382.972872587817,-429.349767990064,-437.404561505529,-401.012951908889,-391.173746000372,-382.504737138452,-440.953199321531,-480.568839310803,-422.953085365828,-463.011781729845,-486.718583907865,-447.843055952343,-477.475287719992,-494.802202787478,-550.228646176002,-372.311786645897,-440.754704186731,-489.680940345571,-525.150933839664,-539.555944117669,-384.121569647408,-452.847610870649,-503.498630970405,-513.565108139075,-445.001448460965,-457.831969832001,-487.515039285129,55.9035129571742,-146.158184215394,143.873686835281,256.417296855661,-858.846923643631,184.458088470424,370.017592261681,232.872829238148,346.679672477887,805.008675111203,1032.80374143581,319.66045961415,895.150064811568,149.488169511747,782.573207569711,482.142991125583,489.265772782626,694.485983630952,212.582539405821
-204.314841945653,-167.98419847517,5616.25216862366,-229.430432388485,-208.858153648791,-366.298206923766,-319.060736736209,-307.536115569638,-388.565195189565,-332.673086904397,-341.869809884838,-392.696247624355,-367.533599001417,-409.44344912455,-491.245767066877,-399.973797811375,-374.677336170473,-463.712066732824,-399.392663422816,-452.736548839323,-430.530875478089,-418.943642916888,-405.051536486248,-352.698410006546,-470.565261945295,-499.456997830116,-433.819596033688,-496.535443006472,-511.06722773361,-464.886384386223,-508.8388959585,-520.716516668467,-568.298927902847,-405.399103976733,-476.083630579274,-528.764326870891,-557.76339936555,-554.10571980546,-427.427648233341,-499.54815060845,-555.28584861296,-563.525304570487,-525.643575132901,-549.731591649319,-546.94308829111,0.46564109307749,-440.039942663983,-4.14344231258116,-134.297047113844,-1006.52222883303,13.2556573868626,64.0362690674815,61.6305168016102,133.736281180599,652.409310563269,935.057814431412,123.798844273052,1052.46086603601,-48.2246338741624,647.556949892719,797.256003197516,1004.86868234273,542.016258275689,651.283836780004
-302.609647126918,-252.771470105269,6207.0254470037,-308.753228218615,-288.060675531872,-435.347914299254,-389.067041828332,-370.476933601718,-474.042175253274,-397.138442573586,-403.947949199557,-492.319113535884,-431.992439284296,-454.973219213569,-556.46856902451,-462.466277765102,-432.661384385938,-505.181158701315,-429.891575210043,-485.072934020192,-423.649433680859,-438.219281550088,-426.108005490693,-322.612634797606,-500.443608482359,-519.210973729668,-444.036759350615,-527.48059605299,-532.725904159989,-493.633174476731,-542.709524651717,-552.910166148726,-594.824986041788,-445.262890517007,-521.990460784533,-568.550320599036,-595.120875659299,-583.154870972293,-478.131741568072,-555.290796883121,-599.79864521667,-606.19142238959,-600.255414883362,-629.819239762377,-598.035929850786,-25.2505335758889,-549.531216540395,-46.8567357051635,-322.404859855245,-947.773544295536,-17.3276785242197,-124.417820727865,24.5369859268248,54.8189152874291,445.26821592415,630.019029438901,22.2686878271521,908.493181285134,-167.720249981776,401.549065260002,835.486512206684,1118.9750920171,192.928579344975,826.542949758571
-443.435495869485,-391.408006696167,6728.96421336191,-427.650971078278,-409.871364081148,-530.058710726858,-490.586937853268,-471.81178593507,-563.216997033767,-486.910359334808,-498.151908584629,-590.385366585509,-516.142146297519,-522.963013308055,-619.363789676143,-539.643751563142,-486.117204052575,-567.444660824447,-483.298392690611,-530.738861140774,-456.417061858643,-472.874388932333,-471.691969407073,-330.263141716473,-536.333232127372,-565.10318504476,-469.789181788062,-569.204515605285,-561.261320227239,-532.617150852146,-577.885522008562,-594.190184200382,-634.772431076578,-483.347792719695,-572.010014104454,-615.347384729495,-642.335581229524,-637.79756840901,-522.404642700277,-606.047173940649,-653.33908684675,-659.796155954135,-663.983020939734,-703.809450076189,-671.094176678211,-4.0633007170121,-452.234856476829,17.1126508089051,-246.718305977913,-772.37253972427,67.092953749744,-60.8772131230755,86.5567545203097,175.202953248874,505.609468820774,470.551395256496,80.85687029553,911.933371712687,-113.595610448603,336.263049839802,867.719121339602,1101.96002780249,-14.9217647919903,933.166180199998
-560.544470967687,-517.585934742918,7342.00792137125,-529.952318716959,-519.761207358715,-595.948172815703,-567.821868172562,-555.534923826433,-618.027312994649,-553.049974109255,-574.097013042506,-646.056099768138,-571.729681132464,-574.122912950621,-650.423519357912,-582.397102545482,-490.834590793198,-603.580553551654,-516.717057367359,-551.918345351128,-493.103392688624,-498.301869254869,-512.180261838464,-349.737328537064,-549.219622750349,-597.526507670776,-485.168398219396,-590.505297909055,-571.973463635331,-540.957748858574,-584.370871067115,-612.654963573249,-647.922470276054,-489.570800919611,-584.726486472754,-632.80892797046,-664.785184025376,-673.268795875926,-528.669051311442,-616.393058664663,-691.723418293933,-702.436848881201,-697.322183369534,-750.029274307014,-738.125465316113,56.4346466991753,-348.055707820638,83.016005218524,-139.429490472152,-691.394232812846,153.006935133028,48.132964779801,134.760012289425,324.276504416979,710.564086544582,376.165114702375,159.635039296374,1010.78724418906,-33.6366671647333,403.974596328579,936.109142788471,984.128368517655,-71.7548136571073,933.543458006932
-642.515733804324,-604.309360730265,8168.95145265313,-602.258735673934,-592.605599997158,-637.589980414381,-618.990558285648,-613.423166100116,-662.892167414146,-599.561825452766,-623.063429447342,-688.741627596645,-615.546892781342,-609.154351294386,-672.395055600401,-617.220123264151,-488.815981329751,-624.54433819662,-550.641168326842,-567.401793864603,-525.697126189933,-533.215428533411,-543.316770850235,-380.288828726483,-570.215288850641,-605.53162373277,-500.682119336605,-600.253164346999,-576.231284706457,-534.832799616392,-575.054584448278,-609.516081178687,-632.096017282389,-481.368239573467,-571.621687757099,-620.021869773199,-661.189729376732,-675.856324226285,-518.74353370822,-603.822480425703,-693.015031986494,-711.289712693437,-694.934842673568,-749.385171326499,-755.845275763437,102.957086824278,-409.032716344066,75.3248207684218,-189.204597482647,-701.466089210582,158.056383267788,55.3122378029494,95.9843002779586,325.756470619802,788.159250096511,198.131526614329,102.534165460689,962.091553260688,-115.176494020813,367.416916796734,937.628472525634,707.811417359273,-185.345293065236,813.179963027089
-671.527874582546,-627.263543880794,9039.61955225846,-622.514900883321,-604.846568804219,-647.383281719972,-627.548897874342,-627.45502683967,-679.799093567413,-615.183673559072,-628.518657736801,-708.936990056795,-634.489150122511,-614.575674491494,-671.445117977198,-635.905205045159,-487.934771562041,-624.678713008965,-567.548681022604,-571.536714453767,-528.348023078221,-564.359229005286,-542.36133042383,-385.665581732657,-593.776213302448,-573.810524337997,-500.7533130077,-591.196331966536,-549.559227401093,-516.300097924975,-540.470180194338,-559.524861512532,-572.752250866083,-456.144251513782,-532.243715500865,-565.104842496603,-604.629105700622,-621.310075359163,-489.543757790377,-559.025899074725,-626.939822980863,-650.20948403,-629.465332866054,-668.012031436145,-681.581648092538,120.839390251454,-574.184838878987,48.7141763650084,-313.480346385799,-594.437921510867,105.653389953039,44.695783192989,8.13048427353342,240.544146337188,717.831692657811,45.8124773476546,-33.1242102800172,796.943385467521,-306.771385454185,229.190660859928,882.204401880422,448.940737486192,-357.090866019548,777.802078788066
-615.67649901802,-570.389489817305,9680.69459973735,-562.177453784534,-542.637217379912,-586.105439398011,-561.951376442374,-568.891679985951,-617.454614879065,-561.558864819446,-563.731701428702,-659.250731105069,-576.875914327056,-554.354826993437,-605.220774833234,-579.543075409983,-435.506304993405,-562.116238787,-495.285871590926,-517.760555755374,-455.403025029119,-531.515097071614,-477.539364806828,-309.568273241719,-551.952320496385,-482.647004933237,-446.476619465297,-526.053748897154,-451.095075104973,-453.411132291514,-450.178377724619,-436.71920596502,-452.44839655493,-389.851252082719,-446.829737701694,-454.193935742175,-471.33686352167,-493.320174440771,-411.553484089388,-452.593448397113,-495.321507430293,-516.323306430792,-494.904856764429,-512.524343030724,-528.387598928717,159.685291681265,-635.854593089772,115.913983143003,-311.24579951875,-252.352397554363,59.8056664013245,137.140741300069,-51.4774094993256,234.815461840523,674.148706599837,93.8375765666028,-80.7631674044467,741.389673468584,-408.455929425632,172.405824195109,911.24611534726,475.281037524935,-412.981782934038,996.509948660613
-504.450738994087,-473.740381046661,10056.6950940243,-453.505996996298,-441.666190957349,-468.597281744132,-450.469559012097,-464.43504392627,-496.647572949338,-448.928085261472,-448.411315345298,-551.289704872659,-455.601245837777,-438.267707489809,-485.515886721108,-453.729447053386,-325.782530260892,-439.565714635274,-338.379870487795,-406.174884379851,-323.417377317937,-425.777859140438,-366.334633221479,-173.071526366782,-429.057703301576,-355.936139275537,-352.0831163029,-407.262952402605,-310.619551704589,-351.831341458686,-323.399208359727,-284.748036459933,-303.38618581934,-301.022883334624,-334.274644022481,-318.508994608075,-308.507182452997,-333.546973099312,-306.407652842343,-314.484769814453,-345.533827061623,-354.768100192412,-334.142378677982,-337.083235886586,-354.808251706348,241.052532514387,-454.930166834129,308.482125530333,-79.2628183138997,206.976560536774,16.142484030511,347.016739650713,-83.6605512995595,335.965479143502,759.008165571994,308.773226663187,-10.9993243313881,846.175202931794,-339.099420591222,237.620217065267,1061.53631431731,786.235909157567,-304.134154717776,1339.75848727263
-374.819733057164,-366.622307142387,10267.7055785103,-334.260541318479,-327.839056637063,-335.264148722941,-327.935835635069,-342.879643994431,-362.500426977399,-311.908195082254,-313.147123840167,-419.507436365359,-318.578010730155,-297.601750022028,-341.233750627576,-316.949244342508,-193.159089429211,-292.154206438099,-183.439454648269,-273.422619129563,-185.887846076521,-286.05725986912,-240.715688688064,-38.9139881359933,-273.750231974115,-225.389315795132,-249.856690369035,-266.257301992179,-178.064747511577,-239.85356850124,-197.827449657905,-151.989079361611,-164.798609886996,-213.338360196577,-219.083933223788,-186.555391050031,-164.225320169728,-181.75820076026,-207.362937244649,-186.775947077477,-199.931529991128,-193.130874368176,-174.506802329609,-162.926949305277,-181.58880295647,318.272720309525,-48.4072973095976,548.216021409939,346.682018509358,617.859922706542,-57.0606138300713,635.619521477104,-149.146617207508,457.998761666025,932.67353005686,545.449206979898,87.8709029900416,942.220243261564,-171.470140919329,359.022929253599,1201.83503357686,1095.31379088225,-94.0202388921806,1524.61763546029
-239.759984339866,-252.700391306674,10377.3141077698,-216.445913742572,-210.403090608937,-213.936286409667,-209.478453342127,-220.862336769728,-241.841466552389,-191.041319576213,-188.708927836494,-297.236452547253,-207.047035625274,-172.453994267608,-210.020190029227,-226.148351201987,-83.5006223483054,-171.720151528892,-116.422924926254,-173.381072981654,-94.561770912518,-170.734966623777,-143.331834660823,40.7594885411715,-159.054900641691,-129.82604256276,-170.409676307436,-155.667982436443,-88.3300871664778,-154.956135665147,-108.965224864376,-62.5430632325176,-71.1796089127702,-141.64461350957,-127.687193148906,-84.7075234005009,-62.7263652396372,-64.6998948495636,-130.71748106428,-91.8434288465515,-76.0588619775436,-62.3779583185936,-43.0002467505027,-15.0345590916914,-32.1869460996055,329.735502184585,412.57393294737,705.383145307868,791.812410425213,904.803390060525,-124.674491536929,919.318044690478,-281.584957100258,499.552371498589,1073.97053534401,748.345155206993,136.052618056487,920.658509472837,-35.6614724135758,480.742491840221,1198.1340292642,1138.32018504256,153.350681952609,1396.68692821852
-148.779061413037,-172.525616171237,10521.1967066978,-139.733392456463,-135.256165733353,-148.035892405834,-141.267410646028,-150.287985561989,-183.267799890289,-144.357186400839,-129.591244345737,-245.075402229746,-169.827561330358,-123.843601665061,-164.483620974955,-222.130066487845,-57.1710837230479,-145.002338634031,-164.273188049828,-167.726434909229,-96.128384826933,-153.282180210467,-136.418140983863,26.4232345987381,-156.787369265912,-129.891794839663,-161.044470359687,-145.43042951495,-83.8378843717673,-146.947927850871,-102.402143391331,-52.8230786497013,-63.4795790777432,-125.253212464452,-109.493072929308,-62.0821006124238,-39.2710680811613,-26.6068131640676,-109.611378219265,-64.5867004595373,-26.7067213834862,-16.0093057446841,8.54848701572644,44.6269376893199,29.4064110535302,276.322971879505,732.421723313037,719.440612919755,1062.61024188168,1043.46019263294,-123.782938007877,1103.38711736674,-434.269940848901,409.44885632241,1105.91366477417,943.174825132308,92.8363361906666,879.376798113775,-36.1568226895501,475.560786883518,1049.39735761079,935.365784389055,316.623391300086,1062.25261521782
-149.200371258842,-166.585315845754,11994.6085655932,-142.564278447087,-139.919289519026,-164.125660160404,-157.825957809782,-167.505524725087,-215.712653678251,-187.778731248622,-161.709134310894,-287.896412886951,-216.839249267477,-171.905355697517,-218.287302125452,-284.128971436487,-117.500260527021,-209.374085846925,-261.26707908522,-241.879198765001,-167.995264970739,-233.140245500855,-212.00013259582,-63.5926454719171,-250.900755532944,-216.85199114212,-217.494659744731,-225.703754573518,-156.102333205876,-206.685032493088,-167.481423593104,-116.261883032495,-125.626993346421,-173.833228070335,-166.421409007392,-114.497159272547,-84.8098128780996,-63.1176289193088,-151.065171883049,-105.686867619745,-58.0425993033556,-45.3729916724248,-16.8961892265418,22.3763937439303,3.3886949512623,203.816822380789,870.25243813845,635.232544953961,1122.45101638449,1071.82935292197,-89.0726580664255,1190.3232054775,-515.551225327698,245.311273496147,1090.54371456826,1132.00803627113,-34.9976602612863,949.057992433159,-175.57354784922,199.522333182023,868.565691218581,749.097745471441,246.607862746002,806.59626843262
-208.631596788456,-213.497430376347,19298.0544220004,-200.84855098178,-199.755441470606,-225.868215875488,-222.997604035911,-241.259536177917,-290.197821252198,-270.53510242702,-249.16748432379,-364.003087906641,-293.329612132153,-269.54983438716,-275.956558834747,-324.396315373636,-180.911489512621,-267.522287251293,-301.907898632383,-298.775853355843,-212.101427987306,-306.388904110953,-273.435190445037,-144.436027568284,-321.014728125398,-290.410976904588,-264.483802408109,-291.641020260228,-225.0622274325,-256.814293761878,-222.366544997096,-179.899303703998,-184.509071252729,-230.543288522251,-227.612379599732,-168.04391945021,-133.876727674691,-104.896664324917,-202.573070098693,-153.912488288257,-100.618728744979,-79.5455300561074,-53.2676710073782,-3.0514358243664,-28.8310344812742,92.5038055619903,861.489781398766,450.758413341374,1003.73318703026,1067.12550352003,-152.519237189091,1199.04615275779,-518.932652337774,70.0334606132489,1062.91814222699,1233.79793206754,-221.106566196415,1060.60257578207,-372.830543626157,-268.595798002097,754.767883990038,750.965292855828,-33.2742579024605,790.102473336477
-224.899752902481,-225.620569663867,34270.4285449338,-224.884408847473,-231.635169260822,-239.308549364916,-241.677166606534,-279.590863867165,-302.303694365899,-304.39882765303,-305.427615795071,-364.183327707976,-308.251581144073,-328.163486246373,-229.067056672448,-244.555457673134,-151.324221928083,-217.564237543992,-219.425270457683,-254.980854125278,-145.983975085411,-278.079959042133,-239.175662329813,-121.233522830344,-273.226045494851,-267.260340374572,-234.430409318865,-262.48495795374,-216.066679200451,-230.529226678659,-197.343315417539,-173.941285095724,-175.10529504039,-223.635589405453,-216.867318205875,-154.959980001565,-122.669995100754,-80.8880379890041,-197.325945844147,-142.875726685383,-84.8849449998471,-57.0186300235476,-45.5182045938755,21.3126130225309,1.67002704854407,-100.539606507948,641.114646766208,112.933931673095,671.05365320049,1036.84851641772,-343.981545929324,1012.34301372602,-512.516796199718,-127.109808083998,844.133159391804,1102.66570721912,-407.546274133609,959.683742057002,-514.44199325186,-588.041683800515,687.676798658335,823.849818149004,-256.158754629723,880.312732126067
-148.554763703371,-143.994268791162,45503.3305130318,-160.906982438702,-181.086568684099,-157.984004168083,-163.536523696686,-221.230533117681,-213.366043748293,-248.658768738646,-274.838560039594,-259.52003509459,-226.741982082069,-299.309116200197,-96.7164830090626,-54.3618615794529,-38.5559961628605,-82.7554470455038,-52.462855278959,-140.940860728342,-9.87680904577979,-182.651967030623,-156.041525798504,-10.9148873447518,-168.752875832513,-196.440937974655,-153.674098586165,-186.713990464197,-164.62103612187,-152.871511290334,-126.78019410483,-122.027861887753,-104.520643293233,-157.159635595439,-146.937361153733,-95.1155413457163,-57.2197764991027,11.8600451468776,-139.868293948824,-86.2866485412363,-25.0248897824276,17.4961439201368,-8.73733571486977,72.9293710630732,80.2441514323723,-339.638314777364,82.9955870852697,-317.283343063726,88.6333428645432,876.665142340147,-562.78499044788,423.678283054358,-546.079000548169,-365.55902482487,166.405898256679,589.243743633053,-511.330600946495,384.903519812426,-543.312155480701,-559.183087171412,480.923815869895,698.467708125588,-236.102012544485,811.697044552569
-77.4994398165192,-50.1076330941563,41058.998526614,-93.7190887818395,-122.355406634906,-81.9461697204797,-81.0383037197938,-147.102753323518,-136.523024122554,-196.542004525408,-237.750365277143,-182.11993173807,-157.929530953211,-265.132891600247,-38.286191443427,66.2462586989415,21.5532692635601,-26.4792165264902,43.1325661427913,-93.163541038151,34.8999949988281,-148.527812586788,-170.943748559831,13.8782366143978,-152.286175094794,-230.142831122656,-135.830706786747,-199.609744489788,-207.770246357268,-138.457915716813,-139.07406689594,-148.667619966859,-86.6725423434531,-134.172393084449,-135.621085622069,-102.775523858417,-49.4749636323404,59.372300625417,-129.421851405621,-92.5398510263717,-33.6226090786174,39.2222288337517,-34.9450754097319,58.0593431721605,98.0124414625603,-587.807091716699,-775.955035885767,-715.80621018973,-677.856107203228,467.938136121818,-779.890460231632,-584.860997463236,-667.505516678955,-664.777397530886,-946.781472971138,-305.610730747909,-568.637815424955,-675.545592592822,-555.266750833236,-464.493656629523,-79.0560967543435,133.570864026118,-170.216361672544,369.637511034766
-111.774908733768,-53.9372060962769,28917.5098828293,-120.384867458767,-146.030652240574,-117.901262266415,-102.85615291273,-166.933853655361,-178.883572057958,-248.168794346634,-298.436792663926,-249.210231329126,-217.131726730521,-322.912585892464,-146.892806418162,-36.610912159165,-38.4848728777693,-146.767212619317,-38.0991070696002,-168.392551830474,-89.680474949351,-212.575468682796,-316.083771205433,-130.711098736422,-235.057445180296,-394.879488076907,-228.157147256875,-326.485646855535,-369.950059393324,-235.800716240732,-272.438221315196,-293.540671155731,-201.151713097794,-213.58829628268,-239.397113250812,-225.170724472013,-173.756792598045,-46.4233298711029,-220.000582194621,-212.366128976036,-171.101157515699,-76.9612881812667,-175.279477551908,-76.1173649878115,-20.3015292399395,-819.338254803586,-1553.45710952526,-1019.11855210258,-1372.48260474725,-125.723030283337,-972.133993133133,-1553.98546402247,-827.83120366714,-998.125275923622,-1946.52465430778,-1206.63809055997,-694.017564061323,-1749.49936407326,-643.080359442955,-677.302476728841,-930.448159743348,-875.7616141203,-336.697656974444,-474.163423942343
-211.042790349423,-137.325566824876,22023.6404018383,-205.355872325493,-220.418605026256,-231.453576565395,-202.258985810176,-257.653939810708,-294.89530002689,-364.959801786207,-424.487549140644,-409.414529240756,-368.154053313172,-444.167071214657,-346.219445934964,-326.393096457392,-129.927682539071,-381.970351685221,-250.963912954665,-286.867311382408,-307.560220358175,-299.090440989427,-480.743767041874,-318.430430414256,-306.009179879734,-551.105897800876,-354.311206031681,-450.158023367223,-514.803054447833,-361.549268829242,-414.321444837023,-437.338750128823,-364.268588930738,-329.469266804078,-371.446135947848,-369.809999939496,-348.296484454327,-251.781633316219,-344.467931983148,-362.51192580678,-346.665224672886,-268.666295685867,-359.961655255096,-259.863277514603,-214.056043933574,-912.679750871218,-1789.50161034117,-1159.19085194558,-1647.14039222198,-647.678726046648,-961.745920814283,-1863.04645822979,-805.183093594417,-1192.95149399161,-2236.36437215643,-1573.18887979025,-816.136883489836,-2228.53621527371,-709.410278077605,-1069.93074954276,-1743.06049632623,-1929.99529366361,-661.313505098096,-1463.43645011857
-319.048080839228,-238.200816953953,18166.0844374561,-293.308822235944,-297.232144321239,-364.393469644784,-319.295557747436,-360.855325012041,-424.124062942099,-485.838478140937,-547.058832072459,-587.464224816971,-543.378137307497,-583.134563035267,-574.536042951895,-726.760239950205,-203.412279044946,-699.60393433482,-582.242960186997,-422.784173995697,-622.543895510317,-379.02565577252,-653.029751520653,-520.121528437714,-355.462482699223,-672.128958303684,-449.113405141221,-524.044946695389,-606.103587511688,-451.904636116367,-507.498081204971,-529.642796662393,-491.058659553096,-418.712277716235,-467.651181315696,-479.46739437464,-490.251557828639,-445.282096255818,-441.318516088157,-480.377739374801,-479.179501806102,-439.691190358749,-511.019014031279,-416.199035729161,-399.339113547384,-746.937095338811,-1507.80577877396,-1050.53709434463,-1486.01271845139,-911.129886543666,-632.073263682785,-1493.39241857799,-468.835323622099,-1055.85837940795,-1890.44213814103,-1320.51265122864,-708.233172257511,-2047.59834203719,-615.83699277202,-1174.17764564722,-2189.86422662904,-2474.133435358,-835.94264126103,-2162.58402630004
-454.307578848823,-352.618499801014,11714.9721343743,-408.338090626207,-400.950947381256,-532.336554864039,-468.111158791788,-488.4889175391,-596.948883128747,-632.098981772626,-675.634545251083,-795.08073949239,-757.397981218717,-764.497146428835,-865.535177896449,-1221.52378726805,-309.918581525745,-1127.2969180331,-1108.98596978901,-614.202693321328,-1118.50616552103,-461.016291347153,-893.422565338752,-895.686585562239,-460.004821924271,-859.152542945105,-502.407864339124,-604.155246625388,-749.465580996108,-520.329569819887,-605.023767754856,-655.405572598733,-623.163948499117,-478.244349147946,-549.456167875433,-592.774863594158,-625.435493083381,-610.657030447806,-511.588742966233,-586.72146933645,-599.325521393018,-587.42822633825,-627.303394223419,-553.033008693224,-570.649163198855,-387.378413880468,-1193.95019425639,-730.673897037923,-1311.74149102662,-932.980950709664,-145.725392789922,-1015.13678042618,0.614590436493899,-630.417170030087,-1417.2876238465,-850.40931004958,-338.447671646381,-1549.80033298334,-397.905846936451,-827.988207614243,-2029.94287828135,-2229.79883749654,-719.375516688146,-2199.01755275948
-618.450290028685,-487.356412489812,5023.54558013179,-564.940225348201,-540.270930615907,-735.447775103116,-659.781500351627,-644.174393375068,-817.311188198294,-809.549264006851,-813.868663981463,-1017.22025443143,-998.084572025812,-971.943926278262,-1175.94945592884,-1688.53915972566,-439.40412663553,-1512.42594677132,-1708.35930931581,-768.519555878983,-1611.20077768527,-496.674541569982,-1068.22133182246,-1393.60853005222,-586.827345828355,-1045.72852055178,-500.352176068407,-679.255741844071,-948.756470022567,-566.463754315036,-710.745611637552,-833.987042583995,-799.23492653088,-499.97730366445,-617.183932806299,-717.407280313401,-781.838847857435,-780.048299832093,-552.587377282773,-683.715611486261,-735.60991121407,-743.531620711488,-731.962692400136,-700.831163371377,-750.164708877394,-41.6336083705052,-1176.96242491157,-373.912746507527,-1418.59408870449,-820.283023412149,227.406438718696,-789.12121427386,300.082541373362,-189.950710182343,-1000.63737515697,-459.864794061789,20.6797195806166,-889.146461716703,-240.221487413613,-369.083550681298,-1245.94078802053,-1336.74309841445,-496.727349498783,-1502.76971777841
-775.243596354309,-627.032053347934,617.312534559457,-718.501430956206,-668.804993498757,-912.92429288808,-838.195144494854,-778.329334802437,-997.647520108445,-944.709685882334,-901.657499770373,-1155.50638127169,-1157.26956276697,-1100.92161708302,-1332.41560368733,-1860.38865620323,-510.119766027262,-1546.82182396001,-1965.78423743025,-724.227636310697,-1681.50424398058,-446.655501990558,-964.691583398131,-1610.27356820523,-629.28061606253,-1032.38346477996,-451.994737177239,-684.85840719302,-1068.36200999663,-575.468270310576,-769.696972561406,-975.073541790567,-966.880009067362,-486.453824874658,-651.400815843375,-812.080652878005,-923.863645897253,-942.299153620874,-560.722521415189,-743.817022459088,-859.658076024118,-896.760046672706,-830.155861216162,-855.3363457123,-929.227910807795,144.709143125005,-1310.29675268229,-103.682903301837,-1550.132728674,-650.897835785233,392.944812549373,-677.411265426884,325.678590819859,72.390002482941,-513.348025345466,-158.074432496135,124.214242734284,-114.11780988169,-270.498487671409,-171.830387568333,-248.98009202608,-232.528949171308,-453.228530605291,-419.531624794542
-904.512167596924,-750.932012683391,-3159.57552363239,-820.335323899736,-744.793077415008,-1008.2779459805,-930.692389924148,-840.923563301769,-1054.94209410131,-963.515410685602,-883.338776004455,-1148.07926912215,-1142.37333835032,-1067.5729187246,-1249.07018687653,-1614.9629926112,-519.335205581184,-1180.87221687714,-1626.05072546662,-525.016679328223,-1224.741701656,-373.106866149565,-651.875494632088,-1270.1052443171,-583.597862495935,-800.149438839677,-417.704847041768,-623.328727140546,-1014.72145196794,-562.70245675019,-757.690909474319,-989.413860099049,-1021.15439019735,-475.245888489838,-655.609671164049,-839.203582092208,-975.927141935545,-1018.97063331333,-554.725465087058,-752.778975712454,-920.863374334104,-982.269247628465,-895.29777810607,-966.735428564583,-1045.22481099726,201.220925623211,-1244.08302110563,116.924382732345,-1261.28801612616,-433.389784694634,469.479796007682,-457.868406755547,241.901079730524,228.191031913399,22.973628000757,61.4077652326275,52.5452448736052,540.153319734162,-395.541203165882,-207.238477379943,452.178697344397,631.472728333304,-617.920086079873,511.775529871245
-1002.35404216676,-848.613945007638,-7173.11060572184,-865.446200624395,-771.337598796894,-1023.26575519075,-929.641480337118,-830.937977803795,-1004.14161644919,-883.382205117155,-782.886851305701,-1059.45394515566,-998.441366660804,-909.398657729253,-1072.87233013529,-1177.27082260381,-566.578019532205,-769.620475430232,-980.845239816806,-410.520212610382,-658.281845382504,-384.979136061572,-416.722499560255,-631.234074172125,-531.541682840824,-521.968656666991,-439.914713425464,-530.587049224795,-816.618832431333,-538.915879744696,-674.775758077128,-853.063952167783,-896.452033599748,-482.699558709051,-625.197916217224,-772.738110394372,-883.549905226939,-935.566160952016,-543.647931936713,-703.532334782964,-871.153238893087,-933.674646034736,-877.305614519018,-968.979462835237,-1024.98491543222,232.881553836335,-879.030316543858,343.558157396282,-551.204798549682,-188.864474601921,557.371336974873,-127.055658617742,222.431570128863,401.266429680148,440.177215710568,142.936866411087,13.0915557068542,868.272841121258,-444.508475777077,-226.605519857003,759.143388129352,1039.6108219449,-790.931103451222,946.920053378768
-1060.35769600549,-921.518920433673,-10409.2660377602,-881.003485562997,-782.172340134818,-989.465035049886,-887.380344033428,-793.18152349317,-917.982598826439,-787.75894685332,-691.216785521625,-973.995431740383,-850.602274177854,-750.065425730156,-963.400179701106,-852.994833419837,-676.360515517011,-596.561407838693,-541.101131360681,-462.44525369535,-377.191491391529,-450.914125547288,-338.916433469482,-158.541408306096,-448.948275568569,-286.383618234417,-446.804528556244,-380.374310251999,-538.00706998848,-459.952378122707,-510.7965055635,-620.368490097861,-669.584679511835,-458.173631251156,-531.576271527839,-614.956115646718,-686.45294905466,-740.846418732241,-496.804899635144,-590.799122255616,-712.641788620412,-770.584798402238,-760.142508257817,-854.630651460642,-886.061407028938,274.300147938126,-494.033205657771,517.568616164864,123.705799395066,-51.0575598136194,581.230461216461,159.814740371413,228.726405704539,528.242107181056,652.173430007553,107.203833355265,5.45495803863009,909.147008656716,-412.730856309653,-196.111493688446,847.668911461581,998.100678150266,-887.012851227168,874.531109617483
-1058.79307818289,-951.882132060776,-13002.6209364982,-869.455836286048,-783.384693240726,-910.039005038705,-822.752573215505,-749.041869042221,-816.059832186382,-706.626814188738,-646.77816040787,-864.337256377346,-730.786222870215,-644.116213187261,-849.033209280959,-653.185597615869,-745.892228013009,-491.895241087798,-432.724730603462,-501.775846523939,-273.908049768589,-388.924771910367,-217.374455846277,32.6417160299789,-210.921238122269,-23.7104140847265,-307.979000811675,-124.194570122198,-202.944885391204,-271.571478483688,-263.165364629654,-361.426709825475,-468.176145858484,-335.883099921688,-351.901048566098,-397.690511737089,-470.206312600386,-552.030340126173,-371.886579082692,-416.887681789994,-502.917835323305,-576.01038260399,-584.002337746716,-684.26899731425,-716.442115439567,300.110923964239,-380.534778836319,560.366404145791,436.311928863014,-144.688103388465,447.690528334128,257.824465957162,152.519014632474,476.122740176297,664.234815533335,43.4459938614101,-73.1495231868759,797.556931940521,-371.512632208568,-249.391871931686,783.807816853983,646.095997259609,-964.998952762829,505.491977816471
-983.008427933009,-903.151989672335,-15132.9996287695,-795.571438392645,-727.085697232278,-781.230922996386,-705.775394785759,-659.346234998032,-668.613562324243,-585.505242495942,-563.614851642844,-680.363561777313,-566.956329232081,-508.535529830504,-616.905748611757,-400.5411053571,-773.891166171843,-215.18144841001,-394.31688581715,-460.332610519142,-97.7239061807011,-205.821124911597,13.8251005883258,99.1399174630403,103.727627398483,264.395107735308,-76.8028036903162,159.249151004175,148.861796272088,-39.6814023864835,8.76878375931738,-96.574268262729,-276.470943233228,-162.243209487026,-130.601562546197,-162.768446821748,-255.718507577844,-377.576504488586,-204.657056594698,-214.947195984115,-290.197800094826,-382.340281011827,-397.173768884844,-507.765852067795,-544.063723451399,304.805849718136,-449.340770647462,495.138850446916,499.624984127353,-339.116016051795,237.336938675122,198.017353116552,40.8254784609575,282.219358209164,546.624522499769,-7.47456131943898,-158.031167408541,653.607958572628,-272.27468998302,-329.29624115333,622.166553479069,256.439259701295,-954.60787683216,155.870389659256
-838.418249130648,-768.906545770665,-13841.6105965809,-640.543260600343,-575.993819515693,-624.969301612235,-529.977200722921,-488.760897412737,-477.040113434654,-381.460917218092,-348.394188032319,-463.935830098926,-331.076536559087,-258.081535389937,-355.181183629042,-76.0577069826506,-857.808449141019,114.724068011866,-231.64257796639,-462.359359802275,84.4685400639338,-148.206361513327,175.769051313173,124.259395161172,209.523326172026,442.74122746301,12.8913726754143,296.118457312,425.595748105038,74.9397455572546,198.673557324046,160.914229987168,-8.89722698632366,-71.1997108415931,27.3007119940111,40.8155107505872,-22.8782033879436,-142.317728697279,-95.6019719492032,-49.1624107744242,-90.4116523696352,-167.442532851558,-222.242860692117,-329.187020777572,-333.066390691463,319.784646816394,-354.54989744527,423.948713996944,581.469788791671,-286.183127649775,136.535859955286,218.213327026689,36.4306626526206,150.447509593947,474.599622578308,0.0350617728157161,-87.4431602154411,642.283842873589,-41.0725554895337,-195.767966636798,610.013365228642,136.512354183552,-661.278382878208,112.127063110596
-648.493626278049,-592.2561129298,-7218.81390163248,-440.49114303345,-374.815381354868,-455.305620894242,-329.882367294103,-272.64985703013,-269.214309140159,-131.815089737686,-54.7328893571896,-261.319353243134,-75.3177938750451,56.85202409269,-158.99990944291,219.865711249172,-869.671550740811,343.53058149568,55.6508227568361,-401.571665365006,245.279140976691,-204.360667261507,288.354695849898,221.072530728369,94.8514633931961,509.094627766775,-68.0169035339183,267.271598259663,576.647290625777,48.6238523609284,266.749938741966,354.546797596812,267.574684117072,-78.4043718628114,82.6554490815878,172.628361045904,185.651442498197,115.91309560848,-61.604670659572,50.1679252129622,69.8201098816815,36.2640524424745,-79.7265931492706,-164.070209086426,-116.165532889539,353.079537259264,13.2717909418813,406.199324242016,746.758376643568,138.708859351507,209.383761077672,469.642038230473,151.329741372638,206.187017013237,578.433424289242,147.695442170907,140.596568347682,852.245282986288,238.120499115782,199.894667031942,890.576354664925,355.136622418182,-104.095546252052,389.681042978471
-457.398973475512,-435.043035711628,-1593.72779278448,-262.185092578832,-213.618051027309,-275.535680066336,-146.807001690265,-89.854626368113,-64.4459010356849,83.1105337347387,166.96885389699,-54.528201185288,147.598881582149,309.685499326881,58.9615195315396,488.572722892978,-539.826263305647,594.745122170191,463.363648642568,-1.52916379278867,672.106744580245,-34.480030815044,593.068506121251,626.531723799882,85.4454862621379,625.25985418594,-66.6286114994591,230.826301386539,653.174922286862,35.4792097914403,275.387712833736,439.175885472193,392.691546096153,-63.3184564282816,101.658301593847,231.478539357245,285.790258222566,248.352515085306,-24.5093564685,110.804580216953,148.157740270401,137.769020743993,-3.28523410822682,-67.7233377448311,-2.21086655292275,331.334755929491,363.33501392547,376.440186367011,841.737212944622,600.061496606494,304.092717301352,748.542693544647,223.999798634587,324.472622594989,720.140014877434,373.561015260085,326.116945332452,1071.1381611827,376.046011049179,563.666809308545,1162.40181018812,618.173567652214,366.757859975732,641.861673762398
-311.538403521326,-330.450715306405,-4297.52417315295,-146.695178287544,-126.648609776391,-112.132415824114,-11.6424587272031,15.2914218235926,105.014934230372,211.315924811814,253.46097295954,145.949997257059,303.950969879059,438.364998549476,342.859536776151,731.990209259996,64.5059826667519,897.165292213563,938.182207551679,585.999531694747,1334.52916023915,403.631971714104,977.902293313999,1292.80919478815,280.333934947406,772.655618286153,123.502145128029,254.76706660045,700.922150830979,117.886825072415,281.801171947653,440.535712821063,364.234006991652,24.8378938050259,137.28186564679,249.657837079576,278.003576341175,226.342629861666,46.9583306131922,156.334687904298,151.257327150839,126.369235513317,7.69547714006919,-52.8715718255842,-9.64040809666217,184.242163008916,418.437106236566,241.551566191466,734.810910829042,746.531582473141,246.927175153545,761.216008012284,138.920503929567,293.782943077515,639.794237738962,474.081646532005,293.849643517409,954.303024388407,289.938439428462,583.459269897184,1000.93492905274,554.558848645046,433.445506176591,496.208608358615
-213.671210277473,-253.168545495937,-11518.1888869416,-75.2843898456782,-64.5372229929605,7.08611855550194,70.3922508414272,71.2159231416764,201.010283274214,262.002473976811,276.064348526029,272.143536737663,371.178442520467,475.518545228684,543.284479653102,824.684864011762,535.241201498606,1000.85548427336,1243.84949722857,866.341628440005,1648.71941125224,720.29358063106,1029.71126507144,1724.63348074437,415.084921763565,757.566114395975,317.125705324899,267.671638911571,677.19607748273,218.189022149441,286.865416675577,423.758482613437,349.934264967673,127.504561117994,183.997620912135,266.280532787652,267.504735239929,212.034675258233,120.447094818705,191.760999083564,160.764244573864,123.939548147782,26.4959650526474,-29.2223497483549,-5.41241450799688,-12.0003515298558,278.991707399968,44.5557885390695,491.904074265588,672.250871826008,78.8011749296672,543.430847487129,-13.393797491931,114.502684270458,326.245869281268,379.204378211278,101.504821665815,465.371707175161,101.696945194149,307.752194807568,440.019553350228,123.151709493033,183.234821448332,-12.8092861502051
-123.155080003884,-152.810468269954,-15663.5959029523,-0.673738275067576,25.332173288202,86.4883530224449,125.876387134737,132.954868168561,232.54680551648,282.973616368188,313.508214779868,299.822359034118,364.516420789177,476.176735126266,547.140900822632,702.649760147651,639.442794221229,807.621205314098,1182.53827039254,718.177490682496,1336.33360491631,712.351077214709,729.369386278337,1573.24465390025,356.350045187834,586.863229614375,379.357084895825,253.618104213442,562.01411650295,273.669315681182,293.789277573329,426.901752661464,445.704653676964,208.64911717772,237.628375068239,306.620945896723,329.31466099479,326.394961638719,186.791874484176,235.383115900024,239.802256072272,228.34973750712,118.122911174807,82.1385746956266,113.083059499937,-102.395663293751,204.122130935247,-68.1009932638793,283.068516634167,649.515397734185,-16.5564565302269,342.316417077104,-79.5368373378911,-10.9263783380389,20.9951976542842,200.598259494,-45.2670151175467,-73.6019235217167,-6.31438328719405,56.4537100537066,-77.3642632308213,-372.220560436837,-40.8414308076599,-500.862564380108
-6.56663322173187,-17.4605208443974,-17206.7408692676,95.5961442609149,136.343037952011,150.016178378961,184.745198251555,214.679726207333,250.217653837493,309.2264899473,370.974260045687,286.521144386984,334.778405697752,466.527617599599,443.677281794745,499.740352815866,537.456768662033,546.498369982985,873.53202067488,491.517446051102,839.27391954478,587.773654803054,475.617103145124,1085.84342584218,292.691172492982,457.115320699774,393.215222755654,285.834297376526,444.807635251122,323.84516268639,326.750767025309,446.566671548576,569.721119714027,285.405966542955,308.227695522678,367.286886850181,424.702915422357,487.072714052804,261.847467720644,298.373913837214,351.882164817111,380.25511862891,247.703551662056,231.850072030256,279.581281314738,-54.2211949057367,232.815826555752,-29.5796849235634,187.819844867363,667.151189227188,24.4593870767028,237.045932592541,-51.9870585868236,27.0646955445786,-112.057706401453,29.2697065811553,-54.3712478100366,-366.571448160743,2.32664746325592,5.83079739651044,-264.017474604046,-638.830020860093,-71.8507164272658,-682.897149393561
137.527340197167,130.47518709861,-18745.4711796196,206.142611361379,246.046166688284,225.914188835847,261.592646618243,301.691310121777,294.857091641469,353.007606952623,435.773422287623,303.316905859499,334.679831304064,465.979934631604,387.493706433628,386.389805025309,475.264378817495,436.836613480926,609.588719311644,457.505413703678,623.439809093488,537.234216889482,478.169281038039,725.703933094943,395.316195241419,469.356307806577,460.572295584875,407.715782558876,428.227631301416,420.254379715116,402.2026870036,479.441741318135,627.530706456919,372.230070538137,398.464654990236,435.534702684637,493.812351000339,573.70588012693,346.419560579336,374.850725716156,433.807751369106,476.509172353601,349.02951686833,338.155285429745,392.92054384026,35.5422816196665,250.033273152286,86.7746659924017,180.307490868601,565.227976939941,91.8181461581293,161.238045283505,-31.8183975392394,123.375690934949,-99.5892076352154,-88.1566566514155,-18.402400975677,-380.016609049518,26.9808493192736,48.4109061737237,-219.605363820778,-628.865509677815,-11.1213959204928,-592.530386313552
276.518469984893,260.651313606729,-17932.0105911542,313.088272993876,342.846598424783,318.331280986344,346.418184098226,376.987673537784,364.786212582237,411.796044060396,502.327641616552,359.547953197075,375.703781314935,487.416974676851,410.893173857209,374.39506334629,485.970635176812,444.637261553803,489.036844452942,524.97443742981,599.80038596874,493.30615632276,555.830811929751,565.520248512709,561.013814025772,554.142090203967,528.471783173127,552.599135555747,487.726381351493,520.818620832621,487.444906619638,509.938238925874,619.996942091491,437.323977798376,475.455106302105,488.221452407044,523.466316018963,585.085135305336,408.865505259186,438.85388318251,469.584142505651,500.752482981493,400.229763116237,386.697640721496,443.593225639724,82.5188703569433,250.04805656066,161.852876959349,219.907291879066,382.494793152595,74.5311495233941,119.957839011055,-77.6292162188632,127.389513662428,-24.4164832776489,-91.7763839586302,-51.5313431844752,-251.711415093922,-9.54371914915515,25.639299218688,-158.38526609952,-471.006303842404,18.7586890691255,-420.061054425496
372.547347670487,346.14227340058,-14418.9882553857,388.483338977379,405.738835009467,397.596127959634,411.307350210037,422.1387606501,432.512255860207,467.878304842392,547.298984413475,416.864060829497,425.915675839743,515.252849721775,440.537027850035,356.790191275233,466.263196137062,407.062371003667,368.68999343159,485.450986256729,408.360500593791,366.605852074677,480.135698273012,305.962153832581,581.25090841782,560.633443583748,491.89248511352,593.298277520928,486.842984514291,529.572745482047,505.133512100644,486.370240168677,570.714762319669,432.727741660119,483.728066872121,482.585897207636,507.267159177585,559.774569448308,411.945444681647,441.521505102619,464.706368338565,480.662312944426,401.48399654335,387.277309541624,453.802865504765,84.0284361928176,332.623756432649,146.745581538601,278.916236735578,287.234302340767,-16.6703520571981,149.495428182123,-164.315828587401,23.6969726982271,45.4979095826538,-1.16348936745392,-143.433120072572,-126.920137261935,-81.9522849928182,-66.7857827153255,-142.003227030357,-298.066771137273,29.649245531021,-281.735132001527
437.9226546624,399.549872207139,-13426.4289377521,432.825385907219,434.674315951599,457.923243389082,454.932678526041,444.296350622047,494.66469978607,513.820826775182,561.350955071429,471.523026959102,471.150971924787,536.525470217551,458.992795359304,296.786741464747,408.020441101212,296.295202464406,150.600589221805,356.705454298975,-10.6582288005022,263.819551719111,304.398137049682,-147.703694020341,461.679249696801,436.739512771427,398.609811216009,523.340373167245,378.718387237235,460.680624031942,448.816279683779,405.088309167537,495.286552073665,392.894822531714,439.432517405024,428.335933668107,457.130836979519,514.34097532401,383.79624916024,393.625849070801,440.43523960595,447.582196191308,383.920971210854,361.658445201294,443.786380357015,94.4869202435329,535.57298580047,102.42242008278,352.053412022371,326.238203414496,-86.985397128806,213.169957757596,-219.126219087591,-70.9615200052152,69.3818054731893,69.9767833682904,-183.940095741139,-70.6580206598631,-108.885783354557,-117.544516390642,-103.197201694616,-150.675512107269,94.6468276154668,-152.306620101375
524.735804576996,471.956767925505,-15908.1418267344,493.044896518801,474.656163134213,536.908507494953,512.969077292208,481.745630877393,573.144716140132,563.81851655317,573.865455959364,556.321030817985,534.406914555381,561.973170979146,533.96490890483,274.706471956352,423.081313004749,270.559695167623,-58.4573967344821,364.182050622418,-322.333587244564,347.787901851983,280.636680657246,-446.611385981883,426.562128222399,332.172080924259,412.721093303287,502.843088379555,304.326967136073,453.566411727642,427.031629850293,361.054575596679,441.254111110568,419.967514787193,444.361992580114,417.10360414874,436.974448977849,489.021689748076,408.491483275401,395.906167146671,447.695300287186,449.671531593326,412.78389253397,367.814070295557,459.35158354585,154.814604798155,769.410095670725,111.608025167756,448.661686984819,400.801126242783,-68.4432000349002,259.540929020942,-178.791400877294,-64.4144752474314,58.364912640633,69.2032768870793,-111.354203695125,-66.6123308762644,-40.5732074479471,-66.3435915618232,-16.0914311505591,-22.236044113337,224.29369485187,14.5114304820931
647.281099117911,585.014220141208,-16350.9278635881,597.261985680206,560.412739348738,646.877747255874,605.369913396106,559.378040359965,668.087130730078,629.034993399513,618.504035618022,666.722842373277,626.620690072703,610.40636687166,683.663007380092,364.394270479688,572.721787023247,441.305697469712,-40.2941751692857,595.344377745617,-197.291132416097,585.253498374325,504.880956514518,-241.802767599521,588.76117690342,409.151683596493,570.708148365501,620.720503820157,401.421528382096,567.07570338975,509.710904395255,436.398443089306,467.294153932164,529.007070410225,540.064460948997,501.01055962258,496.898457151325,529.336217980981,503.70915821298,492.247901447281,515.094945099822,509.59181691859,501.2443927566,435.672272000264,525.225978532732,218.409438842009,870.278281850703,146.200330767605,505.101438851303,377.740518529419,4.51836295410393,247.509959857617,-68.2816341704247,-18.6993397995025,22.6667645591554,33.3702458446653,-7.50398176953276,-87.5767041283814,84.5623810125436,14.9866127433421,37.9505861417525,46.4840093823529,347.30836780642,158.573939134612
737.205839779282,675.779374436219,-14064.3873332768,680.803289567208,639.560565521626,728.756797486684,684.299620467637,634.690749720476,735.548873164211,682.870235471076,673.649393612405,745.452699990662,706.423360061876,672.432245504231,823.198213207324,534.868194079757,765.167972161708,700.526064255384,294.901554826759,850.901034232297,307.280608422754,761.542409073374,782.33637243551,347.330485657594,771.867043576063,610.446913515796,706.87749004443,739.893579194517,603.747849853679,675.283561413768,612.518240995051,575.507995448057,555.815785969774,604.05093723499,624.909404837643,599.680125228305,585.274166634368,600.794034346928,571.339729927354,581.33659928592,586.231117061236,570.134116448431,563.705057650734,497.685597748633,581.900203996316,164.038142440644,692.31363980499,61.7557557690922,353.620363547553,140.988984339363,15.204340363131,72.7967944338674,-11.6707721059208,-94.6254813501679,-120.121024758126,-74.0881506008701,-21.641359773259,-170.05137558586,149.271326531732,-10.1757760646498,-42.4527102286188,-22.1846100300923,354.889665553368,151.888824733436
700.461558574693,639.88032703552,-13963.0119718236,635.613618122967,598.161184250493,704.646254126048,658.455661788014,607.739321482832,713.000708935785,655.446899530838,648.634216760715,736.104700716986,701.508339240283,677.148434349599,857.390539018217,675.900488540377,839.486400176046,846.851660764317,713.511368185136,909.805141206293,785.427244354898,719.839663347253,865.741307045393,834.193285769954,745.388905933448,719.949157240826,655.401686224093,684.827220691683,715.463707837503,632.485260156838,605.089358444898,634.476668734738,600.396682754276,550.657760436998,586.586332533215,597.887036824013,598.259226149724,612.193758337428,522.49093110147,557.382422694552,575.326170397565,553.031796889927,523.689415425048,468.462792172868,556.055183173392,-55.2070131622468,256.66693005915,-214.561859182394,-69.5509959967992,-314.186006243248,-105.835616539298,-324.793952053783,-87.3126258024179,-341.294882216098,-442.915448700224,-338.119839956212,-192.27816402308,-349.651374941325,71.6553675413526,-202.425019453755,-256.017320201729,-212.091276875382,176.038679769581,-47.2206876938291
540.67891336554,468.160474907491,-16055.6188609552,464.871943783167,415.835683034352,581.824267610113,516.403987363469,451.049462690286,596.855113673937,527.723272870827,505.397267558167,647.035399061456,603.876468907844,583.276243191806,775.672091802521,719.59680325992,731.461242477403,804.165962304998,896.019354749302,772.258841397201,920.127199184567,493.588240270263,714.549062146013,921.931550994556,502.176052273157,630.294611495661,429.844018861668,458.279300891866,650.339278332913,445.713188899329,475.067720670822,563.813241118668,549.078716178977,404.801436804845,445.017834521546,494.621084331674,522.758905027893,551.985787332748,390.641625878359,446.288922716442,490.608598683165,476.081075222448,426.049152634455,375.263550709852,482.270556706181,-315.02736018641,-163.991440494727,-539.458389726467,-524.941749950712,-758.851798399368,-291.406601579058,-739.916311320554,-208.76328163704,-596.695243659249,-797.383463245204,-631.368333501187,-380.995096984599,-522.32937444308,-71.8029509874916,-453.216681056298,-469.965992929195,-354.93425608419,-112.506071278411,-317.116304555107
401.434095166559,303.789709048075,-16115.3364039823,324.890657656484,242.629829215644,487.334177651253,397.014368501117,301.165478226219,503.783693947574,420.487996130241,370.647143484989,581.547409287052,529.234131250805,501.220681368825,686.148716440692,729.080221514095,569.450917873017,686.854831770706,869.077721187774,598.28675760355,812.825359365883,255.860236604954,495.101287796377,815.232345410612,236.945939807535,468.252452709191,194.399995150327,219.08813328709,527.253662399234,254.988086873673,339.604029335614,480.635155222964,508.134627075727,276.281391530803,318.26364887334,400.557593378635,462.581181879531,516.51926544049,285.514396913639,354.94249251888,432.478935219671,438.294417805727,376.375853962957,329.276124774454,461.017851944345,-454.673875155005,-278.781555965478,-706.757264337283,-686.208932426078,-897.446353729787,-418.029185119686,-850.878521954477,-222.284020478441,-669.517235465013,-914.434223819082,-662.765968871863,-410.504545245572,-530.045460139905,-101.424583038942,-553.105212126462,-539.890739427662,-310.539669667593,-286.305040675121,-485.238813770494
401.885387183744,275.511356504507,-14826.0724080341,330.229086396992,217.278364700995,516.782513986645,416.308263285648,293.132177457371,537.855429195878,443.120242029097,377.979201948654,628.474575367995,572.156982030452,547.332552376668,708.660825921434,791.261718458785,530.772835264044,642.688531402505,869.842473689755,509.487395221845,728.97234964788,166.837147335236,360.574915887757,802.696500720789,116.193351288289,372.264355121021,94.9399721834576,107.384262719693,468.302329383641,180.996195132335,292.551934737712,483.196154945363,574.078159199566,237.26250608552,282.428544856861,385.249060245763,483.3551087863,557.012081442264,266.967227258145,338.786169686293,442.971250295252,469.161777037867,394.054437248204,363.814675656291,500.207601339902,-461.82099753116,-125.460273693876,-690.825804779799,-547.160846133465,-742.846021564201,-424.493740644667,-664.05154251727,-77.1230448107709,-552.013576644304,-769.706763932898,-423.260301984803,-237.981777406649,-416.846706811235,71.0846957527184,-384.223977907723,-469.251627856419,-179.645703932519,-183.216666194629,-508.153598229647
483.282457324676,347.382509183716,-17127.3253071148,410.083330940343,298.359160008638,592.280302754667,498.504769646979,378.077424779213,625.367817194131,522.411899564002,474.665982404684,726.351628924757,655.525924166368,643.988210451967,797.366431179404,865.243365527894,580.739787994304,647.810638491165,898.356109585306,461.925395851076,672.615879556109,195.101488404409,276.215213521595,782.176165216872,108.625875675523,275.504230047523,109.769843548198,106.061473393263,407.357024689588,196.298501990857,284.350815824822,490.898553102919,654.990193237521,253.932811991894,290.861746279833,387.578486956312,512.760242335648,599.802122667607,282.900045223197,346.600944577693,447.847556730497,490.046819382366,400.227034538764,392.787662802315,513.168497989311,-434.125295767108,29.3474132022804,-606.168922309602,-374.197952083232,-594.133690694587,-314.80951863444,-511.08067534902,153.174398161142,-351.133395649959,-600.141265513546,-261.397514091084,40.3048518588737,-386.500980790182,352.746727858809,-19.567967264082,-381.197700031118,-173.838307572098,114.95976225042,-464.58063428111
537.194489607677,428.784980874672,-23763.5150457084,465.092950379254,387.177337678663,608.275236397157,531.836664466229,447.947441949291,651.229759272596,553.85188564018,543.028009148085,765.568494358268,672.356235232699,663.322799783955,806.373498016817,861.966442481907,533.914020031461,573.689035052279,783.813749009286,335.665675180036,488.5151008334,165.68463637284,136.521811668474,531.247538520068,76.8269316404155,94.8748096777856,108.852315955397,100.501316839356,251.109506492581,187.726001480893,225.061153865987,402.076349656668,621.34034164191,238.515607963557,259.961627795233,331.620964509898,466.641853034805,570.155248738334,254.042026423321,309.780272590047,392.590991131977,449.269276474738,353.931425514328,360.474954348975,469.488782599499,-396.432317483585,122.348372697749,-488.963660918692,-273.202190188304,-594.107709965536,-112.005780121793,-523.302952629341,381.413788973881,-98.9569338451724,-492.197467805571,-358.42946494983,319.534898548279,-458.135840575342,588.270023359746,367.195847994703,-322.717065466355,-304.378661042774,387.22015127867,-396.728442887791
533.895278185917,468.775253864783,-29308.2652750582,477.881386976737,433.452639731782,565.707347840351,508.789999533374,462.784727816698,610.719281484048,530.185017408155,537.86731374998,719.128257394876,620.112379238864,591.180793530928,683.448382098065,765.069862281872,335.670668394807,392.107157670372,512.137826744428,115.520102935128,191.66105540202,9.17918511593758,-48.4233350299154,138.379812766347,-32.0157970495397,-79.4171005999258,27.9725344409343,32.9164466434528,60.4519419431322,107.377098587519,115.891796108225,246.355287566054,466.078264630959,158.547904846242,173.986063604037,223.220326425179,344.803185306599,451.859908240512,170.709508521718,222.64510401811,297.43279312721,353.293228624151,283.039671366255,290.272733424223,389.63887942875,-301.921779553866,311.430560629972,-312.059415200371,-129.879011564215,-618.769881104455,97.7593308516824,-475.249725354232,536.378490985462,187.032737024216,-276.272850443067,-491.46562035316,519.60157523793,-431.835251316614,686.643536860065,609.22542990314,-243.975276426388,-415.494149899622,479.588090727167,-318.227868543391
457.125048946683,409.846843688121,-28822.4695973364,414.109686829616,372.948847804669,468.482649639823,420.942658258657,380.615090847416,510.270788737067,430.472131478635,424.832784326572,587.966058501516,503.641532206408,435.909678079954,480.460450535738,596.998166892899,94.40156789567,183.265858487449,215.992548988614,-103.438547868977,-65.7191155376488,-175.673990093843,-199.491681742532,-161.896214589243,-164.864993303143,-160.907598996666,-90.9422624556546,-64.7578813161684,-73.030081581352,-8.34807406834128,3.00821119606562,83.3329129759506,231.838930459133,49.0761629920616,59.3146716484474,90.0974951434763,168.46098887986,236.243288940001,66.3922921294052,105.651953501328,171.573250259861,193.000366330582,192.196506380159,183.271292056905,248.315077829183,-175.397425662956,616.802054033734,-131.954600566599,78.7663733660532,-574.250666372857,174.43029698311,-208.292938217982,534.686731439511,377.87248408477,112.722518913234,-428.668043537775,558.515934676774,-221.125272309401,631.505939328091,631.595459555028,-140.453237076359,-424.104231850288,387.644109097838,-292.503909011437
328.173279513788,266.325648022103,-23243.2553440972,269.65459670586,206.516862769652,322.283651568843,268.218652604702,206.062507791309,354.670111720201,252.032622106124,215.127072857889,404.353641097377,335.441619100868,222.918450192412,290.099341368407,401.410467549478,-76.0333529135025,30.4766218566094,1.42496562887175,-235.436214545866,-200.200542172401,-283.903115533545,-278.751099939077,-307.5147782867,-255.619931737424,-188.384856065626,-174.612848788717,-133.703768316787,-143.960505895757,-101.237538882471,-82.5713172953323,-57.6945962716082,-13.892253041425,-38.4379485560377,-47.4697286250008,-37.4966471516147,-17.0608889393688,-17.555519758105,-24.6045049221544,-10.6270545008643,28.9584555783537,-0.178541445587195,82.8326481724255,45.8611006532465,61.4862599966337,-80.5835932104371,897.396596902567,-8.17028207366365,258.220845836869,-451.165735067876,113.331441127677,150.542243360653,391.397850061077,394.553738260246,483.887257598542,-213.991682370359,458.748122989091,34.3822909835619,493.441246273095,543.698670309764,-43.9226319348648,-309.700886176096,253.265886857718,-312.153216433574
258.058556727942,185.230683517679,-17193.4011091093,170.628406768795,88.320619718408,217.826514859579,157.746938495206,77.5080225693495,235.561718326433,118.387608124944,46.8326110603659,270.760556508444,215.465580760898,73.5307953316507,194.325869835925,253.421447454487,-140.608159108665,-29.3534548026022,-97.2685743483842,-271.54018902493,-228.078509198528,-311.689836250983,-291.111416617329,-361.099066850148,-290.030322458269,-200.854591407793,-193.428127388636,-153.431402130088,-174.28164356204,-140.716161648364,-125.338670969961,-141.251898796694,-169.611737593659,-77.4089663071732,-106.837709614425,-113.007143620329,-129.157193571617,-174.490461519903,-78.6373825519849,-82.4628946464063,-71.9939384690538,-125.336276917711,1.91228330543255,-48.4902834634027,-61.7992888723533,-5.87496408587791,1081.40877726678,97.6869600473188,375.589132952147,-187.562022140188,84.1733693098783,407.985387092271,273.759779489485,351.21393948816,630.860147548542,-10.449675182039,381.878409475846,167.048725802474,403.334196208444,538.146435852365,43.5696583929545,-49.0462313206752,248.249708521871,-251.534904629352
307.949536545225,257.222550479082,-13333.2078044714,214.933864637004,132.220149044165,219.655290850936,180.436419458095,104.892310021995,229.629745761668,134.095661046485,41.3460004403477,240.272999306953,218.4120074763,82.8580602759356,188.609906608478,200.376592524947,-136.845775444093,0.799213114429643,-80.5703772837808,-252.420106500509,-166.105948441869,-304.082648179808,-248.779993077958,-337.729858591521,-293.424363951691,-181.402631829058,-177.789752884688,-154.292339311406,-175.080507382861,-146.381771990612,-137.243892867829,-166.217544220252,-213.906060209945,-86.801242920483,-121.289480604294,-133.798629190934,-153.295965096516,-198.343505694767,-102.963243836532,-105.169843603488,-108.216906858398,-148.697023606884,-30.6601298484092,-62.5037646712485,-79.7696462745333,115.81341985615,1158.49144797742,233.498505763115,453.886973892828,221.700537762334,210.82453940763,517.869455450619,316.55654398229,397.554236059095,566.560311666135,112.070801555962,447.818163633426,151.04215443118,425.17686089456,667.708026783979,124.493842789534,282.830987540546,408.696762871351,-62.014487507257
404.62694485119,394.789294700643,-10510.1599350621,330.453044816198,260.551351076641,264.911085328506,273.337727289773,223.811942355591,279.911921859545,237.16494432221,149.524952568167,244.393059439796,282.608436918177,194.031203186966,190.368091235624,215.368831915009,-121.41367974804,89.6638869143494,36.8086195203367,-206.724835228385,-6.58650435224093,-272.370714292616,-159.060998062297,-213.399963564844,-268.74240302217,-119.901263691213,-156.230417867146,-152.90059085579,-152.867927996897,-143.975396845503,-136.133068338808,-170.620810854382,-222.143973204671,-90.951387224813,-122.012137688995,-140.008774186172,-155.740622680312,-186.776384918728,-112.809002923998,-109.591025527266,-115.616589453041,-139.229196321019,-46.1287804515991,-48.2715926326263,-69.601415206263,333.848023345225,1089.48754078292,416.843208239521,511.958434633106,587.366391983666,453.148187013695,571.08859697971,465.972710794714,556.378559708454,499.773762758968,194.936517612908,611.641308713224,108.804829529412,493.333329298916,827.526388293547,208.67965014108,523.476058058227,631.336334044792,156.499625066019
476.760228044222,497.558663102736,-6840.46935791623,417.22880452837,371.818572942287,278.191156763422,335.393085524838,332.043718387224,296.658379397031,322.730150175608,265.741470243422,216.363456947452,315.721951305804,305.462284828933,138.779002592215,226.295688441386,-112.426040852717,165.845178083986,198.678692086907,-145.184355817184,183.599125883083,-205.886431784001,-51.8456349156744,-40.0076642013491,-193.260772537608,-38.9985911695276,-112.937406329241,-116.028408492406,-94.7630068815528,-112.359006740323,-104.600683567114,-147.201592041191,-213.789057588725,-68.9111342469716,-97.9071574743498,-125.639559910225,-148.564502626988,-185.587372064288,-86.7120818325911,-91.420464608184,-100.532815186054,-127.236074198501,-40.5266814766332,-31.8928692573837,-68.9478265065245,617.497180226708,881.939609543495,661.656980476812,577.669877510296,706.101970011338,690.477774679895,643.317774996688,561.704729384541,741.106247742262,587.571430936585,287.902743729514,733.524312174521,179.433043562835,489.715658933921,889.670528134795,321.746249623833,621.169117539756,786.134612546905,335.435300892644
518.964018073476,558.389015895077,-2661.0721637398,461.216466417981,458.848824253688,256.568707567052,343.457767759291,404.522711696759,260.512867969152,357.002439495164,351.761307243389,159.542598524326,286.481200693383,363.204665948954,29.1966940332106,149.719355564762,-97.8181525339436,125.924440077938,258.09610641709,-106.519526444771,226.322542183123,-132.383200798132,-12.3875031328071,23.4156889182331,-94.1071657098892,2.17461499075006,-43.4108892430618,-39.7765274771293,-14.4463677093609,-36.7029666153985,-33.9080294321692,-75.2560493453177,-146.057890716478,-2.00151384420057,-30.5819445238071,-62.9275632004999,-92.2280933356528,-146.486069475377,-12.2162213859147,-34.9331972508385,-43.8193778204928,-78.4753963447571,13.6102840563464,11.4830981766796,-37.3247915754635,832.691928231786,636.052132031539,904.57155067774,658.930648679725,605.002438803972,820.280052071429,688.262529968512,535.019799648502,827.625702113508,747.881654358691,379.840128012629,703.696537552321,357.526271941901,355.590828121886,765.758861349982,432.956516780656,682.43690154544,768.650369268016,512.991949005985
475.933085100152,533.829848404372,393.786851231043,420.742741729583,467.629225387648,181.671669243514,269.348932409723,384.044723404019,151.979953262562,284.944459064973,335.920160878128,53.9342501212001,154.555211134895,281.669078696761,-140.748495846366,-96.3926471219741,-93.9107616027521,-101.196475453806,28.3392788765461,-158.52523153961,-14.9013817666721,-114.716114652984,-132.48753619117,-173.153639505569,-71.7923208185963,-87.5440829632468,-8.51203155004959,-15.6134822130776,-16.9262847279995,10.0032473907109,-0.351024828096794,-40.937012065945,-86.9810546203554,49.7902843826002,11.6990196926789,-20.0670600198035,-46.6802808464963,-100.958154554188,39.0792688407884,-1.34304326138366,-3.50773193975117,-32.7029472136311,59.5210670757599,40.1646026278582,-1.46338504216085,848.682678805595,445.205922377503,988.587801524398,697.557001314677,484.183312231766,803.043983621399,625.033139930777,456.227083604643,742.703599662039,782.446399470909,432.549744829344,521.675391731536,487.888803675854,142.507022757743,446.627784298196,431.885267854649,765.575353684043,532.33844016526,668.901029442313
277.130090013884,344.746471028999,2080.0246266566,226.214913195177,295.788843727357,20.0427705386927,73.5270620547289,187.411736083518,-52.2037839605436,45.6895556586589,117.198407499846,-129.59633671005,-107.680332720212,-10.3039264279187,-355.335957638365,-498.427951686409,-121.243751013764,-451.307000775359,-484.53539404843,-299.200289384656,-439.444399850277,-164.567299992839,-380.020608455233,-579.761733341949,-180.870294136804,-325.522906092976,-55.1157245472929,-119.156013204095,-177.759074578807,-48.870374670618,-86.8481626788101,-146.772743621092,-170.267048820712,18.1549687481168,-48.0940869900309,-91.9039596636265,-119.484071248392,-159.769702386032,-3.66151192233647,-62.1631093356772,-69.1933280094518,-85.8068543578038,8.04240754239495,-22.7279109291695,-50.1348381888272,691.792408728014,329.161437627686,856.184578318746,644.709991723496,478.224481437234,685.559482893367,501.115245486847,399.981613207207,571.570855818043,659.529345839418,453.805583184137,315.80385772721,464.672146731211,-18.0241097432896,100.831430350013,273.566533171796,776.322959910465,185.967463894409,670.13546400715
0.894400910288101,48.147553236234,3775.83194370513,-60.0906146927676,-12.6448089311024,-169.948697349046,-179.26722969029,-125.837810544803,-279.855223441725,-276.392145428385,-246.495143460287,-321.592249623974,-408.890944443466,-410.659437538992,-536.28925031559,-887.048446927598,-140.316534458329,-741.93604363413,-986.538795966959,-416.005041894104,-782.99096249819,-217.447911238164,-597.057668638528,-941.476865869879,-345.848002328935,-584.622052227301,-137.44248747238,-292.972720049555,-402.588361358379,-169.857141885212,-246.736617726308,-331.356490998334,-362.963483240488,-65.0219738568332,-164.786946559563,-233.411533834201,-277.269837050216,-312.248004343332,-94.6315700315137,-174.770603919142,-213.431170875838,-224.93568830384,-118.668535153184,-148.070317674175,-173.142691007483,507.850189816442,235.036212701786,646.174215314009,540.169769262214,509.856748053988,550.476968816562,421.349679868388,357.200845529091,473.832258955618,521.304847569305,453.05420961735,225.919699097496,340.890059140488,-37.2268649148003,-24.7578588061418,66.0308555380913,607.346198702571,-56.9417068688532,439.007648504518
-202.775882962349,-201.011980367932,6094.56175892001,-289.585866102876,-290.903432206268,-292.56286806054,-369.507617045693,-392.125726375148,-426.878299762566,-521.027713906656,-564.189540319311,-426.689593127174,-621.241077913539,-726.454752829472,-619.226001272417,-1099.15701385663,-96.4806570707167,-867.778790661975,-1198.40943590322,-414.931736402296,-915.596463118387,-219.272307002774,-683.992734744358,-1073.38691265668,-466.650319499053,-732.167191584368,-194.250904078425,-431.323101331374,-553.07881216605,-258.983089548292,-365.233121774058,-454.935251575479,-497.726676757077,-125.713145184011,-245.529677991244,-326.554476770115,-393.065214053585,-426.303158646345,-150.855358189506,-249.914214291068,-321.501778978377,-339.611411893083,-217.898799734757,-239.858382723077,-269.819075826829,376.160274041264,61.6946316767521,494.186947178403,431.251556243141,366.926548196484,406.294202436554,330.698902541661,272.349440825959,430.316520343301,405.54737499873,348.806442752183,219.376031158677,182.880829205523,24.887794903819,66.4691159711487,-82.7688333389038,266.484150021325,-130.813768944304,56.6685449996476
-304.304412471064,-337.1010095237,7592.08354813965,-409.723335830225,-450.835918082063,-337.535597489004,-464.034737961299,-533.838946790803,-488.956735320493,-639.976311053632,-729.287132843472,-448.206138288194,-718.656924912288,-880.209125445852,-620.791728369857,-1134.55325450502,11.588758723383,-884.471405918159,-1145.10101126924,-308.814799057545,-914.257115956375,-160.092452174351,-672.782166017236,-1024.68837109404,-510.462708579177,-760.176532924072,-211.021344257039,-486.989125527351,-610.163131985322,-282.400265454885,-403.199784943113,-485.371875736614,-514.547738996613,-138.861290046343,-268.428764258761,-344.831342791485,-422.202328429032,-443.208146718468,-156.676018759212,-270.437763004709,-338.913221541044,-368.483801127569,-235.791301808508,-261.902404897435,-292.378746358911,270.619865074249,-209.403369704725,384.52587342917,304.468236385547,-7.98879836489812,209.2268874517,101.525215399668,124.024735490029,274.613957970123,203.852380714766,86.1301182712975,148.855124093433,-1.60191659757888,58.0829453530506,119.500974424008,-170.152798654302,-113.085884903743,-141.518127436526,-282.589750864225
