-1.59492163422445,4.05980052348042,6.52467941273638,3.98730408556112,3.91480764764183,2.89985751677173,14.2093018321815,14.2093018321815,0.797460817112225,-2.53737532717526,-4.56727558891547,-23.3438530100124,-4.204793399319,-4.42228271307688,1.37743232046657,-1.95740382382092,1.95740382382092,17.4716415385497,5.14724709226982,4.34978627515759,2.60987176509455,4.85726134059264,-0.724964379192931,4.85726134059264,16.9641664731146,-3.33483614428748,14.7892733355358,-3.26233970636819,-5.14724709226982,5.65472215770487,-4.85726134059264,-9.35204049158882,5.79971503354345,14.2093018321815,-2.68236820301385,-13.846819642585,-3.62482189596466,11.6719265050062,4.204793399319,-8.40958679863801,-17.9066201660654,4.05980052348042,4.05980052348042,-6.08970078522063,12.614380197957,4.05980052348042,-0.507475065435052,2.46487888925597,-0.434978627515759,-1.59492163422445,4.85726134059264,-0.144992875838586,1.15994300670869,6.23469366105921,-0.434978627515759,-0.434978627515759,2.46487888925597,-0.144992875838586,3.91480764764183,1.37743232046657,1.52242519630516,5.94470790938204,0.289985751677173,-0.869957255031518
-5.68295938393945,20.7860860649915,33.5693267326262,21.3120493759394,19.9531053009856,15.4996722734104,70.1776776813354,69.1627275504653,5.59634433290287,-9.93739134326948,-19.4967253396934,-108.156178229852,-18.1392378088714,-18.2287659481716,8.34829588557235,-6.67796472516494,12.1151975691119,84.352469282554,25.8734987883275,22.3795511550842,14.7761644383493,24.2800336982349,-1.99001068245099,25.7299624566207,82.9594618048383,-13.3588425385935,73.944579364875,-11.8549055878012,-21.3787196373313,31.7612854170394,-14.2755252653724,-42.9252900284095,29.4769193505157,71.9900886293178,-5.55062857708633,-59.9031282864404,-16.7647185766685,62.3426830377255,24.1564421561727,-33.2336252251325,-85.9814543195403,23.3959578300861,21.5110504441845,-22.5158047661318,67.2495829383291,19.3361573066057,-2.62544692234367,11.115822595491,-1.04901353363201,-6.1904344493745,24.2075372603156,0.47195511854132,6.22886748453189,30.2359471324706,-1.48399216114777,-1.19400640947059,13.5807014847469,-1.26795939152172,20.0256017389049,7.768324382218,7.87634076703102,28.6424820423779,3.69586178975212,-3.330466511892
-6.36723906090514,42.7902025161202,70.0902671465591,46.1859233712975,41.2177731836533,32.8318451463329,140.63502240302,136.471575127122,14.5517231145292,-14.2739698850502,-32.0393747567848,-200.985303268208,-29.8808227943106,-28.1854924460579,19.0319425846783,-5.86336761001015,28.6905594615955,163.840097273682,53.0668234898445,45.1560886094548,33.5789362511326,48.0185691934963,-1.60212886330461,56.2758803956364,164.545517304935,-19.2308390562618,151.453582286646,-12.777240163338,-33.2616241529612,73.3990422401029,-0.474908472028426,-80.9050839534295,60.4697177286485,150.177324698063,11.1685543320062,-98.4851013316698,-34.038884961411,138.294280720218,57.2723771465478,-45.2414034991871,-168.271769151801,53.5790628689086,47.6800707153431,-22.7517934855433,149.079467727358,35.4753450069309,-6.80989509031342,18.6632395373211,-0.882259508337461,-9.86264323828033,47.6020788114932,2.299575647622,12.6903641328123,58.4535762643462,-2.29375523156594,-1.20776520690837,28.9091048777806,-5.01382531743563,41.0542920623019,17.0049554112018,15.4274310545091,54.7102578505451,12.6316962234385,-6.08999086979241
0.539664081549165,45.4171380711041,77.03216848331,52.182454501293,45.5622116814214,34.3743474322253,147.985126460122,142.135117205845,19.2526669649255,-7.73750244338641,-24.3348823764581,-193.303824250777,-21.6428915373386,-18.4747638082076,19.5340315816289,3.29825868163873,31.7137601144088,164.316653858857,57.9131358739984,43.6357565946893,38.8213554948453,45.6618055367701,-0.994381315370785,66.9868128267374,171.687513894277,-9.76885051688728,163.856347150258,3.62216383186405,-22.0600933359015,89.7783365368427,47.8245700622316,-84.887095095836,61.9167427796379,165.977444676209,48.6131021950558,-73.4166929049739,-43.2918704779534,165.187222528191,70.3149499089815,-20.7436969043371,-169.919301796212,60.4388895872311,59.5465852531292,21.1746767967591,179.094761923239,30.6664487538844,-9.87116390303428,14.3791924659584,-0.600834788653353,-9.81818683441422,45.8905410014064,1.73701242516976,12.0156343889443,57.3671330636575,-2.47809963821634,-1.72271033635544,29.3494833017912,-9.26162497392989,43.8864605466619,18.9287301798324,14.867467869321,52.7576224783212,19.5961425962735,-8.23771775459002
16.4359148254755,37.3402439328192,62.1863114954219,43.4462962291351,42.6457866433202,26.7054240484134,105.724694221045,103.694523351689,25.3360652558626,9.64085429884923,0.202570312202186,-108.36915291427,4.07196118266587,5.73787244920809,15.3767445862628,13.3010412392035,22.8939145277458,109.920098244306,48.1135593174121,28.6815425442125,32.7357918183823,26.1710983839284,5.74631273876206,60.3877567066754,122.151583542008,10.9091790521093,113.74744737657,28.8552620496706,1.6617114678515,73.43219837363,90.7121767517078,-58.5951277221719,34.8629135067607,114.650205800287,76.6165697273449,-19.410636962913,-35.7190826654674,126.808253676132,50.4891186446377,-0.183762130430682,-81.8042828486686,39.7126097872617,59.6725904521908,91.1321707757329,139.211667214931,22.2556119586553,2.50142380208085,16.2960257096323,9.22730079774644,-0.774711093360685,31.4220325958543,7.52927842747829,14.1911702889825,42.5118981610003,6.15798350529688,3.97754378996433,23.1552433370569,0.989812582989956,39.251516830586,21.9440330451559,18.5570639123033,39.1791038796909,24.4895116807006,0.295884525775252
48.6495163043166,56.9219902926475,79.4279520972981,60.0778032655077,66.2025106595867,45.4913735629675,103.446897006156,106.106650429426,54.0784765331094,39.5500132209621,33.5452898084311,-38.9958838194444,39.0061400812643,37.8460374316332,37.5746742211141,29.0557275071768,41.5596530405907,108.332899718044,60.2808771243234,48.6222970143007,48.32105528942,36.3360510288107,34.2841432481314,72.777072535596,117.783213504278,41.2514905936974,93.059799304543,62.8985998534545,22.6239820390159,77.420434348495,110.391206623982,-25.4301336122387,22.4842879802199,86.1207437857832,99.6510265520375,8.84336399492799,-6.87387436977285,97.1694357505966,39.9365303221767,-2.70805762884727,17.6533013931263,35.1936539172172,76.1054390311128,154.822737291583,101.423002621425,48.1459736511719,39.7280840080695,48.2765698349655,41.8262251335245,30.1150912927267,50.2709665778234,38.7875401069268,43.4028264308938,63.7181248608504,35.6485683004483,30.877659888745,46.292702339841,36.2068605357596,63.5340488974952,49.0071032464459,47.5107183552341,59.2696630708872,47.641564905974,33.7925548627259
71.2598571545525,78.8146393624364,108.341882123996,84.2571994101167,86.3798772386034,69.8784472720093,122.106473774666,123.775234284315,76.4400536129246,53.5251444765526,47.7331259134436,-6.74414887094363,56.29206257959,51.4037299630641,63.2388824353888,31.9941823952797,74.1521046841388,131.423717213771,62.7038253483221,77.9315038164838,63.4546190831788,58.1137869946772,53.890566796726,76.7419905343984,135.142439601859,52.5395530233009,99.6005901141803,83.3932653582767,18.7501869761512,98.2159688302983,106.720790613559,-15.5069858428608,11.1371366642335,92.6863908390343,127.085390547299,4.72837020633755,5.61167634031075,81.4651384285814,51.224459470852,-2.12109167767752,63.3150132634462,33.1639930229665,86.1499580426012,176.107609253247,72.1954156028907,76.7898206152532,63.3773626919421,73.1857045910834,62.8304546682668,56.5290753118681,78.2852911764357,63.3035781492349,71.3014813566459,93.9547530189125,57.4574234501146,52.5864828446068,75.0914583484769,56.9390769540724,87.1284831623127,71.5562497636678,66.3537831980519,81.3322242492987,70.8083377207083,57.1054074799087
36.0596718700292,38.6028784423902,74.8929290716613,52.1703137082471,41.2189972042209,38.8722888561471,73.8912019297792,69.0593288344291,36.6153436753737,10.0723201557031,2.49086091533437,-12.4981845855781,16.230363557319,6.62348393617153,27.0699410536207,-21.9633660526576,49.2574619586191,71.6049888060904,-10.2330983297843,37.5788431636991,11.7306027306153,21.312377964401,6.78145550746038,7.60681154987205,73.8239676593467,-5.03793841292918,43.4916270315929,39.3048609522716,-37.1963774729059,62.7343220690337,47.5766754043888,-63.0285444652627,-50.8864283513754,58.2323486403635,115.72698801725,-38.6412427958094,-46.3333287166314,12.7846590385341,38.0588891779022,-11.7761414338603,40.8960641780926,-19.3254847909222,45.9353064675028,129.569282684149,3.13985626101069,48.3712464344205,30.9668919621782,40.7300531649549,24.4138661299573,27.8934938380929,46.9762952062837,26.025512449085,40.5814665758952,63.1049003048839,26.8340580427605,20.5515988769779,46.7660988195068,16.9262084452981,49.6983432847634,36.6104974326165,25.9726914678817,39.5463558529639,41.9358875677982,17.8171652257339
-20.265952724439,-24.318252419365,10.6194651255493,-7.12918821736184,-26.2145364040802,-15.4935916041589,-1.32877687154947,-12.7398558299288,-23.614084666212,-47.5165728681025,-59.0233453568022,-35.8632964276867,-42.8422535478898,-53.909009544555,-39.0312675841528,-95.7731684353787,-16.1124863541416,-27.9916079118078,-108.08719543123,-41.7329297028483,-71.5144457882203,-49.951197689512,-68.6735287656447,-85.9683876164889,-27.2004882907286,-87.1773081483963,-65.4093578521406,-34.6302831445716,-98.4202504467025,-12.9844169012887,-34.1728974207201,-117.238321991482,-116.339789478188,-11.4846877356986,70.0629572661158,-83.5285308412192,-103.280674601453,-66.0174253886861,8.21353759394075,-29.5333280989934,11.7327975575093,-67.813399940651,6.30297419911136,71.3105869299796,-55.3389307518325,2.97797929720005,-10.2334107368305,-4.30317369662684,-26.1996987352483,-20.3661271098973,-8.36803596026403,-26.871680542294,-10.5011072793104,6.59228934990417,-17.7468202615483,-27.1090354521459,-5.03036148197235,-32.8541530842421,-3.35863235925469,-15.5888047859159,-23.8639616312997,-21.4318707221903,-7.77358231352951,-34.8654941815873
-23.4388744717741,-25.9934525119707,-1.60158060465875,-16.5585283146784,-31.681086113163,-17.8362283996798,-11.0676955789673,-22.9224051723465,-26.6213711953579,-47.4897347342616,-58.9132047071234,-25.586265313465,-46.2790300919955,-53.3625869441168,-50.1517067888307,-110.729705400808,-39.0919885756646,-56.1693400012418,-130.902382814273,-66.5282361941699,-91.3369195903406,-75.6299026381665,-87.7130073527836,-104.87334536696,-66.6893873356772,-98.8614186067591,-148.999282407594,-52.5306127255421,-85.5883893900993,-53.4700394430535,-46.0504883752954,-85.6901188579133,-103.649262782871,-51.6244827383994,45.723394260633,-53.2466683648645,-73.3128977785222,-67.2642941831832,11.1598703326395,-4.41009725200339,41.629775565437,-41.7251132640648,35.9121869568208,62.5166795736218,-47.0412171277041,8.122671451488,0.192223191818534,1.53184772947626,-16.8022192363435,-13.8831132143574,-4.73406762389292,-16.3472329356516,-4.2407742007223,3.57902490839203,-10.078475302268,-16.1160530215995,-4.13222126532235,-19.3480148202344,3.66383713435076,-11.5524700583582,-13.9539281846543,-18.2065529447735,-6.16806726487541,-21.8439923672339
-3.34023630207119,1.49602893983718,11.9351914648914,0.843913682864278,-3.95690529291955,3.20755595635171,9.69678318897105,2.45104096946352,-4.81944511571495,-18.2074701273923,-24.027433132015,9.31589725032446,-18.7994476110729,-18.3438865895991,-29.5852313327725,-87.1845081123352,-30.7679926915534,-41.342495872599,-101.592036545234,-55.2110969814512,-64.2862214496729,-78.0533073920349,-68.355030528625,-70.2276527184734,-73.5623968538042,-56.0578480520733,-216.198380031949,-40.9229034515902,-13.4082464600962,-89.1763256222477,0.155332679926609,20.9942599735776,-46.7088060658819,-87.0770511787847,13.548241810703,51.0473915213598,13.8584458961248,-41.421257239318,19.1951599421881,55.6858590665081,108.15905864094,-2.36833845525708,93.3629293404382,67.1278016215086,-41.167093691009,26.9248316841805,27.8737822816308,23.8671701400241,18.313602735039,23.6086682200408,27.4984120726412,22.9544750843249,27.6059854829113,26.1943844249653,21.781793933932,28.5773505062025,21.1849648770501,20.9392034718688,29.5401974117459,17.9822592285384,18.4399490216825,20.18554336792,20.608641270366,18.9328025539267
-3.42196514917619,5.27570433868054,6.00463128819702,4.47645548977632,9.7613376930519,0.370965749080476,5.78111765800773,3.13073959539366,-3.51801468400494,-2.09596387734225,-2.14985360056896,33.3989577057856,-7.23576853731804,1.45141241614046,-29.8792665447465,-67.9572539418911,-36.2446929152531,-44.165219646805,-76.3546266606908,-60.8612725822367,-46.8202797123826,-102.626766619512,-53.4722201850259,-36.7783286947217,-98.6132010954559,-16.784356326866,-286.097342446308,-62.4236464095852,71.6057784938063,-171.645431723571,23.0471649483741,159.028515999937,18.5492351384991,-162.487164758821,-78.3409095387836,187.492789498423,121.50129591221,-39.4387415780292,-8.32826922639602,105.450507729999,195.710825342174,28.0500565500743,144.687634922782,79.215000619598,-61.3604961127951,25.9242043981005,47.4544284700609,33.550387304931,37.3303076987964,49.862465868197,35.4748421604714,45.389208122209,34.2562139811922,32.554824325937,42.5419788257347,59.8901256388583,26.685530134027,44.62462984678,27.3509182559177,29.3255889489119,36.4972868283307,46.375022411457,28.7241764475578,38.4173445332883
29.0454400263578,32.3345923604571,26.4036311723676,38.1486140090331,52.9074556965503,19.1972619561462,26.1002507594252,28.5084018948498,25.7812301617816,40.4622885422461,46.4052708272626,73.8511151232331,28.8994992127688,43.2970635113286,-9.03718226454412,-14.7118163145615,-16.8853800718712,-18.3999686817699,-18.8751999643472,-39.1008198084997,-3.22222359179742,-93.6508144806448,-4.26199706165504,27.827565515228,-77.9371022401234,42.8316691936047,-284.009775103612,-67.5020430339245,177.121065042399,-222.606486838549,17.5955163486041,334.995762591773,146.713508415865,-216.936513246244,-168.227329924704,341.057386350537,296.923336369013,22.1504137708326,-24.0618234742858,158.623626759034,339.447001449824,151.834671939088,238.546749701086,172.016031618689,-5.43327548251581,60.6000125063561,104.957782754381,77.7238105714554,86.0018642945483,104.743776781317,63.4363605742553,96.275470504323,59.5944017131294,68.0897074824626,94.2940205637328,109.190886717621,57.5690649754084,95.6656159661402,49.9683731369617,67.2972521806941,86.1260010515084,95.7253131329511,57.1959562470824,83.0572389480944
105.548903101385,99.6157962078334,84.8273093804306,106.743944671144,129.621766568803,76.9016457026602,86.1981912213477,94.1542622794609,94.8030262728832,115.912933394595,130.485817861403,142.464354427071,101.765342849956,119.328944354511,55.9949141225543,75.5394704679726,45.3054802172268,52.4387640177041,76.0868103804837,37.5879015968037,86.1856420100894,-16.6056979647989,91.4345665583073,125.81232849345,25.9494883965931,135.479964515998,-166.622417388567,3.50310454006368,276.303534001794,-147.969338045051,27.3659957867679,479.422102694904,305.268861067036,-174.938943492031,-160.178753662038,445.525199919641,485.564710351291,152.235011236437,17.2666391631183,227.316124340727,475.091747091183,338.597120124151,350.048208242316,308.450356995627,121.269450556782,130.942036849737,186.663664663874,148.983180013487,169.067339691547,191.016445385158,125.640838145776,177.51359513281,120.018853222614,137.762197673654,173.393798321259,181.466750726231,123.852444615678,175.684355429022,110.357605921055,138.806552384474,163.790931687662,167.963404608853,115.106241559312,159.682452429505
144.199214428498,137.095710059938,112.5719558864,137.291865116966,164.148034507832,106.479495898554,112.250054823066,123.915070599461,130.5953503558,154.691036121209,177.935917223084,184.817086792592,143.73290526221,162.190336290823,101.238994917732,128.163143043316,87.8153796031116,94.5874904646296,130.901719096561,104.491480255031,153.644079032352,66.7366555251665,170.896143740361,182.764068156954,140.219971691796,207.930165482914,0.223245517438267,115.711191152698,306.204617771219,17.5997799994946,79.7337284300178,468.405614474865,362.919454651289,-57.9791274287836,-48.056256134658,426.114251333586,533.250960683015,213.853153652343,82.5724573624712,270.851586811516,480.113408325481,409.861824846548,383.993327638654,355.845881273427,173.369339644294,158.43568298851,217.115789520308,174.101970465902,208.049820243286,231.244921543641,153.367543807821,211.432241229679,149.573484526072,167.105577805322,204.072750705836,212.107457850993,153.667281410103,210.630778090925,135.574864144673,169.3927589418,193.244120617805,194.286044673537,142.609877550338,194.858774915767
131.073745183591,132.918291795005,103.314516739476,125.257465979973,153.21621681521,100.035899934971,95.7211843002304,110.145194438778,122.675255488827,148.467793365856,175.899060985123,191.748625910943,146.380497533894,160.086453108037,108.466812377045,135.545258304712,98.3726384068031,97.5378503968241,136.237335937581,137.815345475319,175.903970108833,128.550002641891,214.791252315724,192.013072601202,217.942231288863,245.727050478311,155.108691450613,221.567827239175,293.012452192126,180.026024965567,184.083100587962,346.690265150013,313.726716069614,65.7500178251429,102.065964272667,351.662272871344,450.829986599434,158.281530189265,127.105600871435,279.056932237626,395.06034576788,337.335369006793,353.271692629192,315.007916149827,120.330179302521,144.978791181681,201.204979697824,156.955744572376,189.728209099225,215.281712921073,140.995548551125,193.835978441783,138.318384449327,149.12398062505,186.479899164788,196.865992228922,139.122385881304,196.483538748775,119.985358672245,153.289945631789,174.737485946615,174.593824174626,137.910148537072,183.095667790039
123.299183823382,132.380565028588,105.097431532219,122.263022782606,149.720309059298,107.011937674122,91.4510732025051,106.08698367265,121.447428355637,147.545227440216,172.081899192678,205.422734436635,154.403109343812,159.530800188158,120.40278865147,147.039363429153,118.243447348083,109.298001514006,142.15435987452,168.409806232755,186.707799043305,187.918980508982,243.311360140703,199.26056706746,259.891861975597,263.948438120451,271.888174668536,288.157921779034,287.32835071863,270.815480442804,281.87569474638,267.638082418923,247.12600760133,142.256469034586,200.37252610549,324.707804032161,374.699373720715,45.811586968646,125.461431675695,267.087270323272,347.237431857948,232.572209228214,320.439132391447,277.856997455467,59.6087629598392,141.105420585762,185.9124919643,147.13865305039,168.860377936773,197.777454089052,136.85011985266,179.647726431058,134.030119207217,134.513991466918,175.405221735938,186.565938993736,130.998420992742,185.657312150813,117.934915328318,144.191738609077,163.08560285004,160.476807953945,140.76736805158,173.124955230453
113.844539122252,118.663578020651,96.8714308235073,110.802851876473,130.990777111746,103.477925591288,80.4264336051471,90.0868523976449,112.343279595396,137.674291375828,154.39526352109,208.579914326307,146.72136313214,146.352309418415,123.292845913976,142.447158965112,124.083842481213,103.133283044283,129.947138239157,169.691475212989,165.105879646758,209.938041187515,224.765791076744,173.183768028513,233.25704152485,228.090346425441,304.151150041701,267.243545569983,240.442398077732,255.342074012444,270.550163710291,235.426674042405,173.232130803544,144.581653056405,185.530506984488,296.837311966171,321.116001670139,-100.180808211629,65.3513310968554,206.055395598854,327.025856749376,128.320067673361,252.175089691765,239.250137225413,22.7452305095813,121.521349621915,151.343274348898,125.267430655487,140.363026683183,168.796500396574,118.552470801575,153.110798065965,122.028050047334,109.642774270573,151.339558873553,165.038673373875,113.558120999655,160.901335173714,108.880899081247,124.751440664741,138.298786211912,135.125165710392,125.300197384796,146.610060275124
72.7880999946771,66.5267353080444,49.468759386958,61.7401430413986,67.3548011687187,55.617708201751,25.602196121551,29.7003999532779,65.50527783202,88.6264269273136,98.4517891840738,169.538961901622,97.0651236625104,94.2026567457051,88.3312835314833,95.146878834964,85.0904578301789,44.4961026954007,76.3334315250992,116.514391619732,93.1536442418644,168.223819844785,145.873405937783,86.708150614777,141.561565564202,134.730588880306,252.423418678441,179.450233881948,124.20112375834,180.350224442988,168.051705624837,165.221253163376,88.3649357548478,109.701054202775,110.711100959611,205.20356735827,243.381304729541,-226.779458763945,-2.59243858837531,108.573746339331,268.442416001614,18.8804481088892,128.472380950487,163.349373225821,-10.6382389117632,66.1791347261413,83.786299638752,70.5067129803962,80.8763470645232,101.921510288068,58.2335062531819,87.5883488933993,73.8078726669242,50.5197064714436,87.2393149813276,102.178461683902,61.1408291840591,93.2505826487313,55.2554152942309,67.0139579144873,71.5291533219755,70.6968659094509,68.8406056322635,82.5058425507904
32.3267886022408,18.6245466710413,8.50397118466413,15.5384320451018,10.8285985720436,14.9341552734401,-26.4832040792185,-26.6111059041349,22.7026154065624,39.9484174410229,46.6012260804014,128.56662363625,50.264161118458,44.2650564021135,52.8136343336721,54.6453284964751,47.7919279770458,-14.3449725230418,31.5459844612601,61.4739067092108,30.9777541341844,115.645335644061,71.7352335915637,9.21995543210526,54.0601440235433,57.8948796360725,190.09270212764,110.171910003256,25.617055899741,130.694487384079,99.257647886716,85.8048449566096,51.1872893629919,99.5721568219855,79.2170195015286,111.950935816056,178.660429397185,-221.139029211733,-9.0489572092706,54.9429254226682,204.270337508974,-40.8768975081949,28.1190703308514,89.5143948356701,-6.20328579378444,25.5729953771621,34.5400679876131,28.0636781021309,31.1791660523579,40.0664361090411,4.66582036061424,28.8893579639925,28.7961265472863,-2.43091937981893,30.4463374997502,40.0369572338973,16.7122051966674,29.953477588578,1.416660024939,16.8190683623834,10.9342261265043,7.80435967383662,22.7328430842349,31.7754019828432
17.8531900022457,1.50252543249185,-2.4201515669927,-3.01305454859214,-6.58862279165972,11.6646584414011,-38.3304770337729,-46.9434832827834,13.2670821211747,22.2133884874173,26.9606214040534,116.636272799267,31.7687476231266,24.912681489904,40.6749889186118,46.2605370222508,37.3512231069727,-38.858761679318,18.6544463979688,31.6688792766535,7.19332324751214,80.3415573498984,25.6483321853635,-23.0147894614468,-21.4358296684155,14.8973901556971,133.446325519857,48.8305149467216,-14.7618836546672,81.4428230062628,64.5096680880944,41.8439129873122,69.1573645120583,87.8868508000236,60.877322181197,30.9195832984856,131.392804305717,-81.2180334622375,1.4425320523606,22.1602277127763,152.272935015292,-30.8791493603134,-39.7412700315563,24.0472097202612,67.6010154398441,12.5840232951052,18.2414622379524,14.3167040136181,13.4156360909589,12.184021619803,-13.1659423094736,3.33480131618886,12.8055632235634,-26.5035796015538,4.84230044900245,6.89976538023788,1.96235294719344,3.32667114465851,-15.2532148877316,0.811159889046094,-13.9826991208431,-24.9614419454113,10.0140232783096,16.279031944241
7.70896538723005,-12.0866480350061,-19.5480309464495,-20.9127887048939,-19.5979593743393,2.38393155575747,-46.1953998268317,-65.1899121247736,6.4448420197457,12.0171090644141,12.2708753550146,105.949171120627,14.3823334786483,12.4812488890942,25.7901493134031,35.5311184985785,17.2661607649067,-64.5712628338794,1.17649543391564,-6.58303839477088,-24.1072784502862,33.1024633256995,-37.9225142307165,-61.4432354581112,-125.694672964108,-61.82873467058,42.1927469215348,-84.6475205577132,-79.5947140690172,-41.884900203969,-66.4290206371871,-53.1288120937221,58.4271943485689,11.977059025408,-53.2315193429386,-143.828092363717,-26.8472254658898,64.476805864381,-65.2094859130181,-102.934003882865,3.74515556885825,-32.082545946376,-180.318572658038,-112.326316387051,151.447009679308,-14.8373278992168,-10.6883301197496,-12.1308506879349,-9.58717273866209,-13.5689997057186,-28.9807031478512,-23.7016421019037,-3.98062638601513,-49.9047915236126,-23.3461399774606,-25.8314176070784,-16.5467554490525,-21.5412266566582,-25.9611808619949,-14.5411126638744,-35.1946507411585,-51.2745029782669,-7.13373151421273,-5.51498287209144
-7.90514120958171,-30.5707860549605,-45.1274706785917,-40.979921097319,-41.5797192488431,-24.9990677692064,-71.4161997994104,-91.815313443602,-11.6429358165331,-2.69829294793172,-9.22954635139433,87.2122350370908,-4.93083425631763,-2.33918648562398,5.78167953484622,19.2482112117413,-13.6562238333042,-102.136231587833,-27.6545603556024,-51.7558368199601,-77.0971331267035,-17.6163622865025,-115.106028258376,-127.780313300054,-227.482552236741,-188.685245793616,-49.6595318924917,-265.247409396077,-224.579223757883,-189.72680254398,-312.875262545579,-281.515200723322,-63.6916616492966,-84.2780398334541,-244.285809156579,-426.107801026199,-384.389844798098,100.39262337427,-182.173574786114,-317.573887416415,-320.967268572336,-136.118896744584,-412.846276516016,-342.128139764949,125.070455289373,-61.7327431061986,-63.2917609624748,-60.9256872839368,-52.3444846779819,-55.1892210177133,-58.6587215533724,-64.807482328043,-34.3679743368375,-79.6832748237322,-59.5225252947973,-67.5148553476853,-48.7770386293321,-62.4191017123539,-50.8465589607962,-41.9095815452846,-62.342024159797,-83.7149751683935,-35.2017896775083,-43.771510779343
-32.3261901110277,-53.2963269459616,-62.9919045429777,-60.0807254426214,-70.075205747957,-50.9643827144457,-104.029658756136,-115.549523294449,-37.5592059263284,-28.5894703637572,-38.6096723150328,64.9907843282561,-24.4024206949875,-25.9748094771776,-14.8992822100063,3.17053427679879,-36.6175310380701,-136.727676178448,-61.4779467304672,-83.195868632494,-130.95948774002,-48.7889816544938,-171.399504903015,-202.942401378365,-278.314126749277,-309.707498078922,-82.8690150880074,-392.914350469679,-404.864789382821,-260.033490954124,-539.183408996061,-565.613739823595,-318.72050033101,-116.972409681199,-396.30169063936,-674.718901157775,-807.723707902556,-36.76803595401,-260.897958022316,-514.11952990385,-706.785992381875,-351.222694343487,-630.961314907208,-575.900817234258,-84.6545143543704,-115.352997904661,-125.093957669304,-115.631446372476,-108.752262116019,-112.381286421034,-99.7854712993405,-116.177015347459,-75.8354944186645,-113.885520395346,-100.369856963475,-115.34712119088,-89.4688895499725,-111.778960089419,-85.8804518002187,-78.0665143214462,-92.2648985439628,-128.289017893028,-65.8451005533675,-86.6612337139017
-84.6411247777519,-106.070866872706,-100.599982162367,-109.09619752965,-127.694110025782,-90.5845227883965,-153.774708360948,-157.986522465797,-85.7094730233743,-87.001901416602,-97.7258347824454,17.5978519320889,-74.0234021628351,-85.4309027720541,-60.6922337540992,-43.7422180558766,-71.5367296843211,-181.751686397681,-120.699734382505,-120.169003880679,-186.935866625284,-83.7489430160801,-214.928961775943,-276.486672436694,-297.297729084376,-374.925585950317,-83.0860875994617,-423.537931321387,-528.005816248906,-247.613709837936,-619.487574063493,-725.728707189424,-609.725318289948,-90.6245952101367,-443.374438419852,-755.227363199476,-1021.53900136287,-325.230569062446,-282.300246489067,-611.56555565849,-925.315019697774,-585.55270686581,-750.99335888303,-718.975171328476,-397.506178445527,-188.441831771932,-205.649968672359,-184.116416296089,-187.457702592572,-195.256412384623,-164.233701166471,-193.963028693703,-139.312819157064,-174.213716691067,-172.250477768045,-187.27037260865,-150.538991040714,-179.521611960318,-143.819877176088,-140.646951395742,-150.972258726816,-202.451651455986,-123.586201783753,-150.229418420037
-160.512392795996,-189.985719963055,-174.639234627717,-191.85401331163,-213.460738422286,-155.491618303014,-226.237629058339,-232.070298618566,-155.442290480941,-168.889514380919,-184.58139322673,-57.6247737481403,-153.92288662411,-174.363339067968,-132.439959022825,-123.75906585221,-127.257829238525,-244.18614775703,-200.198198519219,-177.851254061877,-242.420131071237,-139.797322843628,-255.045834036808,-327.70718172753,-318.029873587969,-370.717147760483,-105.654876438423,-383.905849560163,-524.294107130039,-215.195761612074,-544.992070144711,-670.116775507727,-766.211964873864,-58.9595906666581,-399.082957153752,-657.09208214207,-906.803732840744,-615.223550185591,-269.035497594669,-584.484243698778,-876.237373974083,-732.474566839821,-770.037868117083,-760.376905202783,-649.54587210759,-272.747807124296,-299.538565847882,-265.750968386303,-273.604077400588,-291.263230227565,-243.333905799039,-285.899460520464,-213.556593927767,-256.502559722602,-266.562563994549,-276.543165855351,-224.302572092421,-261.283823834419,-222.365484596987,-224.249752441764,-237.588500599095,-292.563410394398,-208.139473723232,-232.770656814503
-237.611562959839,-272.279899151473,-259.457336294775,-274.96597474092,-298.377255385482,-228.267559831034,-304.926445462706,-314.690252844134,-231.104228954179,-248.30660644464,-268.813851268342,-139.875740386195,-231.415566238915,-259.199744284756,-205.944879447847,-202.241573014916,-186.093944957376,-307.829323184468,-270.654597629866,-243.152023765885,-287.432752416009,-205.016859317525,-286.924175254588,-347.88634495004,-349.189873749383,-331.599168042359,-163.774996885191,-333.154137466592,-429.353754731439,-211.494520610056,-417.698415924037,-507.376014222259,-754.224148352041,-59.293782507215,-334.202801105459,-497.205684751764,-657.241805705075,-753.25902845477,-249.661989766905,-490.318299526594,-702.887335350101,-767.64118138596,-734.169372135505,-762.211812663685,-783.864348940138,-336.503264674514,-377.661395602599,-336.188184199732,-339.388712452898,-370.290794596018,-313.060061565408,-358.835098400656,-276.227429827731,-331.498876724381,-342.417547161067,-354.337926175196,-291.835232476532,-334.21195477406,-296.414772681652,-299.458270683439,-316.044219906155,-367.063034930069,-285.379357597641,-307.793857192827
-303.231298060168,-332.509276091509,-327.964472354097,-338.881177630047,-363.485217898115,-290.119650957989,-366.79143603715,-376.903719632992,-300.305234507067,-314.197311156795,-331.267685528816,-216.206121230296,-294.275807454424,-324.288820161949,-269.076804626883,-260.423954281629,-239.953995046925,-354.992842651655,-316.944209944281,-296.271918241061,-319.888036036327,-265.062622745755,-309.010985223162,-353.889664091649,-372.6691405766,-294.522601508038,-225.663231360764,-293.101151573121,-330.47066252089,-221.100636800419,-318.233235082299,-373.396704114023,-671.283250809094,-86.4926873448995,-290.757125687433,-381.580881456137,-483.369300306789,-693.79227997532,-240.650918494124,-412.826111720589,-584.599664958941,-691.281606425199,-669.332800340835,-745.522380737553,-816.420114676959,-368.775667555672,-422.728391447646,-375.591829272577,-382.859472968609,-417.034770240707,-362.961833571104,-405.90948968797,-325.140783553592,-384.578225951366,-388.745411274497,-407.148372135483,-348.086432720015,-386.03430096096,-350.815721084236,-353.975351908641,-367.040287764601,-414.311084612148,-338.866197891965,-363.749904898006
-332.278819426433,-355.662787388208,-355.59935329976,-365.378019188113,-383.903449157527,-316.450376869647,-381.704881826595,-392.640845083735,-333.66642532001,-341.040477493101,-353.438068718063,-259.927551594107,-327.037972817543,-348.668656870028,-302.053673820314,-282.350313861131,-272.922809613886,-363.282823487077,-317.588100426189,-310.952433594364,-316.311099771625,-292.54874640859,-293.854033752276,-328.905643445107,-337.868175764385,-227.328549832684,-234.898905207668,-203.094004361958,-224.92716601254,-168.624724362082,-197.846907805451,-232.553566204,-520.758844684758,-85.8432560945172,-205.520779882929,-265.692912163031,-322.989952370751,-452.17334794392,-202.376598960151,-319.91337368618,-492.48380158729,-474.947064945767,-538.341290259408,-631.207919247727,-691.982861900272,-361.137140547891,-417.689487568328,-367.387262786025,-392.741555569001,-415.368092119742,-372.561009083002,-413.417026947714,-344.086617449354,-394.011599832555,-398.24940647542,-414.604563011243,-367.944434715659,-394.213649251324,-365.328063378744,-371.212863774991,-374.76871513487,-417.509583887062,-354.570602443215,-380.84165781513
-289.190515438472,-314.569348418648,-314.98518848353,-322.406874067848,-330.104942419744,-278.094835375237,-327.940867283524,-342.625224123597,-296.333259212778,-292.072506085466,-304.047047214199,-234.145262616957,-291.128670640518,-298.363011236141,-273.117813733832,-239.784717888134,-249.96730911226,-312.347721113224,-245.344449335678,-265.31541740435,-241.451281562875,-258.626728514469,-204.00198922607,-229.092054509503,-221.382697653704,-82.3043633273187,-176.789597917349,-16.3561763280594,-62.8079848323231,-27.8626773291483,9.54008214514377,-6.49976955747909,-241.892184752609,-28.35458669176,-23.4333566315932,-60.9702992299648,-62.003772834003,-84.1580026356322,-92.9785100180297,-129.752359661326,-298.688658103497,-155.89342021141,-322.942213760531,-371.794146676365,-379.70859620319,-292.927136133055,-340.736450449602,-297.133805166398,-329.617156314832,-340.24703170433,-313.091693457343,-344.287445167387,-295.772406066109,-328.852726381353,-336.753717816982,-343.303240879212,-310.12294816629,-324.77200827879,-309.600573823894,-317.023797395691,-311.496337862183,-346.29013651452,-303.616347948656,-320.110321832557
-191.21951689034,-216.951727733203,-222.358903022304,-223.153076793096,-223.910412201373,-188.600825442604,-230.086980949257,-245.38971008795,-206.31551564292,-185.805136549917,-192.105842558873,-156.275072891099,-193.866754442358,-190.518767501523,-192.901340254092,-143.479851398627,-174.762778050888,-215.813777616165,-121.688388227843,-175.499361969543,-113.336180350648,-181.802011038919,-66.1964855400851,-73.6313097962844,-85.9092842509946,97.0918665188865,-112.389555620082,185.279038525042,117.467182275345,106.613003024781,233.384217494312,235.325314351558,75.3187967870122,24.8295251403911,169.254598448373,177.753031147157,198.04715101103,271.002202107128,32.8268490245619,98.5664530460144,-32.1491109635781,130.283840951359,-99.6724447101191,-69.3347117753211,-13.8082891378822,-187.94777195482,-215.910933132322,-190.942267983363,-203.226490650341,-211.06157301154,-207.137425164785,-213.153288443245,-195.322379331796,-213.4355479896,-211.603860542811,-211.854633236547,-196.498045868971,-199.701402534985,-203.905326811287,-207.133577451725,-196.490081518076,-219.631917471226,-201.522950376684,-197.517656603373
-117.21167000155,-131.489970646198,-147.654042067069,-141.974191087807,-139.408465928773,-114.482874555583,-151.136167157876,-160.021438874214,-134.436889518477,-102.76010808595,-94.6256818169656,-100.29131160353,-110.076605114894,-101.271836327192,-121.983653454575,-59.9507501800336,-108.404160853319,-123.518699125591,-19.9893759987981,-90.7510172382374,-6.74624905185575,-112.413186129212,37.4062944945062,49.4291137488257,-8.10109090594723,203.185877657738,-96.5799155911449,270.108936638278,220.720270229151,128.228184085912,333.108830238122,358.164244847653,245.180650844631,-0.629388078953358,242.490124362241,303.429734450089,293.400250074809,456.418431251854,75.6177827769298,217.923725453161,147.41583548499,268.652384799173,39.0002181116134,123.989672981523,222.114499585983,-115.657931455449,-116.881645071452,-113.838465709993,-103.51288873742,-111.050124153326,-129.837487286857,-108.749366305857,-122.964959200919,-130.475915303009,-108.337369146566,-108.326301833915,-115.521809501618,-106.250806654203,-126.769568952328,-124.912601293548,-110.62297413086,-121.436534717132,-123.579181208563,-103.351374842963
-94.3530548128612,-94.0245286605101,-116.595629006225,-105.754321327729,-102.644188925316,-84.1899910116026,-111.343145225759,-112.438220031913,-102.782489709848,-71.0592206910035,-51.9719587912081,-82.2607760592221,-70.2662712779961,-57.8081989891598,-77.3813199334584,-15.827973445595,-71.3576762301822,-59.8469322041195,29.1601450076033,-29.0466144720781,45.3904079214319,-58.0030156651992,77.5623262987223,101.74386348393,18.3821037522882,199.614861247055,-116.317006500494,227.563725124123,239.461751419778,42.8554134954862,289.554913669309,366.081450239749,250.138759748789,-93.8430873459807,199.230011498343,290.022900635665,244.89756672448,465.318646483651,34.6497917813497,221.36380781228,197.889236143693,277.617122746617,98.146445773504,183.703703169277,296.425698948102,-88.7583983591061,-72.4713617370021,-81.7102778783821,-72.6294967624437,-75.6322984990493,-104.38911132913,-71.9273285245817,-103.85112734153,-106.498342153503,-74.4706009952154,-73.9728581343549,-93.3329552636965,-75.6169949183289,-102.734557218592,-101.215716076183,-83.675431560524,-86.7059513259623,-96.4065318191921,-75.3225199774832
-59.4806143098462,-55.0664993505706,-78.0615725592083,-59.9630489900761,-59.6681831599516,-49.8392677736548,-71.1992696073443,-67.8950659708925,-57.5828816041833,-26.9849964291326,-6.39691223915723,-30.9781998770389,-18.8959365681264,-5.0471702114473,-14.7039898563979,37.8189202617497,-18.535348866915,-8.04640820726192,72.8139721875744,28.1498251963911,82.6384747251258,3.30468295590837,93.598630806451,130.719570338462,22.603671855932,148.705508241845,-154.884500622242,144.023373722376,248.477872441535,-83.7474919555922,201.483388141291,383.718372049864,254.260250879435,-212.033744512156,133.507426291689,254.438469123162,203.83256676075,446.912061808665,-8.81677634054539,237.633334181287,243.139136921243,272.702247392406,147.757404425282,216.9919771755,317.456057740705,-53.0451180514777,-32.6327612870914,-44.0847377914571,-41.3833808087396,-35.8599334991753,-72.3976177898435,-37.9534427287101,-71.4309229222713,-76.9169470456807,-46.2159883220071,-42.3388128958408,-64.5966490171099,-39.553687525264,-70.6678448531239,-69.3886947696431,-50.8107986188035,-53.8293771115501,-60.1436811653879,-43.0469430262783
15.7890282651228,13.4010841041437,-17.2301830804483,11.5050681344859,14.6596234230987,8.687142494574,-21.5678202866511,-14.6815334276769,18.0878047520328,54.9941461548711,79.5100718698677,75.4882825414499,66.2542040563676,79.711969257522,60.8717370984813,117.060393181964,45.6029449332988,25.0692495946725,136.890384217186,70.2384869254586,122.236681664263,51.011821353304,104.329154605996,160.906008396163,-14.3374902099736,103.830469659491,-217.543916165426,62.5757010521251,256.727689372672,-204.25109681893,107.445949021985,425.091459754129,354.507984952369,-353.56358456163,69.4379613378075,246.841914348848,228.558826982907,500.667285434461,-28.0252946219868,301.860425909016,339.395267954291,324.806005312631,198.169702697961,296.457173851879,362.314607498331,4.2735655917786,38.8595855996591,17.3671252661703,38.0608235435961,51.7657954032081,-6.68491469154331,38.2082132597097,1.38796783300337,-10.4331295738393,29.9650527458242,37.6647440020132,-2.4909838872513,39.3975032859962,-7.34419045204806,5.03310507244559,23.287627773684,14.5341527140895,11.6074663849161,39.0313407685567
80.3996930082665,70.7655785479511,19.8278386604891,62.8886064522281,79.9195306723333,50.5119388075213,6.4639826063428,19.7851539435272,77.2207159911457,122.401135741656,161.088370137336,167.40415014843,135.075366406087,151.21800058843,95.8353150928392,181.029183051169,64.6288001187687,23.054896094199,193.154730963479,75.5260765796394,141.902551904988,55.51181118765,104.518952324825,168.266777111392,-80.6454797364565,73.3895153418728,-267.212278745861,-10.2228408174413,209.571609941883,-265.883098580004,-13.8169022376448,352.784310454143,491.950163687244,-484.740899703175,-11.738729066749,183.722201212665,243.277712257724,572.916348023711,-43.2090661404402,323.765116544963,374.583985026018,404.717307857583,193.675241209085,376.756362530174,421.44137913997,48.2863441531672,121.691134966746,72.8418593556361,125.305709566995,141.842037906724,54.5252833050564,119.555918317704,64.8169838608577,49.55478275653,116.725644039001,128.660675946301,54.5912338888696,119.450141020499,41.3457405888721,75.8638618730519,96.9154285565522,83.4967616260807,71.86860236357,124.117910120138
107.555321054059,104.254292298536,32.4794507041796,91.3813225868464,122.058207993969,69.2069280272964,22.4375026111079,47.6831002527844,106.757814872971,157.702662506078,209.976745147096,199.370261093369,166.589227856037,192.846945767217,99.0546170407151,222.981892562667,48.2815285374374,23.8032765923524,234.618123877391,72.4888552294386,154.777433118379,44.3324243919795,112.91002498492,168.749206233706,-105.004095956355,73.7749547778732,-252.313322778921,-41.4989929761693,128.178644652396,-232.662740802639,-106.237896071594,117.699836464535,583.098467458861,-506.247999757589,-52.0475871353236,32.3086471360787,192.815907317052,572.016788554524,-26.0622447690877,279.220607074218,270.368178814919,445.44687555502,129.285648279394,391.631137628795,483.173585018839,85.0648057762289,197.345706979035,121.570991529199,188.121190111677,202.933495581397,98.1329313176448,181.320825573897,100.674876874611,88.924799689294,179.020425708499,197.327185878749,97.7382225402219,178.445097290936,66.6153794209176,121.297080066956,149.992621848154,139.620983588784,103.833740311106,175.539143295219
130.088872042456,146.202753090568,65.4209011661843,133.907539058798,167.371437615923,100.504451330231,61.9852214533792,102.375290317305,136.263758249562,191.520508304947,245.331189833341,193.219120987792,189.321914969371,229.778467840459,117.836293106269,262.024225461157,54.9508466000218,66.0372629326228,274.337616294378,96.0656820951366,188.948231545638,55.0295300557079,143.442434236247,202.434255362667,-63.1535319307347,121.690697994546,-184.768380942974,-3.80890550967908,95.0657986662419,-142.81289790344,-91.7608614921711,-114.2647310415,587.665135260642,-382.641530386385,17.8692975030287,-93.0849188904665,122.542823470339,470.140206724585,60.4136260453685,242.360562988725,125.110616802331,398.325507841241,72.7291606524915,337.580910831365,544.825009890627,145.003286482534,260.725332305724,181.618016745043,239.72861785339,252.527062208665,148.245781872484,240.071962598953,138.935645943538,140.374218548649,230.548686779295,254.133277742497,150.400095961737,234.41548009621,107.322002431295,168.874616667095,202.614081275746,205.093082031727,142.484050086594,214.773981724036
157.390485660812,183.558669736428,106.019553393648,171.389181795773,199.983248701155,133.483625915022,102.330367137745,149.241065675677,154.471963874687,211.286313763545,257.604884602514,167.336985113288,200.046852606189,245.111314906804,134.173681281803,268.640719119827,70.8894811982283,102.963801013574,281.544104483778,112.445927287259,208.646842360712,63.9071970090215,160.169648880966,228.660265152853,-19.4231015724188,173.272916174199,-112.217016652372,70.7575583369741,101.544264413684,-62.4159189288127,-18.8988970640048,-174.789750122792,489.740910563921,-208.503382842638,132.206861412305,-99.3201588522065,93.3179169061896,295.887505183769,162.74421717432,217.906920805475,69.5802696681183,276.637195552303,52.7770203728744,235.48193664963,559.69494074061,196.274146833135,282.162827923313,221.57725362391,268.806637453063,281.190311519742,188.294746006603,278.106558548091,172.55687149031,187.766851576091,260.388464157652,282.446482755191,191.453390991621,269.814693350378,152.420760825247,206.541242872273,236.439241204821,252.895865105928,181.236592773536,241.963899536202
145.876687055962,162.510978388123,95.2559701152608,145.990645359033,169.559909464313,117.426721711866,85.2456968187185,122.373650702023,120.165937875394,172.59074138821,210.659904584566,110.293777751592,160.671436832295,193.581900884876,95.2770138368835,201.286979129451,33.0302946752575,63.7747814112832,213.486747451673,66.4562136020527,153.45022544027,29.0556494047715,114.216886636741,164.648484884624,-35.7094676811034,145.585845194264,-56.9062025527057,97.4114858668074,42.3964337973022,-17.0118063290853,-10.8136502668025,-146.546463930523,311.889223441518,-88.194275041615,141.245670391702,-72.2362321511857,73.8532489593789,100.515462708639,178.158828783132,111.576497751408,77.2724277753357,159.621038786395,14.7988479318472,80.6831982460225,478.691806994626,176.498124553978,233.476296975621,191.88488512681,233.454930767413,245.649142099032,166.524378671873,245.981385144474,155.900049248959,167.989274569784,225.463373068597,239.573199230481,166.44496409372,235.497292593273,141.212274118724,181.597263987735,204.428729296687,220.904436044916,164.64088640929,212.665314617975
88.1884765326483,92.2755452737503,40.5447062231584,71.3467878788262,91.3402719503979,61.8765634028675,23.3708438189684,42.3671036702759,55.6640308245961,94.7152300774849,122.605291285891,38.2133718287465,84.2038161278018,100.0017656741,26.1872871986743,98.8186834554259,-32.910592126252,-17.9394133536219,103.565736682467,-8.99473592372864,49.2869358599533,-19.3458409161126,26.1256390784095,31.806060237872,-84.4294168307495,28.2482776985447,-2.50743952845253,29.1131454736683,-109.171792239338,5.40506768552877,-93.8721393480493,-223.143754084342,77.7412732108439,-12.7022336192402,17.898266436501,-122.554140455036,-25.2974264926823,-120.455889303435,95.6279432590106,-78.0625719821645,20.1365861880669,66.5087713866852,-75.1146658009014,-130.097090265082,290.447068362432,100.809274281618,141.085979395489,111.140588732159,143.60471705659,149.403730189632,90.8577796173132,152.361518984196,90.9418978459871,85.5686918988941,136.103662994303,140.890150777442,87.2206576924249,140.908152072407,76.0895052297202,102.0085391584,119.56567885074,124.181510506146,94.2013021112337,127.776994684001
39.2749786041053,36.7051223095326,8.15822272170535,17.8765807623854,29.5548156168808,30.1191307885245,-16.4931943419798,-13.6075284148769,23.8455655040064,39.3115068183984,49.8468094038887,-3.43893839498158,30.5495334968955,32.5919562976166,4.24511268992172,39.3741035685336,-34.6100281274315,-46.5058774307359,27.0486471197019,-27.6843541327683,-16.8676504115814,-10.4097161710335,-28.4251734769098,-67.0693755069998,-87.8403965799757,-92.0371236292045,83.4289475918082,-63.9952506374395,-247.236257533942,34.7740285001574,-166.916157357863,-381.566242575596,-233.139443699366,84.9599781401654,-94.1361484022337,-172.558932993317,-196.730368284071,-444.372349971232,12.5668101837968,-190.327391053126,-118.487552198543,-102.460768848501,-145.00720751614,-344.411577426617,-25.2689603805519,34.2800212433589,47.843662022665,34.7448672552159,52.7653397932638,42.2864358070649,23.3876196169079,53.7471534771207,28.735366410781,9.56837502756155,48.7375369775398,43.2500193826639,23.4658603276484,45.6043066423046,23.879581622883,30.6022923002919,39.2393351579991,36.0975664623095,33.2032618493265,43.2256001876565
7.6683009666543,-6.37049162703535,-3.50769391260899,-14.8977835976527,-21.8869301968596,22.450181310128,-37.4203053866146,-45.8499449147483,12.8369173415067,-2.22650284039636,-10.483396907241,-22.8613639521627,0.567814579011111,-15.033691190937,24.4123188465104,17.19593391305,22.2990173824493,-22.7492118401736,-13.7651626089992,11.2747627679337,-29.1855998903128,49.7774577088405,-25.8323539598838,-101.082770121754,-27.8278727210616,-139.485618217085,196.512576129312,-71.6373513864287,-287.537195494538,98.7409149626112,-136.893316153311,-442.19256282996,-556.098188057473,197.371222271733,-75.9162949359111,-101.691705502476,-311.230082910011,-814.102868408547,-9.47033087579941,-127.814340796527,-209.994931995253,-360.172612535952,-111.185245208374,-474.972401423745,-443.825060847212,-29.3351070028529,-58.5404628448413,-43.6231727080746,-44.9426044542966,-71.9799768694764,-34.9053723179769,-48.7533759291502,-27.3721729201076,-54.2246123869683,-37.894030902769,-58.5451903751652,-24.8464956924048,-48.7594024100165,-13.5321889366903,-29.855988152626,-39.7756007279251,-45.9756770201828,-14.0046183491752,-36.9495594610947
-45.8456708206757,-79.3314980701453,-45.6321219287663,-73.0087323692222,-100.822661480405,-8.87095647710996,-84.543043635058,-100.928159692991,-26.937485026449,-70.3050813118647,-91.8275727649164,-61.4687240176584,-47.4675377590218,-83.6113112392935,21.9294101716908,-24.3101869886991,52.4507189624395,-15.961064681657,-59.9720305961202,43.3253013358217,-34.9285511797581,97.1149606055323,-2.22877182166276,-107.690718876126,48.7165637332928,-111.664990261848,290.978078802161,19.1466609400978,-253.69942262421,193.836811606557,-24.1616986879596,-369.9618740524,-695.998072801124,269.934157290373,33.9032976711292,20.5083426258295,-295.430245127597,-957.203872238337,2.01906849062832,-1.22105063425765,-183.3035367286,-521.090950699325,-18.3878597404572,-486.349450478701,-781.043707735605,-129.535040990187,-193.34476608171,-150.893849999926,-176.769104738862,-212.080499217107,-125.051816787052,-178.624331480952,-107.348444050096,-141.773142919222,-155.658966687777,-193.66337470258,-105.165118564837,-169.130521988675,-81.8331811043975,-115.294163121085,-149.667294008593,-163.003192375418,-88.9284800044731,-143.737783319623
-98.3445348856434,-143.232002991144,-93.8297054187689,-126.744738180788,-164.086339644696,-47.4930853744153,-125.641963864737,-149.70142807589,-69.8305575512775,-127.419523232367,-158.231593489611,-101.060853388328,-91.0293423323613,-138.348753636815,2.34087614707463,-71.0459661081351,46.0863311372681,-21.5516077656936,-92.0712418970405,58.5820266194719,-37.2416519554338,121.530086443735,25.7686846941757,-92.6009735176852,110.649876344176,-45.8579397069777,343.956601949617,128.723171635153,-199.124912763449,288.483992584465,85.6583978447075,-279.56273222558,-592.884695675782,311.659186525868,143.582044036779,49.0103973486367,-226.13226644904,-732.270939586038,29.4350370196875,53.2778575721087,-131.922541959801,-470.06338923069,15.6729108512615,-430.432011541968,-837.965862698792,-220.090934906981,-297.429796585311,-239.765030327038,-283.088172419757,-322.692867283329,-208.975006721569,-282.947993667219,-177.475804093008,-214.692766278517,-258.426097023972,-303.195687690942,-182.030278815485,-265.719822072243,-147.369282578794,-189.505152659528,-242.478412202225,-263.926221159929,-160.566962057619,-234.689654029604
-101.009197124707,-135.764097107036,-88.9479712856153,-120.92316172694,-157.435183711829,-45.4406833241843,-104.618041270866,-135.461712452625,-67.5345654030508,-120.984118105355,-154.994284671585,-103.488106363501,-81.6872375759678,-129.582329355403,11.9809870078044,-74.1716183515257,52.8126529580302,4.11217292170662,-74.7144303070508,82.9264914380233,-11.4445498467069,149.474645863702,61.4794114884576,-47.0684703144367,154.600481797712,20.0314304431518,366.683205458859,196.728961183121,-135.798039646826,353.66912679692,149.951631648527,-219.715085822404,-418.87020228717,360.557058705228,227.02496927317,-10.942876689868,-187.560894556623,-345.85856810538,85.0312080275643,43.80891529967,-148.669136135677,-337.073874837902,-33.2895291298301,-374.639929024921,-661.780332223778,-228.401995579084,-308.525179499626,-246.192099111288,-292.122345604636,-333.402295421594,-212.09355613897,-293.266208028169,-180.087214125399,-212.758305717214,-274.773617540768,-309.594418645327,-185.73205864963,-273.341372706941,-145.030291900787,-191.467178382998,-250.235338493587,-272.583509235349,-165.676579683933,-241.997143527384
-79.859688645386,-94.2586483439784,-56.0451024243928,-84.682577612502,-119.722255994772,-23.6593728215349,-55.8307356418694,-87.9572017381526,-46.6259378194358,-85.5053287503571,-114.44056470605,-95.6730899591814,-50.2596041602527,-92.0334886992217,30.2961567416762,-58.4950940372583,65.5014440105034,35.8151209433241,-45.4454133925414,94.6036287321819,17.3077315780207,158.366665680661,79.9748647939539,-4.130505776407,160.868636709778,57.6692521014905,341.199481165128,211.536459089663,-60.9612807766367,357.277881418562,174.850999703254,-144.032259322295,-294.711967991909,378.782448832489,275.154541204187,-53.0454487898785,-154.249790664818,-59.2739031888214,129.764388323474,29.3350743900046,-181.30161408678,-261.308364152854,-89.2552139474879,-322.584962169424,-464.368410127535,-176.613160671744,-255.99241817441,-193.20245644583,-236.876719296566,-272.985878483736,-153.848849383086,-235.626417952123,-134.654694578876,-162.604627526673,-225.051384540791,-246.243611979808,-138.478071207214,-222.51657732532,-100.588910624641,-146.042259959223,-202.465219455929,-216.852820259824,-124.126691099109,-191.016917925664
-90.7699422109186,-95.5266926309829,-62.9783132634223,-81.7203435407897,-114.420877723608,-38.7104666245734,-50.547176837954,-77.1738841523762,-60.0165848042148,-85.228773272778,-107.525291916202,-126.096184822591,-64.1220998003053,-90.2293741496956,3.74548902448293,-85.648362284976,34.8709560868735,20.999088093952,-61.8831057866592,50.6551854437337,0.403457275613517,98.5258535692976,43.878381810592,-3.59388475067655,99.1997076599974,48.2546482659082,218.503585594617,156.220314625556,-0.532410691030393,256.119826894105,144.599593098181,-47.9167702195642,-168.512746205581,285.497343965905,232.761907607022,-58.6124392475734,-84.6249283430516,85.0429682614249,92.9644864590654,2.29087612153944,-147.085973502501,-205.637380445834,-103.682159114762,-243.921205584762,-325.326096211809,-132.918937952439,-208.149418424722,-150.368292771992,-195.141534261308,-223.326051263558,-115.109948191058,-186.976260265142,-107.048673256683,-132.644418996616,-182.491065079621,-199.556283946427,-113.515715258613,-188.792419174564,-84.0656417041304,-120.414997801876,-173.239015506237,-175.953325895353,-107.005634781118,-161.071821510283
-114.341401511118,-118.580692099076,-93.2193362609922,-96.2924158515372,-118.848565702734,-74.2272237702615,-71.3128432167579,-87.9929291425878,-87.1318070248264,-103.035753220902,-121.37639038018,-170.297243309576,-102.667222987676,-108.573346374117,-43.5766669814862,-136.157639144169,-25.5760682114346,-14.6956909658508,-98.6454714084896,-20.7633384969259,-42.7603701379172,-6.13456376093855,-24.4894446437811,-21.3828678697658,-5.39670886678264,9.30937098120376,24.486322791283,37.6095496890281,32.9006048241431,72.4496742345417,47.9041832506855,21.4098359211371,-0.410864830015596,100.672822260695,87.846166799279,-91.7182127027217,-7.31741059104067,175.257844020258,-8.71854883709085,-56.0410355649009,-73.221959923308,-94.6656255702841,-93.2297903591872,-140.589311632075,-166.920048637903,-97.5421716652056,-166.577307920851,-119.134348242092,-167.682857945416,-191.617507120826,-100.157630569319,-156.874068086494,-98.7796996364025,-118.182873484359,-153.280051999669,-171.602992405199,-109.903788134042,-170.36808591701,-86.0802884751473,-108.887801457371,-158.225031735762,-151.713030799929,-115.914118296563,-152.300186277114
-86.9067229746011,-84.8304135155662,-73.1172988138041,-62.2107899498207,-72.2877639670007,-63.1311529059806,-44.8165745814811,-50.7871974413411,-67.1970369190282,-75.4385640314983,-88.2467754425798,-164.536199880432,-87.960257075123,-81.8592798585886,-41.0639449133838,-135.16321331324,-45.9060098141741,-1.69294862628628,-86.2167330386959,-43.4145350649568,-42.6444075781677,-64.6280889666286,-54.9155963615801,-2.82470310499062,-71.6690454104711,-13.8678477649728,-118.153856487518,-72.1182132532745,67.6803420549549,-76.7832037452312,-55.3070163283655,51.21306858841,137.937211087012,-43.9074858980724,-57.0206745375293,-159.145593506312,26.2649099859825,247.689259150908,-75.0450696261878,-109.089555357257,-38.3187678329434,39.4987170151925,-79.4229219417026,-41.6442228657516,29.2811102185414,-36.02255241677,-93.1176048210071,-53.8129069015634,-104.000544834122,-124.757103589331,-50.4467782501936,-97.5828986151422,-58.0587663148829,-61.8887782323806,-90.7659931285325,-108.285054767135,-69.3972612698382,-110.849375830736,-48.8394368937891,-60.5571459326715,-102.35596687967,-91.015943050331,-87.8257168313198,-102.659489102732
-20.3586111397126,-7.51706561719956,-10.8297899157318,11.1797488955386,4.80497784257813,-10.4444204292809,22.3201241150624,24.3884649744557,-9.06378341851907,-14.6922951761765,-15.7400200919091,-116.744509069243,-25.9326971718821,-18.2931469286234,0.113892994995032,-84.1509476460585,-16.5743748449478,50.613410806207,-33.9065102727176,-12.212387928839,1.23251124517881,-48.2855185376765,-37.6153917829483,36.2815218402217,-63.9668174475434,-20.4478632339687,-132.646333764388,-117.300136285547,99.5976435905136,-109.086126468916,-93.5843720468384,56.0874947038598,153.662715600805,-71.816756826871,-102.145944052438,-199.897185154035,-12.5707827570824,250.983747262123,-62.3933967588603,-116.734647408337,-63.6367382980692,114.599869556782,-60.2376741314546,31.0461023323332,173.587728134978,26.342131421986,-7.88991791423176,25.5019087134319,-16.9261107264376,-30.935227040378,24.6001320381124,-14.9150260148816,5.97242902762997,24.1363142390009,-6.74902734034555,-20.2014787588955,3.15962782612377,-20.6314555532519,14.8011946688397,9.89296812476042,-15.7474101378179,-4.62487910629732,-19.7747245852688,-19.6275273281685
12.8251903550249,32.0034196246738,19.0523665701131,47.6921504321235,42.5268363333148,15.4512407089863,55.7951976772913,63.853993856465,24.0110623307391,12.7012422969739,24.2729850672872,-89.1821116273668,7.40620508841354,13.0680242969341,9.57706432970809,-55.3458556501447,2.08357210491771,70.4384619369992,-14.0745086247013,10.4273405204083,19.7130886237624,-18.1539834650683,-28.1825125043312,34.5354826710994,-27.0119899623697,-45.6175638025966,-71.2890320489601,-117.377637336428,79.855813754156,-70.5661271815263,-79.4364742068557,29.5195483832272,43.981504839079,-48.1865593282912,-74.3977498277824,-191.233693790384,-123.343423597433,149.380836627999,-34.220580152098,-95.4339705111575,-128.063013199561,103.477789431477,-35.0365284215652,66.6746875962357,214.480959877724,43.6356174657406,35.9682607590614,55.5224603417065,33.061030137904,28.1464373959044,62.3689295012509,35.4406208709112,33.4449617688051,69.8983859283409,39.2701872070224,34.5836863978012,44.6276326432627,35.466558659827,46.5329007161764,45.5211507657381,39.1199689507977,47.0568896014878,22.5569167024254,30.5982582128327
-1.09968914893701,21.0461457119915,4.65097292407071,30.2755833645114,32.8221628791944,-1.19584482571809,38.1935895583403,52.0657955712945,12.3226269280262,-2.22429349882574,10.8303129427238,-96.7349172363273,-7.59234548205569,-4.36601053621373,-20.1134699791137,-74.2305637404021,-16.0065332636122,43.2252464801692,-46.6138779206355,-1.12380751870091,-10.3058516939453,-17.0041298844213,-43.901503963274,-9.51036089995471,-0.756594097417057,-77.7138872232324,-22.9156892511784,-105.161706903103,13.5339760858493,-46.9545828929398,-72.2535184315971,-29.4925788430239,-102.833933011562,-60.3586149222633,-60.6572259043774,-166.042878226758,-262.778957779142,-14.601262817317,-52.2608278073706,-86.3237804817031,-213.750136484146,28.4679905047769,-16.7671195591283,65.2453651821843,178.73632784986,34.3038794912443,41.8686502717447,39.5487826525579,40.662745402444,43.4202827016114,60.7630335401401,44.7687670107747,22.3450429135352,69.0744253486862,42.4596301249104,46.9195398555198,41.2815408079901,45.2089638510541,44.5106015695835,43.8100780754777,48.9358132275153,57.1080778026564,21.0057661201563,35.3548872356325
-16.9108341213503,6.80462548867923,-7.44680874128345,10.8305414468065,16.7512399788785,-18.4064112874212,14.5843080694927,32.4437949491142,-12.5210515826656,-22.2854379419636,-16.6948300790472,-107.91230231588,-29.3100375113634,-32.5837029750274,-43.5922015073153,-105.522774040411,-40.3732066435031,15.9962750577011,-90.9080642182963,-21.3314086804232,-46.7179096619887,-26.6617690282432,-49.3270275360125,-48.403841973862,23.5343233756271,-71.2129772246969,-4.97439317354755,-73.2774413220042,-27.6281912058444,-38.7258479177081,-67.5673043367902,-70.2502397126203,-204.654221765594,-83.1896949025848,-66.6511410679609,-123.663480718339,-339.582718327357,-191.880294513705,-75.5510682749447,-87.8720425276085,-271.537932253409,-85.1893534726113,-4.3971756708889,54.9643243227446,90.3429839636772,44.5027716334704,48.4783153758296,33.4756095845758,46.245240237963,52.3195201155863,64.5354871907145,48.5340096694083,20.1257807329103,73.1934609283715,45.6736620802122,50.4397312125578,35.2176383704238,45.3726886380602,44.8042164285058,41.4060796882513,50.8862852794703,62.578087062378,17.7529492416619,30.9892666240853
-23.2107221692048,-1.17954618502531,-8.00489695706043,6.07503478993472,2.64490678690987,-24.4638889801695,0.762836435961439,18.9358343522426,-31.5079502850198,-41.2197959330942,-39.696787623253,-114.321053575165,-44.659134416702,-57.5073327088334,-55.3468513373776,-132.31941260665,-53.7540135670724,4.59545840721994,-124.432070669813,-36.6811952622713,-65.9287564033602,-34.320391404767,-37.165130300403,-68.1038390707148,46.9865249663125,-28.6333992830837,9.6830490561435,-11.0353955486853,-9.66012196568069,1.80300929040483,-9.88635368354204,-30.7012160748795,-232.471857566497,-42.8666248324941,-32.2297040959251,-23.5259342093894,-258.020558368092,-356.600116877708,-29.8711483924685,-68.3381840365742,-216.670387969421,-190.533437305135,23.1020495991365,82.6904493583754,-28.2218285876721,67.7275980850873,58.3256321926562,48.8899485409226,55.0824664529469,59.5368582845844,75.6551562663116,53.203082850449,32.6323217736965,86.3271124023504,54.0923150712029,52.9599650622935,39.3591186691374,46.7411159043742,46.9338549841375,40.9138465221352,53.854771580785,66.9808979699664,23.7235327692381,25.9137746124436
-35.9019463824482,-17.4978177445381,-15.331618824309,-5.89217826329516,-19.3542137069633,-35.743030649798,-13.9860861811856,2.04995379345014,-46.7551619638656,-63.5702266985015,-63.7582094823258,-123.856514866168,-67.9715446249976,-83.443002917882,-75.9103214419019,-158.054595105606,-66.7605588574588,-11.0880471985788,-147.255319443545,-54.074701105776,-77.1520115620235,-55.4789399038068,-35.3521501864155,-76.0397376248728,46.7074696160379,13.8957987416939,19.5553258362492,56.0222646892316,48.2392142771337,63.397513267423,105.200671553519,101.356200346001,-163.365438456944,43.005946968124,50.8477476936464,135.780382904589,1.18148832972428,-427.298709907262,66.7493053803827,-16.3374101483854,-8.7917228146591,-192.863905282668,89.7039635968112,180.578861680585,-95.2379441476096,77.1174914354845,63.7134631213227,60.9098865573008,54.4795188670971,55.0193369482041,72.8383891484231,52.4747381112058,37.015312109651,81.7991065347511,50.7396726911326,47.3123800994855,37.0197841857983,44.4247862456699,38.4866434987955,30.3179235638578,42.7524690711874,59.0757391450787,19.8889683825635,15.7376714366061
-38.4978305710308,-21.7989791673661,-15.9176118932861,-13.1677072465866,-24.387776289199,-39.8958661128509,-9.76747907731722,2.04204842783169,-47.3298584957879,-64.887070074132,-68.3152784818703,-121.722389895165,-80.5653586932058,-89.2321001727553,-88.5562117973891,-162.74752604985,-75.8606040378066,-22.1991161429625,-143.236384392992,-65.2133341066042,-72.9738232781959,-82.3378790841753,-41.6217046008457,-52.850788774937,29.0390230299297,51.931773502207,10.7084172559117,96.1234664184648,138.31456511632,95.9247172671868,222.022868188147,284.155589995873,14.4651122935164,95.2994131815073,130.19188772057,301.72611932606,333.605493719311,-304.364650038568,135.858871440306,58.5213887770427,285.429621989439,-28.1781250396767,211.287974316509,341.298494746123,-23.8813608699373,90.9016911024154,87.9554373269668,76.9238212702109,67.322697395256,65.9692983844336,76.505319359057,72.3501091738866,45.7337134829444,81.2438595412463,56.9471989489069,57.5288888203383,41.0940731580565,57.9910444006548,42.2861541595778,31.6021497075923,36.5315956996286,64.7051089001736,19.0426309497221,24.5333699447962
-6.29155985529344,10.4040152366752,10.7349071698303,11.5981787535437,12.5534610693879,-14.2859967108267,34.6198350193672,39.4803970300066,-17.4511243237474,-30.8845322251609,-33.1870594938461,-91.6639646309259,-52.6582908398822,-55.1169839667062,-65.6145943584063,-128.446004892895,-61.2242410518136,-0.0958275123954166,-97.9316267502507,-50.5827671228889,-38.6755081727245,-78.2958297241438,-24.5461869880139,10.6317712843076,33.3221904954953,95.3301796661366,4.08836415740585,111.094044646106,239.761416157824,95.3908428040824,287.487318200671,430.162394912276,234.210309603368,95.8909984341228,168.44775264117,406.916346534066,565.055380068459,-18.7319871424951,152.203385363926,134.001325509044,514.350949622916,232.690245954546,371.368531149325,504.029942107501,161.000199192559,133.887074122508,141.150702302834,117.66434532643,113.051281872053,114.663835844182,112.644652451083,125.985655665501,79.453606122476,116.226943938632,96.9598823550256,104.340074512765,75.3426462455929,99.4511929253478,78.8137495783516,65.8872653462899,65.7063533576866,106.440540426585,45.6078023918285,65.1612124290979
51.3594891808736,63.705510770457,55.6088312799422,62.1373092535249,70.5051312507098,34.6755516202676,97.1179617703536,97.8013347219593,36.7062653940811,19.014294723319,21.4169178273131,-38.238426033968,5.15016644082569,4.55533800174562,-16.8519292851731,-68.6354867597578,-18.5976524227647,51.4421028495403,-27.1781296799086,-7.80512926423256,13.4142976859125,-34.6563013240862,19.5625172906951,74.6858037977547,77.7426515679196,128.875165940676,30.3809055974407,120.233268759507,286.769858072784,97.1600641067485,283.681203772149,448.091460209768,379.464988216623,90.9079776151446,167.90923263921,407.889988853298,586.483952985161,272.362974117412,150.494338616384,181.567122987324,562.255519283178,432.769044359748,511.489058684449,589.139397096413,343.601102624261,184.562357008976,191.208535766715,166.236428318168,165.98851933479,172.535358229743,161.402705572085,179.349208808276,124.132034057548,167.950444895011,150.123902674064,160.713946077382,128.636204442592,143.915459132618,131.430661046438,115.588663488324,118.564617443609,159.561440118679,93.0164018058867,113.091966548068
97.4079033895092,99.6259335665528,94.685267547898,104.097679881365,108.321213749441,74.2651584683641,134.807470034026,139.377833384306,82.9684168908044,56.8332773141875,58.249877025587,16.9732132542575,52.7088645963638,53.5912212328251,22.3294880651001,-16.3611391775468,23.1365370810269,93.6409156610607,26.8116138431992,34.6616468142224,48.2535177270774,7.14327338133907,51.445905608071,90.9920215248331,122.258016295691,123.12983561639,66.7939295754777,111.51376807621,234.308425157589,97.6987248828401,218.495921130882,328.334908734408,386.320899256507,93.7341995994099,135.77607239665,314.949156845133,436.394605640483,426.312489081893,144.859842797334,185.007657959772,455.950396310545,475.83945368638,559.710968087319,568.923664941394,437.757289714783,199.28482976515,200.941990610888,181.347919515672,184.141918639232,193.2966911221,182.459831962365,193.902364126579,146.721787584804,192.804322400768,172.071073649721,181.349589095379,159.983323520331,158.433188462813,163.664059119496,143.528548371633,148.575420425281,182.387342391474,127.460306168102,136.679380228151
108.923190162641,104.982922182452,117.989139414807,115.847484987908,115.791233254736,86.2038316416491,137.050499815183,147.274988065425,98.3569487916371,73.6832895082972,68.2289743377053,53.220700788731,72.5937750950602,72.7228305413556,39.2571734345942,9.57145215266111,40.0616180218363,104.435640688102,40.4008441935522,50.677205131339,49.1635018772006,19.9008050413477,44.4540197329001,64.1445818774774,119.517387460629,73.2447686754601,66.6302371824064,60.4426037709879,121.964140645153,62.6062558999937,119.814819578147,165.525114910796,291.210146063499,76.1253255447699,76.3478860729214,192.456198801825,250.180764716987,409.700961202004,118.624457335467,152.211316813284,319.177943087169,387.206422045369,495.47264370401,486.559722839168,437.632921453572,169.011855985551,173.60591444342,155.133675348205,159.874675032484,170.445132073917,166.265318908143,172.680927879905,136.905978163655,179.599883130388,150.716920452822,161.480978145192,150.597489774215,145.802568911492,159.637739434073,136.685655743006,136.255331706246,167.958574804979,128.508327057692,130.267416234214
102.467568819795,100.88747311937,128.966128495059,111.544126952805,111.691056437685,86.5063013315173,129.875936573836,140.019956647619,97.3559530388036,79.4018634112313,71.0680847320531,70.311711495907,79.5913296792399,74.5674748954997,50.356091008181,20.7624169730652,47.2571013122152,99.5166245509804,33.7052388405035,49.1460220500806,35.432610094512,24.8764303072736,16.3320370494773,31.5477362853248,80.8340030213521,5.73117548086634,33.8543643554817,-21.0024879017951,20.9388760566917,-6.12224589074721,21.5171801898877,47.0116307554195,176.512970255348,35.4589757839928,1.00670513004913,94.4564882088471,119.38553444019,279.786954145425,71.4598896102864,96.2313035010657,225.991172829044,240.93998744926,374.24261919993,383.354755980067,365.039634207004,126.371911429677,142.078637953553,120.017827481734,126.828528918064,137.032857232675,137.519177367665,145.823568979726,116.750737575989,153.788715119987,119.493176078914,132.995676270722,129.283406574871,130.672774452795,138.89848410067,117.10555023671,109.07284540602,141.874133845455,112.445370830055,114.664518072474
89.316288918464,88.8089531528273,115.382016080357,98.4839616170967,95.5256048590309,77.8152330737232,116.126397462518,122.664704345772,89.2112852932084,69.1109313305398,64.3934482807384,68.4512072583973,71.3934684905092,60.8398673756036,48.2683778359253,19.3548627187396,48.4249611660277,80.7252527519368,15.3013254014554,33.6699561473197,10.5702337102231,22.3325461382625,-23.6346662630392,-10.7562503468432,30.0633158286948,-67.4244440215855,-9.67247906894944,-116.489165591793,-61.9828774635531,-91.2979596001784,-77.405822159768,-51.092097396445,66.8436072225775,-14.5970814348172,-93.1468565982925,-0.104118025123544,12.6230816904025,101.289770250573,7.32894307949195,8.22299792321289,136.75549902997,74.1049557527265,247.801543888075,242.862924167618,221.283183967943,86.4969556533138,109.576493405716,84.8412870494812,99.5786426544429,104.074408559061,104.790032918084,113.952420240159,91.7792416444102,119.674298987145,91.4143213356571,99.8435061623596,107.832610717552,102.792187014592,109.436650322142,90.4814171683015,78.587105727217,109.394282023755,86.6989836333145,92.8663821978682
55.7606239214249,51.2944929028725,69.9450227260953,61.0600205622105,56.1862735349273,44.2817349817457,76.3162844872796,82.0205065984129,59.5370231968761,31.758137248382,29.0285369656327,41.8260668096936,33.1867206692373,20.9058333219233,12.5645059791274,-7.79466870203871,20.6776727470995,32.7224247825082,-27.9747065884049,-9.5581530869619,-44.1987006879815,-15.3381500132546,-86.6899728233582,-81.9768485090956,-35.8288341715049,-149.51613260165,-65.2117796541825,-216.822479154284,-150.998946989395,-179.841248444581,-186.236884307574,-170.381719022675,-56.598431999184,-64.3365883073856,-200.587770399272,-118.169307854313,-110.643530636355,-74.8375524763096,-67.3918772745671,-104.444296784639,8.59694724625823,-84.9032453330644,125.464238915861,64.6895205121836,33.2491149424376,38.5043267802562,59.5053566975414,35.0061518372565,57.5149565345818,56.6230137112724,56.4675866947311,59.0091322460669,48.3393053235093,62.9446351165779,45.5324564662926,46.7298146348307,61.2135366542457,46.2589906675051,59.6758593527472,41.5311195425413,31.6314894870047,61.3218544106657,38.0956862269931,48.4751517662361
13.0425803789878,8.40859873228423,26.2011883630776,12.8685799725676,16.2711373856764,2.59654987587719,31.5920651042386,41.6491677418035,19.0621175536485,-11.514962484274,-17.9691791217805,8.1815153523773,-13.6178619913742,-22.5763688634022,-31.1329131292093,-44.1896863998864,-24.591424251725,-20.4363313592302,-74.6065362491447,-62.4828127447464,-107.05323388995,-69.1118693713464,-149.531637333229,-149.225407192959,-96.5513550567093,-214.08519749696,-112.87397529135,-274.730638398157,-221.913560647223,-224.60764683988,-262.224400395349,-258.699602061755,-154.415998389688,-82.3527079155693,-269.075522527874,-208.303886135958,-187.437400150259,-183.904097367972,-111.646576909423,-184.869500389923,-105.531090904888,-175.027988685201,28.4896487450429,-76.8321450377841,-116.230035194204,-2.94727220047636,10.4148136338096,-10.7023352507478,7.59121830597191,8.90651971694495,8.29192845420854,2.52678188993636,4.40635406918108,8.48437117454174,-5.48179163270291,-1.55477817188717,2.68336697397319,-1.705134985461,9.04540955337081,-10.2351489005346,-13.5922741814571,19.1364935649006,-13.9857786151987,-2.1159439239965
-7.60409085289545,-8.5868657439802,11.7655380300056,-11.7897330777635,0.204183331628343,-18.5826549555218,16.5721832100987,30.6078272697866,-4.02375186806944,-32.3366277183139,-45.8439536638513,-8.59585074836959,-38.2131506487058,-41.3067284483694,-47.6224201318893,-61.3916753417162,-49.6194628585144,-41.531254513477,-95.268995202397,-90.6936540286544,-135.32818647835,-95.7440162134963,-170.317447570355,-174.637180802247,-113.348422641435,-226.182131101672,-114.272357317991,-245.799171621753,-248.701554314345,-183.414444502785,-256.563456634238,-275.48328869014,-169.205840113307,-43.4132944549704,-256.722881407357,-222.2574198164,-163.538541847832,-192.575738014766,-95.0685455707915,-198.976186235962,-150.380554622598,-174.080419340937,-22.1972966747125,-128.452763740711,-173.807791232718,-20.4247163581664,-14.0281511667426,-31.0215198111029,-16.8369633180664,-13.3881126018451,-13.5918310914337,-22.8144314070998,-15.9449546271451,-10.9547884328122,-26.6567508451419,-14.761621117874,-23.7773960956423,-10.4516325578084,-12.6446502288024,-33.3930675754258,-30.2631446654537,4.18684520229581,-36.1618518644789,-28.0815429856861
-20.6518352118675,-26.1353497636798,-6.33185506962117,-29.0594929481433,-20.7313013614,-37.1253520428593,-0.551739329543052,11.7124105223874,-26.4127190216239,-49.185198267018,-69.6770326332646,-19.927780460498,-59.8045671639253,-59.3313156243501,-65.0927781683185,-77.4077780306513,-61.8000378102869,-57.5297640684393,-117.633457620719,-107.482627493239,-146.954419322925,-109.299055953983,-163.535921058097,-186.864516955746,-105.163767509008,-202.49979810785,-88.5957406993886,-172.639848570082,-264.52776001279,-100.284996157793,-197.504923212399,-289.845784089223,-154.886129074214,17.7028024964743,-201.521009187844,-205.48683852658,-120.148739286183,-171.3711896947,-61.8738410127888,-196.573090534125,-171.371640212575,-155.472481961902,-64.4905566954929,-141.908227800736,-189.108453661656,-45.01622475815,-38.454446918072,-56.9795400970597,-31.1290616103578,-33.6783451786773,-33.7840715237537,-41.893046780882,-39.5446897841493,-26.5832880659836,-37.8846883685428,-24.6661631163083,-34.0281920874952,-25.0099191355993,-31.9134900385501,-52.7132721421001,-44.7493782979269,-15.2283259386234,-51.8883624017502,-49.1668395865684
-57.0976122032148,-79.1431060046772,-58.2831433183172,-74.4504224413693,-74.1002618754227,-75.9218242803059,-62.2851330812679,-53.7644074051369,-74.6510065824601,-89.7886747796288,-113.266725994594,-32.7395911636211,-103.866530629137,-102.808740536696,-114.883930550316,-119.097677761932,-91.1342492206894,-112.495455788198,-170.513321520835,-140.564521644014,-180.900862212366,-140.671500332122,-171.744414828665,-221.948153974888,-119.800412251629,-185.747378374712,-85.9996963032174,-131.832375280161,-287.291796375964,-53.1594524855144,-146.824562000875,-330.380083669589,-214.080615831948,55.2755604077002,-162.095441228318,-199.956667193538,-139.8826955398,-220.4765461315,-64.4193846210498,-221.38277679619,-206.87871538589,-192.592668150036,-127.042992367848,-179.419432237609,-236.897848809954,-94.4905379596479,-84.0598636872439,-107.130996167483,-72.4847393335084,-80.5734776267361,-85.1669386118697,-87.2109276442333,-90.4992153627007,-77.0524515572087,-77.8871975205175,-68.4883621260733,-70.0310377143577,-81.8066967532072,-82.2802620001067,-100.034210781248,-87.2378833051556,-69.3683495984407,-95.8123598725365,-93.8433627381579
-79.8667876066912,-119.722557866902,-93.016639578864,-111.134695943941,-114.278346955396,-93.7457967807624,-116.881383969667,-110.215843657687,-106.716574206189,-116.681472467133,-139.905817121957,-10.2265410958384,-131.142128679689,-129.215050042145,-144.17684736171,-151.481390875031,-110.33057518277,-164.482776026865,-211.240429608645,-157.495302840601,-206.227733586018,-154.685248066677,-183.3880949818,-246.582235403919,-140.687113052561,-183.466881442056,-89.4532115484062,-129.728444864447,-270.237052038874,-45.3526357897153,-116.730065887223,-278.576884152364,-311.728796409704,84.8473428466812,-130.80214763204,-152.867007448285,-139.164047776895,-308.259550506469,-74.9291824454089,-226.775383617031,-183.40708398929,-247.063864619543,-151.549559543703,-208.678514455561,-306.47654559746,-117.560545025827,-112.04600057733,-130.078128939214,-106.147614263705,-111.157255183291,-122.086410391009,-117.209226159063,-117.63836876763,-113.74935568872,-111.778914283618,-103.02948442603,-97.8755173799869,-121.160254077297,-114.756127642219,-130.763315787773,-115.486981354203,-110.923587940697,-122.540478256387,-120.39751762339
-56.6339559636568,-104.118042511282,-73.644077410836,-99.8577895869443,-109.189482975992,-68.053605350076,-110.374516244231,-108.056141370429,-91.9207786294848,-101.598172661693,-127.139815554713,36.6966793755777,-117.157528957015,-117.040664434555,-118.996749717236,-149.459592503717,-94.644176736325,-162.555727886047,-212.019625699209,-138.339367722357,-197.621617787771,-127.24706148866,-185.650923992431,-244.740890119063,-142.897940153311,-210.184383769326,-73.961973961079,-154.80327654173,-232.140516018835,-53.8705192226296,-127.470011130913,-91.359095538251,-328.478331217717,110.215594988326,-106.79983503866,-60.2455430309288,-30.3349544217114,-316.616589284635,-70.852664591591,-191.493951555107,-64.1787589711197,-234.876026162718,-106.90667197666,-192.426300166496,-349.90463994934,-95.6983094756231,-105.126236107718,-106.656033192058,-96.8985083986166,-95.2514636915753,-105.182238548667,-104.17374451081,-90.5382904819709,-93.8865446886653,-104.246477427502,-93.3053940221782,-83.0003623742173,-104.075872458771,-91.5376790765777,-112.501044623784,-100.514944874695,-102.977373475788,-95.2506547331805,-99.6357519763932
-37.8331461467852,-83.1801190142791,-54.0551200189392,-83.1833029209887,-102.503509129802,-51.1712496715886,-83.4925910209155,-92.4320531426539,-79.1532804240355,-92.4751927316564,-123.183910662979,38.8726302263542,-108.439746603877,-118.999308617028,-95.6873782064649,-146.964298727622,-82.7054224348122,-141.790861933165,-208.762418010459,-128.429769927748,-196.951939638896,-103.243945203959,-202.275786924096,-258.76748400343,-148.662004022391,-282.188747178348,-69.5463685991352,-215.375862582335,-256.190474499168,-84.0982786277411,-207.240041088216,75.1400143683925,-254.786890322965,90.9757987583036,-138.481860074392,-24.9876817937434,90.9484939882593,-219.827099350662,-89.5899746252604,-172.042590134994,44.1664450072032,-147.153088261193,-55.8516383158724,-166.746558692422,-359.184939612201,-83.695750199606,-106.328894890955,-93.9670102028813,-92.7612486675044,-86.5538183077616,-86.3965463138291,-100.133604703884,-71.1341910391421,-71.6854745759787,-98.2009427454596,-89.3127489387799,-71.7245709662639,-92.8912281172672,-71.0736265254106,-98.3731324788045,-91.7965148969631,-93.483650844401,-70.5583686563427,-85.2093554243519
-53.3188107054911,-94.3354513053298,-64.9608218213094,-91.5188219868807,-114.268311204392,-61.6250862139363,-72.6709563001262,-94.0135303078774,-89.2563253252672,-108.964832015167,-142.58029282157,4.62015733412535,-120.164054198527,-143.495170031052,-97.1862124535181,-145.761563945381,-83.5080041000717,-133.660778429814,-205.223899795976,-135.604327856687,-209.018717057805,-96.4593478094399,-216.200331686797,-273.359751140223,-153.181076618579,-328.687890547746,-75.7915490763571,-263.647729613837,-289.39485944299,-109.276234232369,-270.592200745258,119.070594698423,-171.829445538948,46.7801412327445,-201.435505464282,-50.0752914396438,114.329129722715,-94.8555014672887,-119.073045443953,-158.931452936664,50.1000830553594,-47.5165687628668,-32.6983173838497,-151.524172683997,-343.811286107334,-100.246896220201,-127.374706549033,-114.254896387101,-121.561405007958,-114.655212333705,-99.5271364104628,-127.396542419056,-92.7776083187284,-87.2605897935809,-118.792964212261,-117.399540863766,-89.8558090485065,-119.857609439356,-87.933928605842,-116.428925707455,-111.653402866497,-111.831376973648,-82.8428598098442,-106.179276590712
-67.0231902589518,-104.192643219529,-71.4253202099938,-97.5030967671675,-115.642007114779,-64.7955827114567,-62.6925593282254,-87.7507031679955,-85.5380483910009,-111.324766014957,-143.533990985448,-3.16109844170798,-116.193665050233,-141.425802333775,-87.0909727577753,-114.91850174677,-62.3096147329263,-117.70961489857,-171.762676552074,-123.99900848575,-190.527213262067,-77.4516911196873,-193.48694798675,-232.11216063982,-135.337010230964,-276.250457072838,-69.3182422125057,-245.370726556161,-206.379426068176,-101.401652307057,-213.836686642047,119.49223048786,-110.917014617131,25.6219363302776,-208.006114189366,-23.1689175225662,89.5722836720104,-1.84328828525764,-108.529922912049,-86.7933315197361,-1.92403341092873,5.20483376742401,-10.4858757453541,-111.518449517568,-310.454316006922,-115.284262137067,-140.158271407979,-131.316468689508,-144.638182964154,-141.112502739862,-111.481411609606,-148.462711642968,-113.442084349597,-108.146430583216,-135.205204883908,-137.031784715907,-103.15870809968,-137.998631418388,-101.484428237444,-127.632541987077,-122.401793160653,-125.724093944382,-94.3706247969594,-123.419101098708
-42.8458689020019,-74.3607299216313,-43.767448714366,-70.2717357156813,-80.6052405531226,-38.9822199620277,-30.8267789266701,-49.7084874005316,-47.0994758121495,-71.7037861870072,-99.0200673405287,27.563627847687,-75.1491326704442,-90.0728561935875,-47.1596378093786,-47.0096713050486,-13.3561739514478,-69.236349555424,-96.5544353963918,-81.1600749454155,-125.633390049052,-38.3121639794356,-136.222266187895,-130.684552396132,-97.8250447716267,-153.541964182688,-57.5133516455691,-171.449470008503,-22.4484588939069,-79.3846485949927,-73.3728016724527,169.207634628701,-14.7954056105535,18.2429313535899,-138.366374759291,77.0940457446426,125.401328614026,101.556901491359,-61.4411064726226,31.2001361885931,-6.67949403017924,35.8525820472919,29.0088838416181,-14.2253221113403,-232.110205849998,-102.963651627803,-120.666791500487,-108.342048174421,-122.815428120755,-120.769514191654,-88.1807455187068,-126.176755986618,-90.6160849475494,-89.353610259828,-113.543401443498,-107.289711717628,-78.0338793516889,-104.116752815123,-73.4122223918424,-93.5641155303247,-88.4756226026994,-96.5121514015494,-67.9440137555511,-93.6444926915327
24.4510215518421,3.34902857379953,20.0693169035913,1.43230062742952,2.67616832490079,17.5428892351225,37.5951754023903,30.5653658931045,18.6073868522925,9.26749567991388,-10.8026421621591,75.1544969576451,-1.34154561595427,0.457439025600203,13.2661977219551,53.4668563576742,39.6566177793258,15.7369594623654,22.8506708924832,-14.4924275670666,-26.0610465874105,5.35980762363772,-51.7098500125191,7.43214404295993,-37.4306232176889,-13.3880637736514,-38.9546180074214,-67.4605392690739,161.465222246227,-56.0821463633419,61.4256142796725,272.290085583096,168.157434340769,7.60230907125075,-48.8635551032576,166.821464779037,232.597265646919,293.475532473102,-8.96488013280215,117.831252400598,67.9139480274658,120.495248233033,72.4420923095263,124.814331027162,-48.5692497545844,-45.0005043389712,-47.5387026288515,-31.7071220172923,-41.2687476483437,-31.6627619112441,-18.3652211988414,-39.6453603550838,-14.4611663515085,-11.6371939107625,-34.9741975071446,-16.0134023003208,-6.26280585939714,-13.4817842644334,-1.43877010256242,-8.85634544215531,-1.01409378009067,-6.23004814741945,4.55288427679769,-4.50009985849209
106.820605606808,102.840030205659,95.4521787505655,96.0017562157683,110.585216348244,82.3596301990644,123.781914822817,131.966776852084,88.6553864940975,104.289923149143,96.0518708172625,118.706574109514,80.4460432397916,100.793692621088,65.6075598402347,163.239365767598,66.1242726224753,101.475609248841,159.816192706476,44.2505271763096,78.8016062296888,23.6419041180967,40.9710310539175,150.073570080021,33.7164455665475,118.916198597972,-9.26580813278304,35.8568633447112,299.37412074483,-31.0009553860538,155.763398644534,381.66228090783,390.333272922917,4.14066475524054,4.22411609594627,195.042986511349,325.660763020207,527.932907296935,32.9573305266118,128.35679828132,148.980626691837,253.171290813231,88.7833637815074,241.09447864127,232.762880089667,53.7997326942151,78.2393894816764,79.4873954571431,83.1798584698299,107.74907729651,82.1367130670133,93.7986044508758,87.9990155332267,100.52750661244,84.694680207005,113.290923811649,89.6121869434042,106.938007337738,86.2291063668779,97.5572214674408,115.040337313113,123.161323712882,99.2432598228734,115.27212365501
171.11144247847,183.038508308665,149.110036445511,172.108191536649,194.399414313041,123.067937603908,185.508961433976,207.681110256552,138.53392736003,173.776452439509,184.743378110472,145.376771003391,140.954364375404,176.76288103622,86.6386662126027,239.965743146415,55.4771307772084,139.377675041584,256.367150332924,58.5927553036994,146.589093258233,3.43689355309066,97.5254149017535,238.782752126325,70.9916553137499,199.673898208651,9.68686350691106,87.6888399611253,366.222951955136,-18.6642057078954,193.290781683912,423.522329859877,540.653921123468,16.8769965479054,17.7053198112921,170.223817580961,331.46712763676,640.812210417462,64.0337358468975,90.2366530267416,161.770208244241,325.161876182312,66.0912589731119,278.40524256129,483.933236076166,161.701176242842,214.508935937023,189.950834214598,205.656804102899,244.300726510675,177.782473140753,218.632006831495,173.444194713925,199.673045726966,199.937990222818,233.972012460814,177.916409326273,215.9144468149,159.299128131564,189.113732127225,219.660170662118,239.941749911401,177.496714259618,217.591453062169
195.018332360444,210.772276151899,164.390166420519,196.528652058001,218.037191052918,126.6976979574,197.800837255068,225.189071666339,148.558365579195,189.208103800803,214.175287494374,144.561724216107,157.228743232389,198.975643748244,79.5493611547575,250.017814548406,28.5498398819157,119.6838105054,261.802362935207,34.1787786231453,142.644331329082,-27.8950665404228,85.0551047025345,213.46096811503,47.7997297712341,169.178657103858,4.33197606884392,63.020493921786,291.060055767535,-28.6558113975305,148.973990185796,302.189302422588,513.285739102213,36.3244616322494,23.8073252107945,87.7914375251583,211.845267166209,508.261797693345,85.12220581765,52.0203883308171,87.9585981777077,227.698021486404,16.3404894752814,217.746660804821,529.591898018866,235.112117270701,292.451071225888,257.744514989957,270.221462703803,313.022872308826,227.559855741946,276.566360026985,209.196106920775,245.751093769977,261.429383809617,292.480642854853,228.034363043652,266.76999075034,196.579380183928,234.581264336308,271.032515643997,290.511462632881,211.855327465515,260.231530102126
164.299641511381,176.223593022365,144.406681175725,159.999856042716,172.321494029244,103.56940023486,161.78311299756,183.859395380546,114.308980813359,147.160881039108,160.591567287862,110.713452917152,119.730520454387,151.853957334593,59.7304823255927,195.281796986792,12.7957831449809,72.8297392949342,175.388523542807,10.3458550649391,74.7637706676656,-29.6674701934169,24.5685044794942,83.4294432934038,1.54111567864559,42.1809203031229,3.01696426124139,5.24256915644145,68.1291026045436,-34.9024533894794,52.8993758892091,14.7648559656649,272.061483702002,51.5351105756506,44.001613018362,-51.171951592933,-48.3662427018426,159.528358153686,90.1667375766417,24.9625772048165,-59.1845457811013,-53.1436474932913,-52.2017231189594,53.2266393918405,302.874385660505,236.043832772602,265.486692692404,244.77570157999,241.458755981519,274.250198149615,205.166305616394,240.461066427716,185.622275508434,218.655490375442,236.516903971098,253.202366246111,211.639070315105,229.042399344275,179.980816882012,210.524929672845,239.365692285106,247.390906322885,193.254260472732,223.097908421518
99.3652400939889,109.769273793509,107.416073706976,92.7278496171199,88.4673809876618,76.3741538618705,103.125024353142,114.868778820793,64.2087896365568,79.276534544339,61.899045216074,68.5856991664986,56.3103949363035,64.8142176576175,44.5323484441569,123.233230907605,21.9681237825563,36.0056314796838,65.7764813675963,14.1316637188523,0.618702178140484,14.2486713523904,-22.2400915517307,-52.2868223318343,-3.89429535674339,-75.9974667088519,40.0917724294628,-20.2918868066332,-153.35767661837,-9.80882253915959,-13.4587618730371,-272.239294076814,-75.7133763855719,64.9826658944784,68.3025773046012,-179.717562063842,-381.642343315694,-228.611821062386,77.8421864518079,-8.7281227304199,-243.356183426666,-414.274912524992,-140.401496363383,-201.28592389139,-47.6990978823598,166.792909272953,157.506414607568,160.742447878063,144.582617456816,161.287402209053,130.566974409779,140.671171602292,125.857779625476,140.317654761933,144.399947527675,145.028398918288,141.270201196736,130.6397814491,122.128223830624,134.383700140578,149.744853415836,144.62781217535,139.21562454821,131.18507709147
43.6875146905574,54.7652279385904,71.5536017751578,38.6132424866018,19.2199238428052,53.9125936243329,54.1509629748445,55.9366091677755,29.5888873422778,24.6911048202675,-13.1243420438993,44.1243313641318,11.9394934720394,-4.70019484574514,39.2837654793663,78.04962235104,43.7061266948933,19.3497068236828,2.92287372800707,31.4280813902354,-38.1654612915013,73.7159406564665,-31.0311028324534,-113.38916676386,30.2761049821555,-127.56768403094,94.8002287285128,-20.3417004486903,-252.158979803813,16.7054629617014,-44.0319674096474,-407.290208639798,-345.831901303485,71.2854006623373,57.1088934456106,-240.010926663821,-658.599966405066,-477.719012525621,51.0332234376429,-65.6470984680589,-424.725237225311,-717.734020274001,-249.981983150845,-487.491852405479,-297.438339539024,71.8591912700066,39.6503033990689,61.8677393896469,42.8315133029042,51.4887315092918,51.5489377957833,40.8665348544184,63.0154431513696,60.2595473313659,46.5730737681039,40.4149387300589,67.4309364781783,37.0716886787692,63.2688300504827,57.8183498019916,63.9347678557172,50.9539004910486,83.002104721819,38.3542959097516
19.6974367516624,27.2675326438696,49.6585251175214,14.8823126613482,-8.1996246398469,31.8448354114967,29.3675958260362,24.8185598927662,16.9106588718516,-0.194112493275,-37.1261051289331,30.1643538419414,2.31157645045074,-28.3632088476423,37.2429854118978,63.3429885126972,57.9126804351992,13.539450525914,-7.91304609916369,40.0385048020381,-47.3364583337054,109.088347543682,-26.3375141578537,-113.870989078123,63.0954047899174,-150.794487749539,118.737284593664,-34.6531143208407,-272.805668766277,12.7743307312028,-101.017504687642,-406.386591607292,-438.365575437595,64.3148486871338,2.87390924715081,-246.71884189635,-791.460208037284,-549.068839433877,26.4363207586005,-126.673763811097,-568.27491518234,-880.879205376427,-351.963870793841,-713.354895342166,-386.263450684876,2.20854972574865,-28.2615296164615,-0.212496368046003,-16.5861393374262,-10.2089596382824,1.77096937247359,-15.6691219297094,18.3256262332246,13.256096162354,-11.562937773721,-17.7996337767956,28.4007767561307,-11.7353955350224,29.81220509845,17.0082136486858,18.0880203826389,4.32875121936734,49.3140587103437,-13.1122027379046
30.4682756238946,29.8970167565274,57.2919659394404,20.4103906544986,3.31213752319974,26.3986917305829,35.6020766679018,29.0853388643785,28.4644799584546,9.24600956794797,-19.8518970864876,27.0984950914036,19.7577786026343,-10.1836599775652,48.7847953603404,74.0407993793981,75.6265870695056,28.0410713107878,14.7310218803184,58.5552002684496,-24.4287777174566,130.72528779777,2.20837417346019,-80.6784420907279,120.796495181193,-143.553329640344,119.63355239187,-10.2677016704346,-261.279061470838,34.9926484572588,-144.2250256109,-328.260092674891,-361.871330420352,75.0779988397085,-12.508234597457,-197.78234034351,-752.048392929662,-476.703439654018,53.817300172042,-120.927386134424,-619.094785001913,-858.461098817225,-371.249031973794,-793.086286340706,-389.789492428887,-9.77224888928636,-27.1820997815921,-5.092034613492,-15.3575876740934,-19.6808334187426,-0.811271165942491,-16.8248864956202,13.3783073949639,12.525323106533,-17.1955833174833,-24.4724967864854,35.8975398535401,-10.8783804677729,30.4960477775567,21.4429067212971,18.0040088884829,7.42982354944272,52.3850575354142,-8.12340266184993
60.0354349812643,57.4311264002781,86.4719878765767,44.5385836924272,34.8871572301783,50.5510257974754,68.9899950760028,61.8667500061603,55.1981241806463,41.4256834483173,17.3898527242969,41.6304992039939,47.1973403429181,30.6469049583948,78.330139568499,100.246277805548,104.024469559206,69.0486698297306,59.0439978631464,100.419380527541,39.4451147343854,160.014795277803,82.8052606555257,-6.63807676645445,238.02377746991,-51.1187308997746,138.365187913829,117.370249354148,-169.896100070111,137.094587311797,-64.6377614517815,-186.486114282252,-169.565996376731,126.572631063631,74.0380199804263,-62.1210186642599,-557.233761873391,-276.48097515908,153.041580004851,-5.79439014789219,-540.088766534488,-633.618816965192,-263.655664240214,-698.786911639241,-331.420256667366,27.1409796044976,15.1562233170373,29.049178577153,24.8649587250916,8.986265720935,34.5552800467407,22.1443670396135,48.4877855219769,44.3286476570801,16.1993948011586,6.5650094632826,70.1099518269933,23.6880169826857,56.1153720794883,55.7716988366658,47.9828310297272,41.575222503043,82.7883761487602,30.6620139595779
81.5623062254179,89.1011968265295,105.768258370909,73.0515925973061,69.8367544382577,81.3206592824941,107.952726712387,100.650916549365,74.2695298758387,72.6550810734074,53.425035846422,52.248672718301,66.5899656233534,70.2413203522436,96.5812322269803,118.101078329848,114.191843493339,109.885090830952,104.094163974811,130.676871679058,111.998033214805,175.36603785289,171.931304158897,92.0483227934708,346.012268747628,88.3921295886485,167.249296931888,246.423254837468,3.23502916580228,233.429687042005,104.913770462559,-5.94922086434506,79.9477998665387,175.626776128831,180.821698791385,120.013179464231,-253.303138815276,0.960743017789204,257.387607397102,160.871455764166,-341.980876282209,-269.332135940321,-66.1377936615361,-463.94035412522,-176.221183472656,80.9300007340878,66.6968039614635,74.6751040456111,67.5114503887648,57.9637397019517,75.5004054953734,74.2656185619218,92.1288001274802,81.4683951567753,62.5257649585406,53.0174063438457,98.5695853104807,70.3978706594879,85.9205875735055,93.9167732899983,84.2991579635953,81.4031892064998,111.969729575239,68.9075015458706
116.928157267204,136.625478904061,133.892616094472,126.970498634914,130.983387585881,120.266020659573,164.066703692372,159.106721940113,107.759440462521,123.010917483206,109.847158158791,68.3324495153869,104.296086089875,125.610543159638,113.695714933747,143.797510178839,121.305040996029,156.05653694832,157.411900787475,154.224718216532,173.783360556229,187.335138341135,222.667963376993,188.242087258327,385.737512046908,176.778634412748,198.611864641538,230.429399334358,176.230661390757,216.999288811891,222.305505299441,200.971997563133,375.437770013434,190.877577596737,202.724838491668,273.490330914681,144.513855875966,304.589844003667,310.518778476893,308.822691249994,-34.9385949505529,148.416945410167,175.522370458117,-121.25701499624,84.2197077729253,156.328820481919,147.140763173544,148.473126234281,135.016102927024,141.027574107787,132.148169097069,152.179135032106,147.694818280031,142.451616810671,134.87629695114,128.831902677992,143.782007843186,144.88193972003,137.362370103127,152.576486658215,146.964755882404,147.980157948347,155.761359870953,127.853093873385
195.769749104034,220.424823038191,207.25193783843,219.490517461696,231.007492431515,189.372447917537,255.32903526964,255.988506700907,184.742031062764,214.747819762938,208.365609564875,122.524591531476,187.969589993104,219.009507380329,173.44941705291,201.694046482066,174.107185747831,235.830310768296,233.652701934687,217.445410394448,235.921484503659,249.237676773059,249.772641457403,257.316136990874,401.902573501878,168.552772598551,269.660868595341,80.1219333736624,246.587172380219,128.8969905337,183.519991510812,400.480149110887,701.822513571459,198.176364620718,140.965029868372,333.343504672889,585.548958229089,641.097473011256,317.627507190325,403.566412388468,312.077068782091,573.416840399921,414.57756425409,276.588426043548,399.038918887505,251.141302528595,260.706288646492,253.212990791045,247.712359495845,260.917192673884,223.753275284732,265.37775271922,229.890504889329,243.512174283644,246.406912366183,245.999628174217,232.985232830569,257.630441684579,224.813331991041,247.006523327035,251.717595305518,261.302564538172,237.279292222308,230.522985495262
254.697089476935,282.041746917815,268.451913968282,282.307569832077,300.098919008411,241.823974825666,320.32209673546,328.629088443684,244.63855994624,279.337212804912,281.787713064255,167.742738139531,253.092070487611,287.147676421313,234.600756372641,231.710005100884,230.885141352351,295.928699685744,270.537688479678,276.231909959545,254.299744577938,327.36569357235,233.47389312609,236.177107470699,400.734350425202,42.6097357557401,351.436881234832,-131.548071247996,104.91611704353,47.5929306938154,-75.6807913063913,435.89515103025,925.361458336874,183.426931397449,9.79311649273105,201.322787761034,885.793705977738,952.558311798579,255.549915274905,373.139066564039,516.03985645292,933.527096749691,555.825960891884,605.126887311494,665.32872964605,296.017018408969,327.873709597848,310.614493942675,326.167675018282,341.058403923109,286.659483702189,340.602221466594,277.797187344756,310.03212169,324.602220753835,332.562971501367,295.618087013596,335.555426413809,278.133444561053,307.33327990165,323.552489256325,343.721543575219,291.472306551536,305.865081597877
228.830631095405,262.553356806408,247.882249774162,261.544675698494,283.622061802107,228.135813049081,302.674322926398,313.682090457504,224.842236991307,254.525546249434,264.048018472631,144.658899432356,234.84616440255,265.903521133986,225.697049477822,179.632931878405,217.974977857587,268.381077473493,212.200085195961,250.654494607631,183.649545441065,328.557708508875,137.455880270954,108.08622279835,314.947598548805,-160.49918728407,327.743052031983,-351.196091134378,-235.53307110391,-55.7161529222697,-475.116074282139,207.563334242109,890.702226195969,84.2165792608921,-183.055617991807,-105.274135561451,913.524482002914,1092.51583686137,96.2369973373616,199.925064956054,496.040152319375,1129.80305916209,559.514719180135,782.652279251329,812.380025588563,263.301222618529,306.320966189633,281.275307331642,310.304941053613,326.251672168513,265.273316292956,322.818584437846,243.806237875311,284.614130488464,308.815717428987,326.502276134545,269.125307883309,319.816582747073,244.755742581014,280.972738822799,302.94505788983,325.059894849854,262.111507852496,292.15596972332
176.610711110488,216.433221095876,199.093995752675,216.874523930866,239.6063934961,199.655620404899,256.676108789545,259.934245830962,179.853649535656,201.99677672386,210.463762668561,103.182679736996,188.959577954304,210.114029216016,184.761109079181,111.305528629018,174.922329104219,206.100814927511,131.33225423231,184.633421726296,102.566691167464,260.436518754886,41.9504105012798,-3.80926106345639,173.044770973331,-254.50755948612,164.923660865596,-434.876158070735,-500.029932478926,-199.968289255073,-664.349977237449,-77.7722214587501,627.066073443069,-89.611348937133,-313.352806121078,-302.139019523872,791.554909978527,1036.40409928101,-88.398901272724,56.7642378015662,425.43355758003,1138.39189541116,515.672824306197,865.286581696529,867.946643134658,224.85468616561,266.46728070524,240.063020199594,265.272521875401,279.551106584441,219.578988449683,273.857200570446,194.746623703836,232.562044126574,259.98418411006,281.809327360593,216.653376088511,269.085333790596,193.505008952029,233.272226067646,252.839391460525,268.291636833196,213.329756520381,246.513108571848
166.179067901512,207.155594087818,194.175643187193,208.108900224262,228.968370956975,204.36437665429,242.275073803449,235.244592753502,175.793744768216,192.316688460927,197.992900396771,102.237584822885,184.468636543458,195.257396228092,182.007390389968,101.422649865267,175.117450039744,199.177423740359,124.74761635807,170.135775952294,121.378164049744,199.537740091232,65.6956235623107,36.7427230302324,94.2151908794671,-70.3355128525433,-35.4229011962388,-237.192354307991,-366.379436367973,-286.35123867868,-342.649991146121,-89.4135067637651,353.797553967712,-247.503613510402,-224.531690506049,-145.21056120144,741.386029381198,954.229957328384,-197.970498570301,97.1780214111726,501.900146634746,1066.91669014007,496.015379748958,942.844572325725,913.625896792778,212.851884276919,254.276079313391,230.820096576983,247.902945626192,263.934379952722,206.288369945567,251.255527602525,188.493040609636,211.533834631463,241.092416666751,258.509934441765,198.279099988265,245.471256994649,183.544648345728,221.571395479624,233.278633329164,248.280409466341,204.067410567115,227.926233506952
164.015942558795,205.173732196286,200.666648084274,206.73396816529,229.04039633738,202.925098142831,237.059508017696,227.07506150481,182.310289835042,202.179248749927,213.662538318229,107.184461777536,197.514777595292,211.282619971178,199.946482741638,133.339608196741,194.420485968996,239.159822975817,185.416336416471,196.851265345559,225.519827610326,153.268128525736,192.714497491791,220.906648341904,99.1525859545766,316.696545436198,-181.957162923867,151.79357926697,146.674367678041,-240.27929762223,298.311849023579,225.483366612323,262.314358820184,-337.85955927959,41.2850113912518,220.160422100513,829.609708907741,976.204035268454,-233.357018889931,201.126112684699,717.121233696802,1087.04641075261,470.299841112148,1056.37629630055,1002.26719660676,186.371783029393,240.279831093638,214.249133704566,225.300871898909,254.048976665528,189.503090893137,228.375789657267,180.942468410954,186.900754799506,224.655560919236,236.766145128118,177.31817398368,229.457632298378,172.688819836239,210.74609238019,214.620546928462,240.0284132214,195.239558954048,211.195313453785
163.165431154736,209.472874750162,203.34025379751,216.399123465405,244.815728478984,199.590739859685,244.751580232863,239.055053547836,191.547715950496,229.36867865112,249.993356546705,112.675776793811,221.132028675695,253.589723099398,222.318640195432,201.53309134032,204.020514867802,292.131107512907,287.349477855329,226.716445524044,348.100124621068,106.499961567815,332.990361461093,455.041991079069,119.123723565062,687.126029885609,-240.999961117677,496.226441600942,700.065972032565,-110.666544964498,784.170370595683,622.793001428842,327.18222137683,-364.54767234643,282.399686649345,519.980515572454,955.991115692848,1023.10903537189,-234.946041840676,190.485022295087,953.766699860113,1242.30253282761,429.86760413397,1219.40505190728,1092.67221452142,171.367737821688,244.078988561999,209.052198744757,207.264289280251,251.278446241535,174.685876045891,216.793972954489,166.240204813557,169.619652876573,217.122935143471,229.020587001148,161.527137285885,228.54746283546,162.023529498869,204.631588376869,206.927725438418,238.828879228817,186.812689361735,207.016633590776
238.330045532794,291.521399772499,271.166818200113,302.574047387128,337.679129124521,271.715154673547,324.276650925752,326.59018053292,273.223191646216,328.366949758832,351.968241051405,188.858879234415,309.554416145552,362.201275923048,294.260780352264,337.201488150799,248.630877939654,378.545334573391,441.927892025222,284.111695161515,479.522345829734,100.981561044138,451.195028748962,673.261351182571,143.376008329474,912.711768385577,-183.312656520688,676.221934739264,1030.40957057443,37.7031655000809,921.237457809075,877.798927209192,394.584621429021,-318.550713245037,380.840265890879,713.402657950092,999.474735093042,973.335954101693,-193.608344723591,127.086781944921,1137.16198529949,1376.5509812219,417.260423474606,1382.73582554917,1072.49963456825,241.470272687676,319.717129800812,282.398612022069,270.800535262663,315.402385339567,239.433343703219,284.52695095372,226.538836503782,240.911355386661,288.668653254258,300.988467967975,233.60365456829,299.107249222515,233.193728390208,275.443350235537,282.423168320308,309.94782917516,254.859304541133,285.673736668097
365.892686809327,421.875527715055,385.399851584877,427.070343685298,466.756327774258,387.54218089633,439.699466956944,451.238833673725,401.127621766781,453.968487672925,478.454063943036,306.684876060208,427.57179601738,492.434663743932,390.765909755912,474.844696277553,317.103581161621,469.736605745471,586.342918517491,350.095846301794,582.136396123542,130.357623435932,511.827181766256,801.769187230166,173.337742516386,955.930826088673,-51.4681754348973,709.908159640128,1101.68464999977,186.618617014349,855.642388181978,907.148379847491,405.504044040864,-219.856605446306,383.855741685367,826.958338249506,919.453200500975,839.19035820239,-128.858061002504,158.4577060813,1195.37344838522,1346.00005570801,425.487448472298,1417.26627473141,883.284229201312,353.651455534649,418.274809676382,389.877330973022,391.560531355132,417.86181207037,357.873382037725,398.492743491188,348.453923735573,369.696817442036,410.816895182913,418.842630926472,362.523777114793,406.985075695882,360.10961021853,394.154328175883,405.935809132581,429.489177936295,374.79443216533,411.383279923445
410.810884221538,471.187129989567,421.278563044817,466.023768524015,505.828674754877,413.900661907584,472.529100345532,493.442545296414,440.495089130075,483.108065449549,513.906094460153,335.352824210909,458.688569142222,530.788977700219,405.093927398246,498.098032739891,313.049961240236,472.736312668279,614.045657297649,337.358858365943,577.431505360475,103.649394920822,464.325077484695,776.755114567741,152.091157713162,834.72281854541,22.6915283574528,676.785298072131,979.960374188254,325.82290466131,773.380188139905,715.551932507315,407.272715319363,-147.623306906125,417.917003344012,798.788589041601,750.639540278067,673.975380814829,-103.311517676599,288.576707121133,1064.34944888457,1181.28746946906,420.783342137076,1257.15990175883,596.443958118879,392.135670202321,442.186807738951,423.236050025495,446.134352647378,453.378143125771,411.630742978231,445.617946272333,405.966782436827,424.521746016427,465.624175627789,467.378083348903,412.897662777892,446.885870120138,410.219329680731,440.689068080613,454.012585466877,479.869685476835,422.73098900989,457.881264050849
354.825967746517,428.087654791126,363.572247926834,418.573706839097,458.584968892313,342.622829185138,417.835258379985,451.366137960679,376.445322425819,425.167320798342,466.739813660843,266.880741454086,405.762838887784,485.88469712571,331.815604224617,438.017014911123,226.062998637685,400.683897279509,565.473955764848,257.642648824119,511.367418434107,11.2406056952641,381.673134291055,690.44163882433,100.87626896498,716.102701168761,-4.20961983522319,699.011068437217,829.407767244779,457.559409713031,794.559051844643,453.945906520351,419.310264554987,-123.831067261298,578.31439137565,690.340464504713,563.169024671914,501.884683805525,-74.3692181403368,462.747278848706,836.120365712912,988.961686288857,411.892139469332,1020.91161204575,367.916127981586,361.804048571142,405.518261052669,394.824451103562,413.35240269813,420.685056829597,393.666533117235,420.79289313806,377.330181712465,395.336916567005,440.174055482697,439.901780403556,374.799095919823,417.972590927433,371.941334083131,411.115145486104,421.128080573125,447.434218973152,386.155465257532,419.659474474645
318.286808313668,402.954498601326,323.95587272147,395.224221385467,441.967310143053,296.427366104447,383.545449017399,432.780721693492,335.663938734627,400.674993572904,454.164042218729,225.964595768941,383.23068588225,472.269036635442,287.207095412562,430.334362651601,170.918610036101,379.039933435227,580.847882954087,241.497005343834,526.954305779572,-22.5101930876758,425.231476924032,715.61009462261,169.969641584105,793.964880237558,-4.85247703253944,844.655686766232,849.357856077387,613.216307540423,956.082238830191,354.079790296,422.930321783231,-68.9465918383241,837.437990547978,683.372899060888,427.952307526687,371.447155451938,89.6310527454779,652.861764651332,697.295664249741,826.038939606004,395.4923233857,858.786652770726,304.222900838086,363.914849343305,395.518669381482,399.543404587121,392.020879941101,408.16176561383,396.542227151562,412.159036178744,364.534489679969,389.075287546844,426.584201722944,427.528453175152,363.829582563724,409.700214563469,358.648142241429,407.656715498502,409.536841712173,427.490923621204,368.334291147081,404.662579411532
350.261418945019,430.262905172264,348.595547972429,426.487752436514,475.577765767062,322.475585517105,406.690481362607,464.020532243666,372.128312854929,438.675082854627,499.421523008519,265.02664670375,423.9155564237,512.675395273706,330.656367280276,501.698537089457,220.718659408545,449.287727157359,670.722378183003,344.418040622274,639.223141184481,91.6274940245109,608.103921378775,842.57717521385,417.7464794383,1002.80075824082,152.183331122095,1013.98769344442,1007.7353886419,796.94924741072,1113.45834465875,431.097885648557,415.276294416804,76.2175321564547,1033.42229138724,753.088145656839,339.453864836705,290.471746422296,376.880597994485,766.054144861567,645.793308784413,662.699751092464,317.895304422742,705.413661010749,334.665005339197,410.156890712865,416.944291636899,438.04367720846,416.452716597425,424.989837472403,434.780588361067,433.000113138249,401.123507370179,426.195537704967,446.571694365037,444.313411404342,408.789290054367,435.506082711699,397.957485784163,445.439349039473,439.118468461402,444.417529874732,400.812710609104,435.368888394116
362.964338375907,426.194246544391,362.905436634106,427.903390916221,464.613078543546,339.884396271939,405.270724239508,456.450508297171,399.314175888073,450.331365199215,503.547721826706,313.194878457435,443.675880741538,515.792150761395,388.355835023516,549.322647312105,302.420690504388,509.343494788583,706.991465020765,464.723888326378,709.45029223165,272.382382027948,757.210843348008,889.291610696888,672.763830029403,1080.94892182954,410.965043999895,1015.08283666153,1029.09088031379,914.022747127716,1007.93908118903,402.689946566788,346.062831086658,263.313603204885,976.946125298979,634.967443650892,147.4965604262,138.124174092358,582.786132155653,651.071635790685,444.098941219646,371.8404367166,132.547287873903,349.200316692653,254.745318340202,402.033599152143,381.710149498514,413.193067952026,396.599238025933,385.880397889444,424.623249363834,400.006099771384,403.959896057874,410.870828159197,416.495572497623,405.1166956934,411.181659182522,411.567926004383,395.116545008218,433.490886085638,418.846654657892,415.348262485833,402.669753640091,417.993187590191
273.620726925766,323.29293709235,291.359191356626,328.770283427397,349.821350442464,270.922709313147,300.525130186284,339.229303837968,331.097829639771,364.546650666656,395.996252668831,297.185896971071,372.557314264757,418.605359503491,366.343270628134,494.956197387675,303.738996071052,461.540485283239,605.768565440669,488.585436301923,645.450147869376,363.440665063276,754.069428872203,764.582354235004,756.559212297439,927.723579998045,592.341888071151,819.561080881744,751.44118931291,869.695607993182,596.497494983701,40.149899393295,82.2488262622924,413.193342113053,662.063637012084,207.393261697525,-303.48716123734,-273.261117580353,574.506154643993,299.422049059913,-53.3905235721406,-187.395517075266,-145.758623443462,-246.655042824427,-73.680782899033,278.882586431441,238.280477034515,275.676912020408,257.18474994308,237.539299554802,304.887513446299,255.744304396664,302.828058471309,280.82526296994,275.468844518835,255.044968171099,298.206393885528,281.013761400972,286.489964758913,316.711693724762,286.423342249866,276.192470201741,305.33722430675,289.372703901283
118.485446901681,159.071599449967,155.823780517345,163.035046646149,174.987968536313,139.513160151705,123.454493379019,150.474506033131,196.593910729376,212.782803340807,221.523021990196,226.477745508817,241.787124049111,258.477601057671,277.78941069577,368.630803098294,236.267454963129,334.771444200501,418.79003190291,431.949698673828,506.319631327305,349.164271610328,667.312277678772,564.304751143389,716.563082632119,697.452458080949,644.323850085837,643.740900978371,336.573880407261,735.791375492725,189.892882641171,-469.363310038172,-387.494904333265,527.783512632993,350.283818831457,-282.548861314506,-877.21414382152,-1001.55330274315,464.864290860398,-59.2546430083249,-628.63154888451,-972.43329284957,-414.340847044954,-843.682400743848,-559.653188770367,94.8667045895738,40.0927808518171,85.4517391220625,49.0032345649287,29.9160105589378,116.183097809882,50.5441233048901,132.563285802633,88.0603464673971,70.6802026165695,43.5229694574225,117.286085025147,87.7296920045014,121.338519331683,141.983061982217,89.8778669470432,68.0708935707475,141.082268307004,99.4478010580642
-23.0809358412879,0.951482668072945,19.5775379717159,4.60470814831256,7.1506975934787,13.876803476998,-41.4937694909456,-27.7706483791862,68.2258253336448,61.538842407333,54.1617423371692,142.263205089607,114.517531460382,98.0997619177261,190.99626808603,230.341173395466,187.827590851423,210.543102893904,239.236225164015,369.080836529991,371.476537543189,346.051086633489,575.571682238899,391.319566392661,667.851172071316,513.845772700352,656.668665945245,615.345061748325,30.4187837584657,620.802786744393,52.300270574512,-714.658204803681,-827.774910667695,621.549156885951,252.294001622227,-515.85798949513,-1214.57540640321,-1784.62814908524,400.205902687949,-210.93858049848,-925.333007279216,-1686.25226619442,-546.191590634989,-1187.97585963053,-935.881864916973,-76.8216277989508,-146.579435064847,-89.3009999045846,-139.843657410576,-161.240643766505,-61.3006465517247,-134.205750317865,-32.8052259361055,-91.9020493332423,-119.888188531284,-153.56065073449,-52.0082462928198,-98.4360697382561,-31.4490256089349,-26.9030634741891,-93.0670801936379,-130.923244776162,-21.132608680308,-78.7460690690174
-145.857864227119,-146.030457876917,-106.311906914222,-135.064066091372,-146.403622821461,-93.9884460565636,-172.436346857435,-173.626084814769,-53.3398850450864,-81.6432387348701,-100.932901664042,40.1768186940575,-10.1029030254629,-55.2600073399836,106.150970101787,86.6394361815095,162.129513620359,102.193142770107,87.3027935980473,301.569685189614,230.001015976551,380.63649126562,442.130188548506,230.053893587368,593.174095772657,330.375581268426,655.819178165865,571.742624664714,-116.75648477386,483.738688081273,68.4706391120678,-583.730341395494,-1017.59348531323,622.835205372992,238.39173431848,-463.458052279954,-1190.93708960804,-2204.0315251128,338.343866904045,-203.237774946876,-872.822205675888,-1984.6241380091,-520.035399427617,-1236.97801861403,-1023.24750512813,-226.855701941661,-318.458980187012,-245.456479925028,-299.763817189505,-325.320232031545,-208.894657444646,-291.353110655164,-175.29681575221,-249.191141223654,-283.777418486206,-322.801200125594,-200.505229886655,-267.384280800327,-171.338992726405,-184.761297471048,-250.40414327064,-303.121192582769,-167.886646047787,-239.363690690097
-266.949350539152,-283.457755063961,-221.936486838353,-265.597252774526,-288.516894828648,-194.52801421328,-279.702386430834,-292.681273873361,-182.352645575763,-218.530689625567,-247.372174035458,-80.1302787710641,-143.059945277682,-199.250699064764,1.92234930936093,-53.7291249551278,112.004170953472,-4.0947692205436,-45.5366545631669,205.138535101097,78.5166758645072,367.516634857698,264.110773016126,70.7896849291874,462.897311822515,143.824537742224,588.508129126483,391.348041838603,-139.219712477586,285.565625947481,50.5013089599515,-293.507064618177,-978.703364119775,481.598188906882,117.543610729102,-267.401784754396,-991.853785929132,-2119.9453779179,203.218813094371,-163.25943077495,-678.00653470276,-1782.66459937929,-419.951617655454,-1096.85643033215,-906.738753839498,-347.10075886052,-461.438133242601,-373.654738882005,-433.740138295987,-460.965602285708,-331.956727545366,-427.891955360209,-292.747106077822,-377.832099557334,-419.413080825246,-460.415759046714,-327.533611393558,-413.737002262643,-295.326479636034,-322.611759281911,-385.364412529441,-445.817626582851,-295.87792551099,-378.442989368642
-359.052209592458,-377.394126714719,-303.487806821666,-360.961072174754,-388.258254676362,-269.090773373589,-350.892054329527,-373.736277356729,-281.787321572637,-315.214130580272,-346.200653512878,-177.592188186325,-248.813772241082,-299.369922829265,-94.4941825178482,-152.273649933715,38.8037753238257,-95.4094808800675,-140.444188217382,95.9939227201641,-34.7979120812281,268.864240135918,115.459141356314,-29.0946017691419,308.039113405333,41.9363356323741,421.382688414276,189.583249759645,-21.4381859409129,91.9109520981668,49.4603633351974,-6.95019132440476,-834.546222144179,246.601571642837,-30.294696247753,-11.3611104445441,-776.22926077559,-1742.87330428976,51.8446740553722,-79.967775927325,-524.246165905399,-1382.9298186381,-336.719069783708,-934.427689856136,-802.399192408241,-413.213665355514,-533.78611112116,-441.156067017179,-507.515882553048,-536.310150425087,-409.970186005835,-509.249745729384,-364.787393861074,-448.0461286883,-496.289991626676,-537.260776915888,-401.041958488643,-501.303801200047,-366.454608086462,-404.903323739691,-470.247089593921,-529.419935695336,-377.003233871945,-459.938913499238
-411.53883812894,-428.575833377817,-360.590159047271,-415.656679198996,-441.595206150033,-319.477063297421,-396.871388509783,-430.865972119351,-338.372659563485,-370.646259373534,-389.834881381023,-243.697419366114,-312.853294767522,-353.97626703893,-173.697153600181,-212.708940545097,-47.6882192788101,-178.441023919694,-201.395914384782,-21.1866667322281,-113.34201673853,113.309406915301,-3.31169661556844,-72.5512017036428,120.907709545592,-0.55499386077307,160.714591838209,55.0952010390019,157.418303803168,-56.7174929697683,126.005730355196,238.050815578205,-593.73940155832,0.209919331624505,-44.7373224845211,194.649669054898,-557.376036013773,-1249.44944869068,-42.6983857596222,59.8999464776777,-447.335537123173,-1157.83826240924,-304.279783375534,-913.527451687735,-799.190406980082,-448.119475708976,-555.389896492022,-467.71933538884,-531.807064597835,-562.81547115972,-453.431329815082,-539.074597436296,-409.5129478794,-480.478913102074,-526.771352058512,-566.397039837828,-437.956591233375,-536.62302404221,-401.058851583839,-446.859363281977,-508.43389280681,-564.314481303684,-422.817304356221,-494.716782314787
-443.087644525369,-462.004010765151,-411.821599707889,-450.868364632145,-471.743745262935,-362.646987549135,-433.85328579989,-476.906875721321,-379.548308501429,-411.52211007527,-411.323756543933,-299.422044564269,-355.709739178908,-391.480164997315,-252.466406897333,-266.898505726513,-147.604187266962,-264.857471280721,-253.112697536157,-147.608404332836,-199.152899214124,-56.0237818735552,-140.518737334237,-126.757315951185,-93.5973852964676,-89.4413500805989,-115.108293601149,-68.5355127257325,214.366261315612,-142.136057237295,131.666567184492,368.645777195975,-193.766147675574,-162.76676660196,25.9746151828396,198.456301135469,-303.389081388879,-599.772273310809,-73.5329039915933,150.367025689165,-379.994845534952,-1033.13579123835,-284.055909347054,-979.129201855124,-784.85337549378,-477.666232044996,-572.298935916848,-490.841976434395,-544.596104208366,-576.57890927665,-489.49851329956,-554.07995132088,-450.97126748394,-508.129988017372,-545.53844330365,-579.001235686517,-475.45832104812,-554.074902655427,-438.430154671855,-480.118372784007,-527.4146095783,-582.681980321183,-459.081444812003,-518.698092238397
