2.82736107885243,-0.869957255031518,1.95740382382092,-0.869957255031518,0.21748931375788,-1.81241094798233,-0.724964379192931,-1.52242519630516,0.797460817112225,-0.434978627515759,-1.44992875838586,1.95740382382092,-0.289985751677173,-1.30493588254728,2.53737532717526,-3.26233970636819,1.30493588254728,0.21748931375788,-3.98730408556112,-0.362482189596466,0.0724964379192932,-0.797460817112225,0.362482189596466,0,-0.724964379192931,0.0724964379192932,0.507475065435052,1.37743232046657,-1.52242519630516,0.289985751677173,1.0874465687894,-1.44992875838586,0.21748931375788,1.44992875838586,0.869957255031518,-0.434978627515759,1.0149501308701,0.507475065435052,0.144992875838586,1.88490738590162,0.869957255031518,1.88490738590162,0,-3.1898432684489,-0.507475065435052,0.289985751677173,1.52242519630516,-0.797460817112225,1.66741807214374,0.652467941273638,0.869957255031518,1.59492163422445,1.0874465687894,2.02990026174021,1.88490738590162,0.507475065435052,0.942453692950811,0,1.15994300670869,0.507475065435052,1.52242519630516,-1.73991451006304,-0.507475065435052,0.144992875838586
17.7655500944213,1.30930551494276,15.0150550858837,0.221858946153367,5.52676098324723,-3.38010507190302,1.77980408935226,-1.42415779221393,8.27871253591671,2.64830480025194,-2.53009260651611,13.7101192033364,3.77127131593507,-1.98709759418733,17.5495173247953,-10.0424946398188,10.324187954906,5.52676098324723,-12.6849732635435,3.20978805809351,5.12875884675703,1.00083151775281,6.43223818517248,4.56727558891547,1.12733614807862,4.76627665716057,6.97523319750126,11.0306640885862,-2.8015901126805,6.52322286860456,10.3071562535251,-1.80512822732318,5.74425029700511,11.0846722809927,8.55021004208111,3.51826205528346,9.38319080608706,6.75774388374339,4.74778841164779,13.7286074488492,7.17277772161454,12.6411608800598,3.26233970636819,-10.640954388686,1.94182866657179,5.14579054813799,11.2836733492378,0.49335645231776,12.6966256165981,8.17069615110369,9.34767085919333,11.8451566070794,9.50969543641287,14.7065810886937,13.5836145730106,7.26521894917844,8.67671467240691,4.85726134059264,9.85368938049655,6.6127510079048,11.8636448525922,-3.4710897553351,2.23181441824897,5.40025635292142
42.5985132736169,14.1857070415004,41.2178777803149,9.75076225943805,20.1169113724626,4.72248761828826,14.0381666535489,10.258272190427,24.4521379667731,14.559034940271,3.67562115506448,35.7509511660015,18.3773973041042,5.10451415582465,45.6810655490832,-7.1497455159369,28.002606438982,19.4644434311889,-10.8328697451246,16.7582018738648,19.6659920115469,11.7494715806549,22.1058310869325,17.1043428883567,10.5797389671993,18.308504480725,22.0847953293068,29.6573218161152,4.01237300451414,22.785120336334,30.694398672592,6.68058196838558,20.2789359496821,28.7235667619303,25.2753291240322,18.8319551451138,27.572722835692,21.2703028108137,17.1757483582949,35.6512678438037,18.7394441864422,30.3463658067098,11.2749340844468,-11.6144246943908,11.7443765564291,16.3217318366633,28.8402817855091,9.34151397206911,33.8896270498385,25.3771943821923,28.7692767572755,30.6044700915871,27.3454439151872,37.6941957506801,34.6732942039591,24.1132390469152,25.3380359552045,19.6402616714001,26.9902038202248,19.6398612296955,31.5922333381786,3.02824823801661,13.9178131498761,19.9092116654516
45.9989619162812,21.8855586757698,49.3544069845211,16.2998048330231,25.5055506534397,11.6956073543777,20.1818493959778,20.2376478150131,27.0563312057967,19.0812485786498,7.14563756393139,41.4270408444552,25.9929281926451,10.8620888006802,54.7199462861717,2.5313340019986,31.271757474724,23.2070659737987,-0.744465426078722,23.1880997827893,24.9919703302759,17.1903570367367,27.5966204677424,18.4401850265251,11.2195534698431,23.0509076815596,24.9406678882527,30.8501317012562,9.07913290910208,27.0177454340543,37.3255834814847,11.3887885068288,24.3717035630287,28.7839805991071,29.1043137696598,26.8157996426777,32.9066546656151,24.1385124886192,20.4330629283156,38.994449365389,18.5997233491544,30.2232218865891,10.8227494277808,-6.23123520527469,14.9414249397295,17.3646240230676,30.5546801063034,14.312301295446,37.9672832173761,28.4566266470708,34.6226661987129,31.7276103909093,33.0026940060337,39.7892819359103,36.3715499551585,29.805496273605,29.7063716313818,26.3654389617368,28.8489959696438,17.9846889541195,33.8749565697437,7.45856717089409,18.971816016944,24.4329942173082
19.3830219883623,6.00319243247655,21.5079158684555,6.14249446756157,7.04977260820946,-0.707227641193803,6.07739710359563,6.08743097036422,5.34885410873189,3.35419741745305,-3.73373939128276,18.8830503337295,9.41004813395315,2.33287953060005,28.8092284845419,-0.614008108279412,9.88569327323703,5.04130854579943,-4.92522789446785,5.3997823836987,7.5718751138643,3.72302393461871,9.34903279133979,-1.50218522443366,-10.0254666377561,5.25939816572279,5.49936585868654,3.4905707490017,-3.1308909416608,5.03837315849144,14.9657384076779,-2.73578932692571,6.29830112643062,4.11733489190847,8.29498272163285,7.8398283883684,11.8495051029599,5.88984656055469,3.57392433323546,12.4849189994333,4.54722590401604,10.7745435109401,2.42371880940177,-5.23599301065166,4.10085926776962,4.93825548872188,12.4985490195617,5.8934295687709,13.2214588194569,4.86239658291844,12.4530012908087,6.74793219303529,15.0425725843377,9.83811535328805,9.01063131416412,9.74020826221939,9.5639843901224,10.0175942996903,7.16944528565223,-5.07832004695261,8.65344285139233,-5.77750138689151,3.30720617239225,5.56582913807577
11.3689812424406,-1.60360896467465,5.01077838665734,4.11371661457348,-1.46165445074461,-3.99201347184299,4.91107763933121,-3.37452509996305,-1.84165888852103,1.73076840700963,-1.26313374044477,11.3653609054395,1.67519509302426,3.23153227886975,14.4519751921384,3.18479314744412,2.5596835384504,0.08821057785793,-3.88000795365478,-3.64895803053799,2.60324785545991,3.02160630156493,2.82197533200289,-3.59117349798758,-16.9364806935456,-1.94797977651505,3.47066325731815,-5.34218693769345,-5.85251914969848,-1.16022907907051,5.42274243791293,-5.12015407231091,1.93877088118644,0.848793626215895,1.46372618437699,-2.84045258830561,3.38782792972845,4.13968056192962,-0.582614978270583,2.17820455294558,7.36738227741776,15.730539009867,16.8537892548885,7.14010010264044,9.82235099779109,13.0655517504495,15.642429766079,8.08979801122964,4.21661987642975,-2.78194703640825,5.98815895291636,1.34377722351482,8.52370751168369,-0.916393989160542,1.12376130055209,2.23605010341025,0.427933400776533,4.19063533767665,4.44740122385799,-5.80245224483282,3.40354796960838,-8.95388734900727,0.693663845826614,-0.514618545685508
39.7973084524807,22.0824850976657,27.8088787298155,26.8022289075,21.8759069781697,23.7968755778768,33.2195338148563,21.3119210155415,22.7792343482367,31.4674029651315,28.2360941794455,38.7752818816314,26.3830150030901,28.1942789465398,37.0450279514021,33.2731669189182,26.0499648190474,25.8649562190719,24.4139528514939,19.8639902070594,29.4874565192935,30.6635278477968,27.4658319903076,27.6271196150437,11.7744058698358,22.8647955093426,34.3023305395031,26.5386929344093,20.7171874172397,31.0353605099006,31.819696420465,22.6705919756208,26.934220071451,32.5105559698216,28.5534337411016,23.7445567452492,30.5163900973083,33.8204788906253,25.444598726443,27.6813905801014,27.9760467502734,48.1793231734649,47.2546013164264,35.3113395034507,38.6679371331219,43.3999488038279,43.3753846219335,27.9632243665201,29.617854478163,25.6728261069016,36.7822151642722,32.0173906069838,28.7227598991279,29.0897973109794,32.2033480750789,29.1476861107306,20.807838863103,29.8971402218578,34.0472336665243,28.8854723287737,37.2114456335227,19.21624136912,31.2069075970828,25.9772494993631
50.924501916366,32.5835467745813,40.6535631870285,36.195507659452,32.825210108639,37.2916229710367,43.8637070666615,38.7647003741576,35.0473781516133,43.4013697134258,41.212487692574,48.8913058998172,39.9699323847281,39.7190744729411,48.5151498860549,46.4213828444815,34.2668521688099,38.4352090329534,39.1204455779253,33.0534910687103,43.792420936023,37.1600740224952,39.4547723239087,39.8423808878159,29.2872617282655,38.2952900219691,47.0212298519826,45.015680519511,33.4373415225482,49.3020594887381,44.5564124967689,35.5502772623777,35.5626968813601,43.27980693158,44.347290861301,42.6133553389321,45.1926679545681,46.7225942214372,40.0433373541397,38.1193960110197,26.060055189478,53.0577554918262,42.6605427208569,39.8874436664128,45.7584205466882,46.5797206178109,43.8865704232054,30.9526341045548,38.6965186807688,39.5221117823396,49.9205423374129,44.8153935159953,33.3883898017769,43.6868941187837,45.7499077496912,42.167323158108,29.6016856999083,41.7027148639843,43.8854772945865,42.7359334160965,52.917809377485,37.7895496518727,45.8312441322308,38.3717803632961
17.4875043970945,1.02757737134441,14.8819068134543,7.38014155732036,2.34680177897005,7.86088194859511,12.1113145473268,12.8840099985353,12.6697967042222,11.6473904205587,15.5905622642256,13.3159993426431,12.4985130562386,17.0933110382135,19.2201605561408,13.63855193634,4.59220390086028,11.6415494534977,10.6267288952377,8.09064190838169,18.1916544830258,-0.228566964964596,13.0955818321118,8.77491857657548,6.46263379082585,13.6777995573664,17.7188552090431,18.2070536606519,6.38838593253522,20.9246408949126,13.8493943202278,8.41805800901121,6.91119455542585,11.0487003470897,20.1331850372621,13.919311090774,12.8088483368393,17.6312131718075,16.2764956350586,7.04658403455895,-1.56633763928503,17.3621893826486,2.45497869648725,9.30016972627208,16.7745744190199,12.6636830128384,10.1681481407918,7.85837013112815,8.52942839413528,9.56257299242202,16.0209790985039,14.4007743499942,3.20052981940109,12.4505873158542,10.6431245841354,12.8263757665937,6.22338449114343,10.2048488421907,12.9948535175241,11.408776471894,20.8913534611573,15.6546160122374,14.2418901636148,8.21213456008401
-12.9055288871575,-26.6568804095776,-3.06227987605683,-19.0385418765857,-23.2728534642212,-17.8794752364929,-18.0118273032494,-15.226582666425,-3.63000948582628,-14.7815443369187,-6.49393323457778,-17.5707512339568,-14.0136143014842,-2.74914752731938,-8.52447123174026,-15.9340999679468,-18.0491409898379,-15.0129496347712,-16.4641672317859,-12.7837068187213,-7.74159237415459,-26.618430754036,-10.8591552801993,-14.2151930878867,-13.3139916154858,-13.6303352299822,-6.72131691937215,-9.578601207009,-13.912042640664,-9.20907783410694,-14.6373873438717,-13.6437228609281,-13.8381022035575,-14.3264035398222,-4.53997266943712,-20.534485509851,-21.1441622947131,-10.4864604049576,-8.46079608074,-19.8669513879774,-12.120934544171,-9.21037882023593,-15.1420734425106,-10.8906525042337,-5.11292287329511,-9.6519434072965,-7.3941139809053,-6.3301084684593,-14.2975084760898,-18.691656197825,-13.8216063949946,-11.3921910970464,-18.8641148771835,-17.6681393268281,-22.1059404577904,-12.9053026159761,-8.89874215755852,-19.0120367812283,-11.6554382978084,-14.1993283832493,-8.18565379796535,-9.97488406188828,-15.3272363619669,-19.0129062134871
-0.227562331463896,-8.66110368397659,16.5702257811663,-4.08887849705733,-3.37915334423325,-1.46630445152232,-8.74675536197099,-0.752465043873786,15.0446059491575,0.657307652401238,6.78847595440354,-3.65529712284097,-1.72266957121112,8.35146566810698,0.737104100819041,2.66960994214738,-0.0129742922222872,-3.50609984270233,2.26284205453288,3.67760041485298,3.9232367334896,-4.55979016191168,1.60447249638349,5.45767452115374,6.59974283280396,-2.06041900957314,6.73124403176765,0.757628779407917,7.31268149934934,1.69195729817485,-2.00725635967914,5.0332556648319,3.60667006391957,0.513563031568268,8.42965958911262,-6.07826175998715,-7.64976773416048,-1.83898630610093,3.03667459703884,-4.19532657934842,9.50574959287428,2.74658816455582,10.2397056637295,5.12718343625383,7.49544228093485,4.35136932623904,9.07495203652286,8.27819885120021,1.57965683495891,-2.87002882057206,1.82767708714931,2.5398592180766,-1.45887636377338,-6.50953052436576,-8.04563875273511,2.23944642026879,10.1105812660944,-4.84569700879813,1.14623912327465,2.4389151114256,5.27242756123546,1.4996254187038,-0.960117497214381,-2.65692193297576
23.8304295512369,20.9960207715727,30.2372725736526,22.518407781493,26.2150513840519,23.4927621292678,14.3440172553727,27.9982732457686,30.7791447464214,21.6744625760166,25.6482601273323,18.1028726909911,19.60368309466,22.9542523869131,16.515469391974,33.61711715297,25.0851118633091,20.322181356362,34.091312898609,24.0231192818227,26.9619777966915,24.2349299890651,20.2994364945222,26.3303610213556,31.1639697638699,24.0163562437659,24.949520221022,20.872658748555,33.5273077680968,25.6598739398348,18.4230608426786,31.1129629961078,22.1033580241027,21.3560042102367,29.0715334722055,29.9117207505024,22.7960368607189,15.1496004094548,23.7092641838412,21.2341033361146,26.3264206812331,21.1890649888681,28.7636969410801,23.1096452129649,25.0274792210268,21.1383406715385,21.8909903971796,24.8760778631301,22.3869507694497,24.9636572840998,28.7245614325865,23.605120614985,20.8692164574151,16.4966893139811,16.8372186400626,24.470031707593,27.2988401909731,19.0689341046037,19.6940355574391,25.8198710367434,25.9438954049793,25.9531970694193,23.7073059565129,21.860713631389
17.290140010594,16.4856320488223,9.90531175314194,21.0609344852013,22.1367441814265,18.8071785100305,14.7513201601194,26.6602355178963,11.0692420425903,13.6618911895484,18.5682644630535,6.66684181908018,14.4303375380314,12.7303164487663,6.51704152881443,28.9479788065122,19.1991822762105,16.9379352170328,29.4428988166614,15.3056915805322,22.1293534500721,19.6865486719905,12.9366065519992,14.1099717075833,21.1712509732828,23.8666396368238,16.9029503429081,13.7617573724853,27.1215232243418,21.0240442228674,9.4091503716243,27.2338025638284,8.27990872098302,13.5200075856869,17.4826470635451,30.7991845210504,20.6733463117359,7.43438309364646,14.5819263227786,14.7544689014211,10.8665553080001,10.1015048763323,7.65806875414213,13.3325495368727,16.6999186171687,12.0418120363166,8.41464528269123,15.4915801598628,15.0956519790122,19.3133829601949,23.3765415675905,17.567613210314,11.0379006321081,13.2028633692371,9.40412028607046,16.7729602313582,12.0250552716886,11.4665087586391,13.5196807788679,18.7344485728538,15.632406391008,24.2516058372108,17.3777614761408,13.2903322237198
-8.24336723322332,-8.36965315326597,-14.9713259067573,2.51120355102281,-2.34936607029224,-0.769355755371557,-2.23531149393578,2.95310026744075,-14.9727806274733,-5.4165261563658,0.42295707928887,-21.2026203633672,-4.98894690597966,-8.84184039501468,-15.1088337973942,2.47619610677103,-4.59651029236384,-5.06376318033908,1.21666190126269,-4.0852680500543,-0.589741258954775,-0.632584181849683,-3.93487733064385,-6.01844143212403,-2.80422153463681,3.5241930490631,-1.63438805743122,-8.22824170863725,2.82198702025803,-3.16566401961139,-10.5024346334622,6.38389211014399,-16.3726010594721,-7.81715855652033,-9.67614358067065,3.41723130474936,-4.84762988703899,-11.0543700354454,-11.1222880596564,-7.53362850462857,-15.7792267411599,-17.8521062107763,-22.2392212040298,-8.10647117275893,-4.60937792883005,-9.46703527912675,-12.69999151404,-7.50846127149512,-5.69011127563338,-5.52376476526911,-2.54309656056554,-1.89387144247604,-14.3963387039854,-5.99726137747304,-11.2687020755246,-3.42041126759558,-13.0613874058492,-10.4014542218001,-4.13579086477464,-3.78922290044833,-7.73067759753183,3.6800068251939,-5.55885677419585,-7.62986423796566
-21.5130057684329,-17.1523636203413,-24.2672260867321,-9.08418390307645,-16.7597301261457,-8.26316753792922,-13.5806181137806,-11.6022665344204,-17.9627834401287,-13.8540820944008,-4.51746549958543,-33.6115631622616,-14.848222737851,-19.7602042141936,-26.0704376199556,-9.05176362657696,-16.7679828291498,-15.2890239109064,-11.1704066498113,-8.3741188100446,-11.6214204774274,-9.87142033922847,-8.39443133054899,-10.9893145412659,-8.71432185797996,-12.7597058477117,-9.75994793668653,-18.0371386332218,-10.2149476656315,-18.1918238771637,-16.1115334280121,-7.32914988206839,-23.6182188561606,-16.6347349925325,-19.6198032953197,-12.6306494842358,-18.8641111319665,-15.6302594844387,-21.7497175520382,-13.5643858425135,-22.0477088618728,-28.6727819755148,-27.3523661293735,-16.5258291884493,-14.6548802327396,-21.2296489151572,-22.4744665692808,-16.6386059756638,-17.766594053825,-16.074637532326,-18.0472209137794,-11.7299390494488,-24.8413133899109,-16.3001329321342,-15.8780420400127,-10.972211159478,-18.1838737561875,-15.2433239069478,-13.3280653317913,-16.2230458000688,-14.3318062307822,-8.7563930773064,-14.637847060391,-11.3123010334252
-15.511239373894,-2.33411825265902,-20.7584537537366,-5.93800948330698,-11.3942814325051,-0.730490255599825,-8.16948228616635,-4.62166459802231,-4.18701088855657,-7.99208578733504,5.72907109616498,-22.2412421291837,-8.37956542382362,-13.696091311257,-19.898612698607,2.75838783397221,-9.78154586677367,-4.15963560778489,1.87821831210468,4.36552153639213,-3.36691717025313,-2.32839351134383,-0.623041846405375,-4.30106671165117,1.96792760935015,-13.7037053272056,-3.30739521838707,-11.3705033324043,-2.48577255389247,-14.7608782511392,-9.47859654862603,-7.01541337003983,-11.5637742266902,-6.91057947548351,-7.62383548805528,-5.626364672933,-11.4270774036873,-1.82116593010015,-11.0341650487021,-2.23156406510726,-7.24588715822867,-14.8368692152672,-13.377866141143,-7.74378401552679,-10.2696579362522,-18.3135697806627,-18.9461080222805,-6.5215386007489,-16.8800944366168,-8.43150816813801,-13.6758211078545,-6.33490082628601,-13.4134607933982,-10.8695718935532,-6.01182900575042,-6.74344744920823,-4.16304963737834,-2.27485610667049,-7.44764997520093,-10.7689775401848,-2.38052766462618,-2.46080464894723,-4.66720742832831,-0.626847218287407
-12.6016034834711,7.93536952210316,-18.7793082333847,0.898264364986401,-2.5173685231273,1.93403613864706,-0.881396183424779,3.69518416793583,5.16536960056393,0.215780652731848,11.3449404740043,-7.00993841515907,0.602859479005351,-5.44123379906836,-12.4989211852134,13.9818942374391,-4.02195832789112,5.05695238961552,17.3195618943757,13.8356140515428,3.18861228729853,5.6736596670429,1.99719885985557,0.900883445921514,4.69265127151681,-7.73203577058922,2.82571988466007,-6.7786930458686,6.93214341700737,-9.07576369498381,-7.45067805933511,-4.76030880480733,-1.13687270461237,1.38964148531842,4.03507974808653,1.80539504116336,-4.31069111920307,9.07473780144933,-0.0992863436294247,2.66336347398306,-0.0197188124097485,-6.202777104448,-9.87846515915427,-1.37796660835724,-9.51390361384623,-17.2977512494905,-15.8471617938603,0.0586002856507473,-15.5168206072493,-2.48134891198796,-7.54706261435932,-1.23241887581419,-1.70295071326325,-4.8910107293564,-0.628817620956567,-5.62826358291163,1.52736721295483,4.55109714970799,0.503107208389354,-0.604729522453795,2.24847438419329,6.0018142898422,3.23624225959737,3.79937010284692
-23.0602488338105,-0.957813706058157,-27.3231894384416,-1.46279555298329,-3.12092496408697,-6.93045398385941,-5.9952230832639,-2.61788497524921,1.49961522909463,-1.27020765483209,4.87564609255846,-4.4571545195619,1.32956023378702,-8.16133613173972,-18.0470053025651,17.0504576782252,-10.4322132025095,-2.15403271886258,23.8873812809771,6.69706777322756,-4.3299490153382,-0.860092022592029,-7.7005906607065,-0.785724726668714,-6.81293975634554,-6.13839908391986,-2.85349434219255,-11.5830061180534,3.80324611833945,-13.1004710345851,-14.2165914327318,-8.65245422218031,-3.52603810064953,-8.13012999750203,-0.605176021655963,-5.13675488978844,-8.69948471701593,1.41773267783041,-2.77228542905034,-6.40108692711799,-7.88465798611313,-15.1421234457993,-20.4447881307514,-6.36839946933823,-16.3696636017349,-23.1069439388251,-18.571645574225,-4.48032640891508,-22.4242933013894,-6.75223786119733,-13.0333572833302,-7.89257352062052,-5.22111309354108,-9.70240197054596,-5.70712824597544,-12.1097141805115,-10.8272312574442,-2.81210233479335,-4.05989003228407,-0.757396058778318,-11.0403392329143,2.69089901520244,-0.496891442544497,-2.34705132120211
-13.3670136252774,5.33737802301231,-17.1808987012122,5.00185329948079,8.59776680584888,4.21103977264193,1.79618165037637,3.47783647217715,8.61856967064758,8.80981300451335,15.5509443986607,6.84261634830382,12.9678015459866,2.22845133436127,-10.4433137276293,45.3619452982235,0.074487324906241,4.61218970279024,48.3531223841321,9.95118090365451,3.86201274015498,0.840879623105093,-0.0507102559588133,14.0539101859378,-0.181365586978638,6.05085906849447,4.89379583837775,0.858152768792311,13.6282751433991,-3.5994396577905,-3.47020453448005,5.73981104627966,9.18014757124019,-6.84545887077599,1.63526677996585,1.03326756757963,3.10594120947457,3.95299918637964,5.2114020898313,1.64943285811106,3.62581811516907,-5.54437793390235,-7.75113813433692,4.54119784876274,-2.12301521749659,-7.5135918117969,-5.07068132989091,10.6836800858635,-14.7554005187891,2.45338904134815,-4.29570623998802,-0.926038821245362,2.97229748943528,-1.91491065901386,2.45624361443247,-2.58415944734261,-4.21269063365437,7.74085042186002,0.943917834978963,6.70497671033111,-7.10561064143123,11.1861053085575,11.9653780692128,8.76549216110497
18.0765380036536,31.5167297491367,18.1650247909458,24.8541122608347,33.5600983416674,33.935491834702,28.7309928293147,27.5119801146071,31.3068934533196,34.3532841219648,43.4359100655129,30.6098684601981,33.4996632425124,32.1677369721556,16.1033270072709,89.9145920530909,29.479379451937,31.1871080093821,85.0661186141969,32.5790188902127,30.7534120655835,21.7564901950727,26.0803550312237,46.9503224277715,25.8487485689101,27.5204602688334,28.7814404020392,28.5221182420233,37.1054679869028,21.6997958915889,23.8459917726633,37.3034408278312,37.3494031475611,17.1608763525608,19.5490723330581,26.1337278393565,29.7376051104154,25.7413011057216,29.0253800694373,28.4147480278846,34.2487598660049,22.6977062800761,24.9040247109433,29.4320362339856,27.6091055447785,23.9491460344187,19.6404135335396,40.2855343462691,10.1992056676166,24.9874247973546,22.7725243240203,23.096886836155,29.4054691790431,22.7805431225816,22.5954503199982,23.1827007144575,26.1286355015786,37.7726115120852,22.6315360716623,27.3349562579081,18.940414708615,35.2119928034863,38.8499903888037,33.4312695742099
18.1701235909649,30.9737998246525,31.1900352454297,25.3018300942976,32.929340646078,33.2137438162436,32.1360892390645,28.6241541977822,31.7166359313813,34.4419087753966,42.8414817257921,29.9453602614159,28.1593919289155,38.9338845389025,16.4629505271097,91.5877831898224,31.8729220828144,36.3278371732836,83.1236852905256,33.4242909727716,30.0206281336719,28.6062254402618,23.4723481937065,53.7231698903853,26.4683709961322,24.7137315703227,25.5392389770992,28.1042168760811,31.1063796279936,22.2943573393404,25.3514884374009,39.3156447167366,33.7364787789587,21.8647784378323,18.4176654528553,26.8633245467349,26.8299004564222,24.5962905890989,29.8513595201784,29.0342027176389,38.0680477356282,20.5319704818745,27.3686527003806,28.520823396473,26.5848934635991,27.4057596196189,18.8167308049231,35.2334487206393,10.8089107363845,22.4232382106689,23.8692404586334,23.1137937833311,32.7367913200807,25.9178967253251,18.0014141771708,24.9567344622547,30.3270293509901,38.3010882639845,22.5920490590632,26.7470906167235,19.3801864734148,35.486019910844,35.9816873446195,28.6861734058879
-10.8696129024676,6.66756691192994,14.6687616676448,8.40158488296118,10.9603666386541,7.53059923203593,8.48545371517308,7.88702481793268,8.44513880516791,9.18906032793688,13.6777582272643,6.72792967855056,5.23718341366698,15.9348837477675,-10.8021089423628,52.8579139042191,7.03937983156014,17.904609845635,46.1646035716485,7.2518438310437,5.34564976257145,15.8398777812717,-3.68532582551293,28.947647785847,6.05332709902235,3.31198967805399,-1.77055088852793,2.68358651502647,1.36736167547043,-1.18330829288143,3.87468805349546,12.0626461970687,5.39510610390901,1.71678482483542,-2.2816379514506,1.82849505977903,-1.12985963373965,0.498323107844019,7.56543798622819,4.79654409375662,15.5128350833978,-6.0298970521355,4.72276598952181,10.5096206284264,1.40288860655867,8.77611584387362,-0.22498478709362,5.13428416316329,-11.9418147542493,0.570509774072716,-2.93671723241786,0.45513354013227,10.8920047185202,4.32416652004378,-4.49718672388176,3.42736601742958,8.52767136522507,8.67099075971174,-0.960909162056589,4.10849283022321,-7.10429975391877,13.5572632504369,9.47177751640035,3.13992887709934
-19.2382776185436,-0.585218584728731,6.79466989086009,3.6406568706148,4.46204036383634,2.04072968126499,-3.01388434273669,0.393825719677484,-3.8479509569133,-1.39973037412898,-2.84075617672383,-5.07045742936235,-3.33905764921782,0.527473660111388,-21.2594763757894,22.8001635206375,-4.74511744716044,6.69349000187459,20.3518451687959,-7.30632946356124,-1.55736147863049,9.40151629533763,-11.2869867404684,11.3073257128956,4.27684577603478,-2.73191605849718,-11.3309628803328,-9.29051020448644,-8.30016598920565,-10.6563979498449,-2.42680683508043,-0.710808258052777,-0.918008000141121,-6.18926300500053,-9.09378709370013,-9.15850730542531,-12.1393399007432,-7.29641086920905,-2.36204166499991,-5.99991484303697,2.49450544954568,-13.7524217913915,-1.17418827657644,8.80607417233876,-7.58767553367958,2.46227755321899,-7.68464739605768,-1.71371189030524,-16.4091897066488,-3.58080971138615,-16.1481295721847,-8.81075536692068,-1.95339009117231,-11.4427285593809,-11.1541615463504,-5.66945911370938,0.759007213274606,-6.67108719631696,-11.4305984839534,-7.27947886366278,-20.1995404601,6.35105852069073,-1.98945939995078,-4.1772681858234
-14.3859980184284,1.30676713358904,3.13328357677968,2.11322131996953,5.4668892373816,8.12728725227271,-2.93725478417483,-2.28521711236743,-9.80918203515507,-0.24318873111758,-6.27694238957975,-10.8736982135496,-8.64395210898028,-4.14849783040012,-15.9380893226672,4.60117908696738,-7.03930613358347,-1.83696409254237,5.82610875026407,-8.30335748722475,-1.82839537133571,4.8974610864581,-8.61353873743376,4.81518071132767,9.41251892036358,-0.429951402803315,-9.31908992018069,-11.0909601741363,-2.83775953468939,-9.34408804495818,-0.0528088887670104,-0.701146034666082,2.18384671775472,-5.93532128953911,-10.0298843801874,-8.84304941186973,-9.80959674285215,-7.05701018812599,-5.04355535078914,-8.68829643109116,0.863965628767235,-8.35336201466266,5.48967928701117,10.6351129391322,-7.15943892468321,2.27227916844999,-12.6822440989793,5.7321769130659,-9.36327616342912,-2.01317448172205,-14.5330728057189,-11.2277667771307,-10.0477251264784,-21.2507738508086,-13.115253521846,-8.19826503084166,-3.61680966208427,-7.37838783285157,-10.2739986942834,-9.32980013156136,-21.9105979500647,6.72387528845753,-8.26080406673677,-3.99065599019166
-20.8333098763781,-6.35036566239971,-14.0163259749751,-8.01600443470614,-4.14678539708089,2.63222910028479,-9.78960413930742,-14.3186161053876,-21.0906181113904,-6.55281633228032,-13.36841396266,-22.2794069531509,-20.0093117806343,-11.2151165503191,-17.3753929081495,-12.8518801373974,-14.2796511380917,-16.7944700217232,-11.9721432851811,-12.0968849603566,-14.3091164678029,-5.26758631768827,-17.1526360198336,-3.24698948914778,2.43539946570324,-7.19821750297793,-14.7810078882475,-15.8848979780593,-4.20162669797068,-14.5334976389689,-6.79103571884216,-7.39885236444939,-8.79610247982774,-14.8242783674074,-21.9286783873186,-14.9046914869149,-13.2417843578918,-16.68233268714,-14.1223323651237,-16.9491206028718,2.71810294281968,-8.71312342057064,8.93851021278781,4.97844208454428,-11.180232256225,-1.95121072650342,-21.744857927848,1.63756406290768,-12.3496011147779,-12.3061480187908,-16.1241939003838,-23.0433892329787,-22.4892613700567,-29.0018838660099,-23.7516782143616,-18.7648284317425,-18.1240880678867,-11.7204532148014,-13.7274610379376,-13.557118569097,-27.2753645176599,-3.53626168807273,-21.3212374887408,-10.6582252472871
-16.8293411337723,-3.20030715399052,-15.0199281356571,-3.53781990242675,-4.59273626886237,3.80708718601292,-8.01266963306454,-10.9295224093729,-14.3838589615366,-5.53393630136553,-8.04181901602882,-16.8885573606557,-12.7605106476528,-5.05313652385494,-12.2100406246183,-10.2637231818838,-6.24097587738446,-14.4989739963556,-12.5839691989756,-5.18957821811008,-12.2883317333913,-0.204671010672519,-14.3523640789008,1.7116586188597,7.04204426608707,-5.71663606956528,-9.55658754646749,-7.37375878030591,2.07136968165577,-10.6625484182339,-5.41520178652649,-2.98420711150158,-7.59058674771727,-11.5462373175147,-20.1821732034302,-11.2318816267896,-8.67998646359899,-12.6042772204264,-8.46948584976759,-10.6716895556684,11.012742197235,-4.0918699212382,16.8768590581038,12.2568881346706,-3.64960475294373,2.34312876683826,-15.4129891493904,0.595810139090474,-5.20961466726102,-7.11207240614918,-10.3380227108863,-23.9594901468833,-17.0364463837197,-16.4799270986072,-16.6370362327699,-16.163675699006,-10.0649821081165,-5.89777598552507,-7.69573304063461,-3.18394722074802,-18.7777921221998,-1.80787036262848,-13.3543513589421,-1.41049230942556
-8.32300320549879,5.98971554435053,0.790662012667958,10.036790957025,2.19346911508816,9.36190809068398,-0.496310448559145,1.30355946241639,-0.946236202337135,-1.99908043817369,2.59536991350504,-3.82026678766906,0.126254591014254,6.11970558413501,-5.02109739024888,-0.783677139240682,4.55168491912145,-1.20866534038211,-2.55926806128416,4.06935711061043,-1.19919987927748,10.222742531492,-3.51848651756693,9.85863355874907,14.8934208109453,0.89005142017372,-2.52147005181118,2.41095831148811,9.98413212264967,-4.18621119121942,-2.40810907022999,7.02325267148519,1.69216974301559,0.445291662465099,-6.03559029760489,-3.93401730104622,-3.55835666261856,-0.320544009494714,3.36859728567543,0.0986328045006868,6.07082011853043,-2.08094808455501,15.4370646075115,18.692055922064,2.40072365699914,3.13398841151386,-7.4299042447512,0.943119119563556,4.6490067935975,8.28442813484547,-4.85137156376591,-15.9112739688822,-6.31210337293845,-0.817016245867404,1.66497784680416,-5.94542758518533,9.90815721078674,2.58537493767925,-0.20118599171819,9.01867842821501,-5.90354232920018,8.98702042146586,2.61924249221439,10.2038732058794
-30.1166580896599,-9.94797460083127,-7.87036229361489,-2.84297912538778,-13.0291865596341,-7.84266454823544,-14.9688362593832,-14.7446811782678,-17.8482668460036,-20.4229227533259,-17.4612738948854,-21.2357795831578,-17.1935391237525,-10.5136315869583,-23.4338438794972,-23.694471402935,-15.5731402860702,-14.4026601169918,-20.9187123151545,-14.1367208810905,-18.2232066426787,-4.5596309498025,-18.5709347884726,-9.61261440051971,-6.92446683901969,-15.9839299372509,-23.4048641364844,-14.2986163067144,-8.23362676158713,-21.8297741854609,-23.8923516599817,-9.10997176303966,-17.3714552555709,-12.4619686677178,-15.6490104233194,-21.8689276666064,-21.8747041355814,-14.2485347214602,-12.882900355469,-16.3705568766173,-20.2470882332216,-19.8035018000038,-6.63532304371141,0.790028392701977,-16.2311095463148,-14.5408696407464,-20.8119667277323,-15.6277280750898,-16.2108431677991,-5.49167348875897,-24.7129382045259,-29.9743998400857,-23.194169206134,-16.7488201555474,-8.36585375242186,-18.5271023988582,-6.52773118652097,-14.2156759713563,-20.1948736177881,-8.90894511440056,-22.4250540630614,-7.31622260205529,-16.8104554468495,-13.0346228570882
-51.0691422377081,-23.0159507896858,-18.222833492746,-21.4563260637258,-27.3579936044704,-20.6857341998864,-26.969132625075,-31.7819864133138,-35.4690250835184,-32.1643746601017,-43.9118348486313,-44.2895631603552,-34.4359388333968,-29.4971371881638,-39.0862358269275,-53.2829413856919,-31.2391609618281,-31.9320659217811,-47.7608921597963,-30.5849129210849,-35.0437670734644,-17.0641366305199,-33.3800918303769,-28.4883818261893,-22.735736340433,-30.527552551866,-36.6457635748584,-26.0297407908447,-23.5676541318378,-33.9734023659862,-37.8843430079151,-24.4322686659781,-35.8304044889876,-26.6680174726763,-29.8192302670736,-37.7712972867721,-32.2136022252541,-27.5211236063115,-29.8139555681882,-28.9484496391424,-29.3237890137093,-29.5830262398313,-12.8558456891053,-7.53910010122343,-27.6834971819386,-19.5166682980005,-25.4019476090077,-22.9486009506632,-35.1330072533789,-22.2558952157179,-41.4337606833318,-46.0109989198325,-34.8856995203312,-33.1954519220481,-24.8624476977302,-28.3385227239064,-30.3482975770276,-27.8397885351802,-38.2128334151914,-24.4195060779714,-40.6111224265838,-27.1984927757318,-39.4195696280988,-35.9289056956417
-37.9820004044126,-5.96705765416085,-1.64416268997747,-14.6300404891229,-15.2894477382759,-4.73391198465846,-11.5717952119069,-16.0285496308993,-23.802650453061,-17.1661090927597,-39.4850524502899,-38.1695344812261,-23.1348764374003,-19.8063092202069,-24.9209259742124,-56.7158902845266,-13.0863608862895,-20.3141682922636,-48.8437927291768,-15.460467609305,-22.79266220172,-5.44651895509792,-17.6523821175388,-19.6924345412747,-1.75538516496773,-15.8839080240024,-15.2183054666427,-11.5193427277153,-9.88243634202756,-15.3176936688288,-19.1958736190175,-12.403512215902,-22.4890068852575,-12.8377703332453,-19.8881032076599,-23.2078821067309,-15.6051547864612,-13.2847873435522,-17.4191430110854,-11.5820917087516,-16.7698910050786,-20.3616277550708,0.427178030193486,4.00959418457486,-16.8043592889709,-5.32919476940917,-13.2598490493115,-10.0598146574636,-19.4865975212608,-10.4981722752797,-28.5327398513656,-35.547075569326,-15.7416850177034,-19.0247499554535,-18.3788967523196,-13.0080940823592,-20.1606447830853,-13.2959634847307,-24.5558790395455,-8.5660016948682,-28.7666858043,-17.0544715331935,-26.1142239852217,-21.5913661679924
-39.0166360540964,-10.1105770755624,-12.7053119710867,-19.1693525718005,-19.4611311435494,-8.63916264990392,-14.1346084966392,-12.9752955604825,-29.5838749742056,-25.3499667433787,-41.3192243816556,-42.3613675487276,-28.8129241369594,-23.2154162900013,-29.4791049802909,-73.1518475677761,-14.6421595594306,-20.0464851549096,-59.6768802689889,-15.9075669884155,-31.0652784666147,-16.5556397807038,-18.7583740144314,-28.8077257064088,1.29274657358435,-19.2108814255642,-16.6083472585328,-18.8547996845265,-11.8247502846453,-14.5453193494715,-19.4352761185791,-18.0543698850813,-24.4450549391293,-14.6025791912652,-25.4765415361656,-21.642672876264,-23.6755126493169,-20.767171106535,-18.9804241303858,-17.4250889735267,-29.7670833173186,-35.1815712688527,-16.2975899014561,-13.8953813512951,-28.6750935803132,-19.6502276469578,-32.6814580698259,-22.4873623011095,-16.397540856108,-17.3924971917543,-29.980335229678,-36.3203109208543,-18.1751954421328,-21.2121143987735,-29.500606332881,-19.6157350191557,-19.4813488989271,-18.3480954984911,-24.7633538337344,-10.6783827121653,-29.0246349966781,-18.397897758637,-25.0598213723969,-19.5991482419552
-79.7764460666905,-54.835494917613,-73.3086284669058,-54.5370442643261,-56.7477991938244,-50.645366088148,-53.6160088766161,-47.4100630608805,-71.2388338484355,-69.4612565796159,-75.1366057306109,-79.7047053832037,-66.6190010156798,-60.5037426884785,-71.4143188130818,-119.989750580946,-55.8079128761821,-55.6509696889891,-102.326631388445,-54.2824759702588,-75.4264977508443,-59.9280163221323,-59.5030964016949,-70.7953517707406,-38.795965961772,-59.078489221908,-60.3117051029888,-59.0507355438496,-45.8346193624041,-50.8637550108595,-59.4744376009167,-55.7648292854245,-61.9675423209267,-53.1861774016575,-63.8799380153516,-54.4554064682538,-66.1921754534258,-64.1876162809999,-55.1085896893204,-63.9366233543315,-63.0092193631176,-73.9946581387918,-53.9282218257087,-54.9705579735681,-65.8923182877609,-59.9999370637119,-75.1669528914246,-62.7660435990394,-50.0609958945659,-60.4834754421233,-66.0357422876221,-67.0901177622673,-59.7806796719344,-62.7511477445264,-70.0060219755111,-60.986069274116,-53.7962621895189,-58.829052215341,-60.3594088083681,-50.4647328387021,-60.3018999714625,-55.1234263792728,-62.7281987023804,-57.0646574968262
-104.131114092779,-75.9710253028022,-107.993152152032,-72.3382043820329,-74.8101701731958,-71.146141375113,-73.8830189133958,-67.1809617956115,-93.9196968061069,-87.8562771762832,-93.4265808495249,-99.188952171486,-80.9219786942027,-79.4554098886248,-88.5021983442613,-143.479800765693,-75.0209591988887,-76.9265470315269,-127.25525671671,-73.4815920983649,-93.9609471046609,-75.3549918741484,-81.4822083395767,-88.5654434375394,-62.8770969473647,-77.124522983356,-80.8234819985195,-75.4198827623216,-61.3963067781549,-67.7202958212386,-81.5485174533362,-68.431936168624,-80.1239363037036,-73.7347049789415,-81.6178297130799,-71.0664749274871,-79.9878502446805,-78.635975039096,-74.2073966601257,-84.7793513348348,-65.8379556775648,-84.3899009167044,-55.9254878161127,-59.7512443886895,-74.7072747922081,-68.7973793793521,-77.8073877778444,-72.8799544081776,-69.722780058123,-77.7457495417603,-84.5974884299475,-78.6380106192946,-80.6772289526787,-86.8622777620889,-83.6472138549483,-77.7307429315418,-72.0721501848659,-76.1535523940877,-78.691219849361,-70.7553254556754,-72.2144585756928,-75.7508053205714,-80.9060973617194,-77.7214888992426
-82.5430166228062,-49.1261889845728,-75.6770579947756,-50.8172358768854,-53.2420789536853,-45.5396073457001,-49.6898296188501,-46.1141760567718,-76.2599473701578,-59.9918730975032,-68.3875636715959,-76.0917250534435,-54.2394073831371,-55.8929501454739,-58.8608521366704,-115.992520305197,-50.602721532037,-57.8050856120453,-102.470315261842,-49.7910264822952,-66.9100359198389,-47.9179189315804,-57.0701300621238,-64.2053997009119,-43.1600977387121,-52.0917582451452,-55.7407839308175,-52.9032312283435,-41.6746078166433,-43.8049726164751,-60.6937370200864,-38.196033857479,-56.5025813799264,-51.5181152434727,-56.6040639256759,-47.815788107556,-49.414973166277,-47.387128866538,-50.8007325589739,-57.6018874786211,-42.6720122364405,-63.6454863093918,-29.646966857735,-29.5245455100069,-49.2166038003081,-42.4126197004124,-45.9315726360794,-42.8713832854849,-48.7569392565159,-49.6031898694748,-62.2518752157578,-53.4629628469017,-57.4757114792745,-64.7837143195195,-56.467543932456,-51.831471696307,-52.1618730956341,-52.2058861982713,-56.2163384010252,-48.3470433351622,-49.0941565482097,-54.1083776000135,-51.0713185013657,-54.3509152076469
-61.65149350695,-27.3284668704947,-43.9864878381483,-30.108596031279,-32.7093717489944,-21.4443694876118,-28.1037175967367,-24.4811786420113,-58.8095771561391,-36.6689469784855,-40.4929727642614,-56.5493347441245,-35.0052395970309,-31.2024911125726,-40.0482150579369,-78.5901498340448,-33.2859961690461,-38.9224404649885,-66.3993120254515,-33.7529928945214,-44.8851726898991,-29.7523970810213,-33.9282652424401,-46.1689792039713,-24.7936955442138,-32.9833133053746,-37.4430854956703,-38.618264928859,-26.7143023869089,-26.7283814203263,-41.9380467700174,-17.7455813063981,-35.0325675880826,-32.4534847389647,-34.520523164458,-27.371163100634,-29.4359624327827,-29.4379460956582,-28.0622699978951,-40.5682479715574,-36.6529902412963,-54.8256588564005,-25.0253208311285,-12.9915820871633,-34.6223162334777,-29.9511771573524,-37.3887050098536,-24.2698724491246,-26.7467794952594,-31.7523357310487,-43.2073051479542,-36.5997806517815,-36.4159679366647,-41.3971517404235,-36.496866324341,-33.2203940394862,-37.3129035892686,-35.5480468727529,-34.3817722390465,-28.536988096242,-35.100223138852,-31.4992368961721,-23.3058544427897,-33.4297247925049
-70.3032967929322,-35.9626063161202,-63.8710215441499,-33.8836441845758,-34.821617072566,-23.092388435574,-37.087994694839,-28.5894278700699,-58.1986167481494,-41.8460083171705,-38.8919984835865,-64.919980088625,-42.7740269949179,-30.1526803070379,-58.2594929075788,-65.004415881846,-42.8051961254702,-43.7246098707907,-56.12487562502,-47.1697519676954,-50.9714267786966,-39.5113089281383,-39.8775641455435,-54.455712304365,-31.2424271320724,-42.1644350811364,-47.8514180689069,-47.0501228443944,-31.1013559936406,-38.0705892992957,-47.5996508125758,-30.1529406894578,-37.6692979173019,-39.8092417872536,-39.5147069546588,-34.2387687470977,-39.5749092737764,-45.1372923071869,-34.4256496579515,-57.2884580055151,-48.1723544215231,-61.6614900672083,-40.8142853921264,-17.2571101009021,-41.3536313212786,-40.2287927954018,-51.9908993191315,-34.5441182146143,-32.5136183752741,-44.9377133833413,-50.0661214589099,-43.3017180432118,-41.351803504349,-45.04257433791,-40.9187819696241,-42.520622297225,-47.6439342960419,-42.7511693330058,-36.5886285204299,-32.8946843148761,-43.8015948864121,-30.8474031446348,-28.1762273037748,-38.9036132491603
-77.0494776818566,-44.6236953000738,-88.1394487979861,-42.188159710639,-40.8087213384448,-26.4445053439146,-49.1089504261157,-39.8614461096405,-52.0444194529891,-48.776631709532,-43.6345011854795,-68.8272307763431,-49.2735088778709,-35.2262736963345,-75.6124034242685,-64.9787320966288,-49.4846500179399,-50.266196351459,-58.0904601555986,-56.4557619964056,-59.4604255524223,-46.3647744856139,-48.970613049021,-61.152087710454,-35.0937695977173,-50.7100617117446,-55.3615968568002,-47.3425387073423,-32.9298313626301,-49.3009190095408,-51.6561095779208,-41.4601880117371,-40.2080951991269,-46.1830063241141,-45.7655077815393,-42.5361610889799,-45.3161604415445,-56.1385634355796,-44.6506252676097,-69.1891231468997,-52.3389788420168,-57.9970711449805,-45.1673436092545,-21.2123000523045,-45.058980590109,-44.026544821878,-51.5633853908696,-44.7395430253513,-45.3199012872719,-52.4018333517362,-55.3716972961756,-44.7274760226281,-47.1265044864543,-51.8101286394829,-44.0041097978715,-51.5546022484343,-55.8146682092202,-45.7943124295902,-41.8638286293785,-37.4533341768586,-47.4013246762114,-31.5417862883047,-38.0092065422682,-43.1848982895462
-60.4104110514097,-37.8416152398295,-77.1631327925427,-40.8470036359556,-41.8364796370148,-26.2035416670796,-46.4975505636762,-43.1678823925117,-38.7039602081694,-46.7265137864931,-39.9608287986775,-55.6899098454682,-47.0054788909779,-36.0990449649438,-69.1500521959754,-67.0100953410719,-46.0918197030717,-48.8025989299303,-54.4257287882214,-51.3789357208556,-57.3395303857367,-43.6254673355264,-46.2793187812614,-57.9204285940025,-26.0235502148453,-45.5753831993901,-48.6750824020887,-35.4826965803998,-29.7467234020818,-46.1798881418503,-45.749421543722,-37.6116359701948,-32.0996190031391,-41.0849394201377,-40.7064039334746,-38.1182531893107,-37.8223650434257,-48.75886980752,-40.9112502485791,-61.5510556699816,-48.2863690843354,-46.3142932332025,-39.8951173061867,-27.0349359985176,-40.9257705442445,-37.5009370789631,-41.1509606686528,-43.4740359849906,-44.1005931732381,-42.6742342873993,-49.0599419442501,-36.6040818053996,-42.2167510164038,-47.7890464764529,-39.1110682486897,-46.9736801719001,-48.6588954116613,-39.2659140176802,-38.8922704101333,-35.7958225403902,-41.5040370208931,-29.9066134377587,-36.363081144031,-37.8683292054613
-38.2474072228006,-27.1808382464755,-54.6906902772887,-35.0566718278146,-43.3488438212335,-33.4063850098325,-39.239046558425,-39.8408767749565,-33.3433949517358,-44.9370786294928,-33.4017842130186,-46.0576690971416,-45.4483884535139,-34.6621498029044,-53.2540869410357,-68.0916949345272,-44.6590231402196,-46.7916851165272,-47.1658746794697,-46.864661491106,-50.717093475475,-45.3674987119937,-40.0828608185937,-56.5712145739232,-20.7894478323743,-38.4611854601667,-44.4721063950605,-28.619733634277,-30.1478716648092,-36.9673281688565,-42.0768938562169,-33.2265099657932,-22.9273962665673,-37.1784784889507,-34.5070770681579,-32.8871210289266,-34.456903768968,-41.3573084542956,-33.0172825219761,-51.2594579430319,-41.8942359498625,-41.69044795804,-40.0511214490534,-37.6464691761675,-37.2066181273899,-33.4592870526051,-39.912944210683,-38.7561133819044,-33.8969216895042,-35.3461891063372,-43.2175290268261,-31.2630331228944,-35.2394563105559,-42.3408745050423,-36.6779623158659,-35.0698396538244,-36.4287931858361,-34.3205052319921,-35.5694684782209,-35.5012621591356,-37.9798676642731,-34.5765865998186,-32.7855687644739,-36.9143207512889
-35.7008175414829,-28.069376417276,-51.2466014858793,-37.1922332171928,-49.1748274590313,-45.849886129986,-40.1723103374129,-40.4338758068085,-39.4092407156077,-49.8471660944132,-33.1056964075201,-48.9829813326864,-44.9310115517305,-36.7423574689082,-51.2376950287249,-68.5652414803764,-49.4046868478867,-49.9254129156667,-45.1635724770883,-47.9636349928163,-50.484033580481,-52.3158524027786,-40.3335391982553,-60.4687158973016,-29.4846706146689,-38.8942265787451,-51.6239950043746,-33.1712260196186,-36.0221522707259,-35.4098200343576,-45.2721840701145,-36.8065705528231,-23.6949828216547,-41.8168598998566,-38.1859501938474,-38.1024486313606,-41.7479004531384,-46.4055085295279,-34.5260103407534,-49.609389111691,-36.291587603214,-45.74454421376,-47.1833184601866,-45.6642120280477,-40.0791899127515,-37.6196934689791,-43.1406560234121,-37.7948077180309,-33.2381727684128,-41.8021660718311,-43.7735439280857,-32.3164327751482,-33.1995971244403,-44.7750603008491,-41.1826868007761,-29.3440560014161,-33.2423567783503,-37.334461484614,-40.745848728331,-38.1724043101946,-42.0845481712475,-43.9020872879562,-37.9016419783846,-44.8253012624869
-46.8806832025374,-41.2563424710584,-60.4063740860108,-47.5606633248057,-54.8531585046414,-53.5839707070255,-49.0108115756177,-49.3322446946578,-45.4911137471503,-57.4225908091851,-39.3679275179417,-51.3837099508275,-44.0247968161969,-44.1115374984808,-62.637150099518,-68.6345559745368,-56.2038688718942,-57.547993572932,-49.337061602246,-52.4835971354031,-58.50773515505,-56.2849240784302,-47.8089202097864,-64.5906283716179,-41.8293015435886,-43.6415921796797,-59.9880299448098,-43.2992132766587,-45.5364131809153,-46.2918740304075,-50.412217791658,-44.8567240552447,-34.1416306682025,-49.9402231139671,-51.3453171556964,-49.0072848016924,-53.3689674348718,-57.0085735805618,-45.1141820513208,-54.1750295811356,-29.8059005961054,-48.4347732659956,-49.1998517962746,-46.4328503487697,-47.2621534773275,-44.5378197303984,-40.0713471168197,-39.6033812403723,-43.8269669330551,-54.4818064034149,-50.0476669181063,-38.7141623935187,-37.3511620882201,-53.7460531168904,-47.7249199804384,-38.9615142454676,-41.5801245808529,-48.6111733266652,-51.3943861941029,-44.4067661402016,-52.474085720048,-52.9972679441082,-51.1661182877733,-54.2286830417931
-30.3600086609091,-33.2684602399195,-41.5741565694387,-35.9476146629641,-35.0493462980852,-34.8277696989014,-37.2226883644881,-39.1841091478062,-26.1457080614692,-38.9968515381419,-27.9141803825366,-26.534119200198,-26.2801635327851,-29.4899435499394,-48.6860455146083,-45.7491139522077,-40.1237388408467,-44.3306753251291,-32.7438223251034,-41.5347846202179,-43.5804800499441,-37.743601390049,-36.0068981262281,-46.9239637774979,-29.0621648677048,-28.9188736314271,-42.3360199039067,-29.187384803978,-33.8642989985272,-37.8190406311812,-35.3369313321482,-33.8205380281383,-23.2144242347581,-35.7983687294347,-42.8290276939612,-34.9598451623148,-41.4032463975258,-41.4826640472069,-35.4241005822659,-37.3180344539325,-5.52139451642372,-28.9538074121809,-25.6987966302556,-26.9849361445144,-33.9250320966048,-31.7329332855835,-18.6320949029797,-23.9779937616945,-31.832504561661,-42.7608348942973,-38.4040805533788,-26.7450752774461,-25.7428473398575,-40.4967856221256,-30.8561950627354,-35.068922444133,-31.8056793634918,-41.2752854624632,-40.2689792660859,-34.224083202214,-41.7408818362825,-40.0902716425087,-41.0203358320358,-38.7437928991496
15.0376012231142,5.65301122425148,3.32338772486579,3.06240206938781,8.97082415279238,7.74454120712548,2.17271412263988,-2.37783531495976,13.0347131849041,5.83812065122233,5.01559453019234,19.8070783682656,11.1349056983287,13.094532467473,-3.52838997112885,2.64859205653108,1.36913226099413,-3.58332548745729,10.9598331515474,-9.42193634578869,1.30200425066952,1.96083989252793,2.8376636504884,-5.36280190477254,5.07005649663858,6.34764550812548,-2.23541073647893,13.6561759362219,4.16051443859681,2.17817607692082,1.8413250639167,0.637218979513426,15.7352612226496,2.84185289568821,-3.84854882358704,7.73551327398962,0.868386650272085,4.0898282088151,2.24418166306653,4.93045313408682,24.3039392854119,4.77681130503195,6.71713722206354,5.47450167809154,2.78313421795684,-2.10640056822041,12.3310036557005,7.16504396517555,7.97930113112202,-1.65723113881185,1.76363131456724,11.5058032672841,8.32764046044103,4.09892547551351,12.1429729094247,-0.783886640900557,4.8959433280216,-5.43498820984453,-2.57620496712653,-1.33155983359879,-0.354066330052911,-3.07687556154764,2.66359378354531,3.69364169027929
28.063785706807,22.0110992005099,9.54802823890272,14.6843703893489,20.368615442044,21.4533784002431,18.0413511279587,11.0703506482224,20.191260675857,19.0764542562724,13.8007452497246,33.635072483999,23.9474291838957,26.3939928607681,13.570522352657,22.9460094112217,13.8313694844622,12.3303318335568,26.7163971472183,2.47885210136997,16.8524442510372,14.208486333866,18.654067117114,10.6707616816266,7.71052643215393,16.0458920769657,7.78029066757442,27.893087709476,14.2921630230719,16.6473391744956,15.4949848486433,10.8654471515168,27.2584638729815,15.0361364754738,10.933090376639,23.3734093391326,20.0090550707715,23.9388910506205,15.7892339276126,16.3433309962187,14.3077797024216,7.92785765551343,0.906804440083873,10.4109308821085,16.5841758129668,2.32191833439733,16.9602776704414,9.6571741002055,18.9467701054716,15.4605212648404,20.3366899035244,27.2149492741617,18.6606725615082,25.9176982369935,29.0234015708691,14.8884623458462,16.3844881350152,9.41337983900706,14.2769915836336,7.42571675482296,17.6171590649713,8.44246440237855,21.3973881107895,19.0214778816427
-0.54444568233204,-1.84846897043234,-26.6209103993982,-18.8186327120575,-12.9935463405031,-8.22271966466669,-6.68359269894872,-15.8405020936725,-10.0338634769723,-11.50633033445,-11.1356595194188,5.80319006849763,-2.12453171370418,-7.58319814006983,-11.9764328473843,-1.2603654422138,-18.2747403798975,-15.6264605892152,-3.34610831295611,-18.9636316955699,-16.737602107431,-16.342454362739,-6.17508889440773,-14.9184537076544,-26.5983404112035,-10.1799398493612,-20.2030913106745,-3.41406151944809,-19.6558579182033,-15.4880324514528,-7.15677392756876,-19.01400596092,-3.30588229362515,-15.2406468413276,-15.7200047019891,-5.22598166547411,-5.67937533291426,0.32258183868835,-11.6775805367884,-16.7998907267913,-22.4985963249409,-18.1122734081712,-29.6424176455584,-12.3570971185335,-4.54156188320167,-19.4778125795569,-2.81937827671558,-20.2944741518564,-12.9768342977502,-11.4641287116811,-7.35805828875604,0.282520220678808,-8.9062055990486,2.2649314585514,2.12425044025473,-11.221688442443,-13.0879259623201,-14.8339882043184,-6.50007461700352,-23.5174365349358,-11.4268834901407,-17.785603609939,-8.29811184224335,-9.28221947484272
1.93939420634181,-4.31095770224236,-26.735873754597,-29.724682388308,-17.211244432397,-18.8705792722829,-10.7735386944256,-23.6851701658722,-9.40282197074129,-16.2952110589417,-11.1349361021227,3.16160015245715,-7.88547907908302,-17.0309759160473,-12.498978397452,-4.23761656703113,-24.5510986283059,-21.0278274073635,-8.60751461596882,-17.1672125305237,-27.1383956211438,-26.3828198333427,-9.97089994962641,-19.2965842831949,-28.8057030156715,-13.7591850756922,-20.6534368557315,-10.9378196735833,-28.5098556306939,-23.7010268526643,-8.1532159838001,-27.9113949693354,-6.64119739125276,-23.2634635542221,-18.0130694752113,-13.4677046576682,-13.9440036813382,-3.77112806687754,-14.2085249752589,-22.3431553289043,-18.4044378930307,-14.5627954550013,-21.5575019411146,-10.3542925445323,-6.48060665061069,-14.8191771965149,2.34584474331287,-24.4925532362246,-18.1777331870961,-19.2304425744765,-16.8383423365855,-10.6523714068774,-11.5582098023292,-2.57507423663051,-5.48882669628231,-19.0863638374089,-15.6108214691396,-17.7206976141055,-11.8051373530865,-30.0834988493789,-21.5365586230668,-20.1995269867489,-17.0213136085302,-15.6904807649015
48.7197456280224,30.9752998720625,16.0048966193154,7.16513569830934,27.0745080632237,8.18114992891357,23.8897603208036,8.81097324267175,33.2696531322458,21.1166627423883,24.8047085561971,41.9604387638756,24.9145200764634,21.768120668633,27.9032723843801,33.7658735676597,14.7262523268807,19.112063493439,32.9609265400194,19.5088148110051,13.136109874224,8.02062056127576,25.2423768464616,17.8376819476828,11.9185414932706,19.8714185098372,16.6909944636085,24.9800261542229,8.71420450937774,16.1243355815392,27.875724348278,5.57129576540137,33.0916895213027,15.8506071581244,20.2089105989835,17.2578959883664,17.7700486340768,27.9502227982614,26.9887173472867,17.8180665542793,22.0929715092904,22.873269822052,16.3668681473427,17.9041804817556,21.9315098972035,17.8561590297663,33.4211731454405,5.56384844404698,22.060971784193,16.3928630575119,19.8586680846585,17.760905375211,27.9266003709473,33.4540538898361,26.3361295104711,14.1959735385876,27.0103532291349,16.6221510576698,14.6615416316201,8.16806026612199,13.3318580268019,14.0223294921331,18.508714494314,18.7769862595016
65.5632546163952,40.7942998708271,28.56823977115,24.3551990387309,42.9464303294928,14.3437935229083,34.1202832959607,23.480732549226,43.6792609368664,32.9143952560514,33.5451475995099,54.7706369456019,34.7050759027902,39.5654499318368,40.9120506547265,45.355713822905,26.2990699850182,35.0600694777918,47.3483037835449,26.3612224283021,33.9226096727489,23.3780748295851,35.1244118275641,30.419671610099,22.6433025154532,31.6403888577487,25.3317654273139,34.9195902249611,24.3683215349093,33.8391589347676,37.0343713848903,20.5336021993736,42.3705569080004,34.5821491596491,30.3631535025317,23.6183390904356,28.9698840189975,31.4919192125021,41.9292570557295,31.7825678675715,30.2506495433999,35.3733834607829,21.0270933934537,20.0079793079107,26.5337023001808,24.1225929661124,36.5564691791515,14.2247292032375,37.5461292190777,31.8055399447389,37.281243409295,28.7091115381029,41.5574227019223,44.3454349415885,32.9468147117807,27.5040457485195,40.5014022374265,24.3904303245097,20.0099952246901,23.8897372866341,26.6531323791757,21.002951652651,29.1301525650993,27.6442524282482
44.8934325245197,18.3231974161625,15.5238641419984,5.12233330869311,16.4559002493215,-3.90201121606849,12.3746256466189,8.85855982936292,15.9431713901704,13.2909017382421,12.0467302565005,32.2165913392317,15.1714893136197,23.8234383378857,20.7916323733585,22.8129972052752,3.03743214202886,13.022799929039,21.0796130426092,2.90000194390342,16.9777548963244,6.87529990021059,14.4315983860026,9.21883693081333,-2.47028881479195,17.4460191085757,7.25925215560672,11.3720957072683,6.45557123084868,15.1515177965121,14.1051636429548,6.49455088969464,14.9095729832543,13.8456871328605,5.82397521806011,3.06003034936583,13.1451624760462,4.70226567468654,19.5336848832479,10.0719697581225,11.1038957399097,22.3902616789882,5.3721247338781,4.6689965680798,9.05842528445315,10.6630866972277,18.5214709519657,1.59257348949399,19.0278805931674,13.5563942500154,21.2269431999932,12.2282979112348,20.4770393835408,23.0895574877734,9.17008828511812,10.9381597577843,12.6757879000109,2.65915917162167,3.09913456513659,5.84824514428206,7.47668893367587,-1.92133582343387,7.5610414282603,4.43872552242682
47.1241794399394,16.4194705543713,29.7140229446006,4.75768454521644,10.2906385528757,2.34879060644091,13.4548837921201,11.8954082699132,14.480220002799,17.9742847049903,14.7655220273325,29.8963615820604,19.0037335410296,27.8451941322043,25.7991983187845,25.7969591607288,8.91945936829949,12.7979634937808,16.7648650251906,8.13435796593753,18.1947276991604,12.0080425722224,20.9841479922027,11.6683493469906,-3.12997766519228,23.1167038826112,15.5263396022677,13.7929622697029,7.28237303632032,16.672629693757,19.123394116475,12.199721422866,12.6456881461246,10.3276314041886,5.67681760852134,11.7525113858834,21.4146407556012,6.28118767401076,16.2011640503843,10.6921326830778,14.8946332889407,28.2823944770191,16.284544341426,13.1701868928951,15.8160580038889,21.849376672439,27.1535009221226,8.35882280594944,23.9267575786688,14.8840025294108,25.345772897659,17.5721189604526,21.7948052690676,27.102769771326,12.5374934938175,15.4913850240703,7.68283988897122,5.86149117449915,10.7374528917636,8.46082733178334,13.1680443776884,0.977782285226965,12.4729342959593,6.86027417067978
64.824729978282,27.6898364722419,42.2113801641937,21.8167820415703,23.206895002776,17.308184744963,28.7410682651439,23.7191037010982,32.2954321280287,34.5883942542095,29.2965194059466,42.7092717978778,33.6589504295814,42.3284424308932,45.4705879199808,43.5088716562714,31.5637808370099,31.904587231556,30.2756515314446,28.1427332956297,35.5296370070783,31.241693947493,42.3483943523051,27.202973738063,14.1118201233128,31.6907409075913,27.1308297495971,31.5492295255292,20.9603928329317,33.4278706891672,41.1811996296278,25.6441666593678,24.8634512937746,24.6585976227472,23.6625657506213,32.9360267540297,39.4702692079905,25.3660335591131,26.0634668283855,26.1541503887398,23.4788529164435,39.1989524557765,28.1679871009266,21.8936720592307,29.5434703846018,35.4608142293216,42.1831439314433,17.2569101932328,41.829054888357,30.294448564737,41.026124167152,36.5016314040073,35.9130578486539,43.8597874818176,29.6342459109119,29.7106131176492,24.8097486880744,19.9943837804912,26.2606431318165,21.5302193742888,32.3531551845281,17.3010437383391,30.2714188296164,24.3867936691973
57.7560732556103,19.3294346612726,18.1003647656231,21.577100595953,16.4670845382469,7.86199913259288,21.4140096349231,13.6665607069852,27.2498096653856,25.1073643054034,19.0182850621282,36.4007685585446,24.0189844893269,32.4700148147895,40.0712510675798,30.0516439905758,24.9990550691751,29.8332383935115,18.1579346052268,22.5638895520564,32.1134723261517,26.1993950025167,33.6729347370984,15.0200608712648,11.2283185668433,16.2165497472825,8.66094374867203,21.95721063303,13.9400363323388,25.5575310439461,35.8663213528588,12.9244750654554,13.1038805958602,19.690642830645,20.9050735596158,24.7871535116805,29.5425234947497,20.747575231974,16.0644917865112,19.5052835731912,6.78941424086116,25.8962712660318,11.3810093950998,4.64916601488729,17.9151869222991,19.9081366698303,28.3684325786811,3.44161543686721,34.4087928470768,22.9292832576479,30.6238054890697,32.7612255558206,26.6958973037988,34.6607490951527,21.4532815298956,19.1397138699848,22.2794418674041,11.2975816957633,17.4814414484378,9.90777952595329,22.9346196034324,9.02241186141328,19.2520092523742,18.0432366964966
38.4538567666841,2.77549312651292,-1.48713763251565,11.7932168727831,-2.26187352774674,-7.00405180020976,4.34635013151313,-1.32587629594096,10.4270008758749,6.198298230892,0.421135441097748,21.0189721001676,8.42933502769386,11.7724719160694,21.5093398645355,-2.00155638289174,4.24800432367087,11.472963405204,-9.78435865709502,5.58272457125674,15.1060715166327,6.85638298464464,9.4090971321939,-8.60281298537129,-3.3761106495963,0.886337334183401,-10.2134101318066,-1.67807924352164,-3.80708152439999,2.81077220676051,15.3316108221729,-7.41448885316456,-4.3783821541536,5.07393877563041,6.91383781659749,5.49187898134802,7.29879840666368,3.64407306208055,-0.110861655838133,5.38230374598887,-12.764809150581,5.00586182121225,-8.05264238393501,-12.289041062412,-0.940709798475385,-1.52970064838463,6.51977393311276,-12.8937819962399,17.5908429132052,4.52441820197535,9.41430922178965,16.3107339891268,10.8460882640236,18.0423744364317,6.00894899113883,3.83872042415436,5.69040601912991,-2.8490717617683,4.7467672000311,-7.07309565897671,1.99390162626903,-7.82723919493861,-3.07125146829504,2.99512112175761
36.379775379978,-2.1535919307526,15.8131923726056,9.01378674632834,-9.53430988368109,-7.81925315322735,0.470775656758675,-1.52879836613464,7.64765722072507,4.33473341914068,-2.67859076463164,16.8929960922399,8.83287645740194,1.70357333015081,13.8839637043337,-16.2148338789947,-2.96172776862595,1.34041012367136,-20.6280619643202,-0.145069963281814,6.2739161515198,-3.02707716247083,3.42639071146269,-13.5109823948216,-8.11939469302516,3.28178164529113,-6.52830174605211,-8.88962131323703,-10.3343705127595,-4.42307219372379,5.54996364897875,-10.4304459392285,-3.01549631884092,4.97109496770703,5.2990051153116,4.00084212744845,-0.372712451092084,-0.132463362675949,-2.03909181675766,5.55742892491973,-10.2483796500997,1.88326937955646,-5.32817621101233,-8.31298150569081,-3.07962138749909,-4.49132280847831,4.40888546809449,-13.6224180117268,14.6606095397352,1.17513247147062,4.49507814126678,10.7261259181324,7.70611355639595,16.9713592637086,7.60761250882146,6.41509249124794,0.248367281850579,-4.73571533512078,9.25189327965497,-5.27973175458689,0.344167769487088,-9.75843752212766,-7.81615599774585,3.28355700299316
53.593404846495,7.0026011001789,41.3417216439707,15.1190231176295,0.132868653485445,1.24786258404614,11.4607380588145,9.26761201340648,20.1876582903422,19.6675808696218,10.2332512156905,28.3531980920488,20.5411168574999,6.67128844386198,22.766849661533,1.3382085151987,5.6279321417964,9.67296323231698,-3.30751890364926,8.4000201044461,12.7141637587821,4.79439910000323,18.7638380212407,3.70431116000683,1.69911389966157,16.8624917802931,9.30922405920458,5.70696428162764,-1.10704902303447,11.3475470047835,10.5159226221346,1.98230078101607,11.7750986237581,18.9497565828822,17.0795468343262,19.6173209289051,10.3356121406739,13.0511553740253,10.1555767687428,16.0695731122712,9.62917626587995,19.1764928386339,12.2678110310293,6.11755535819307,12.2077752199388,4.8783363962662,20.2505877095612,-2.04119904220322,23.9097960567614,14.0548912648096,15.759424811932,20.0498769338807,14.0545167013839,25.5574948112597,22.8760151389422,18.3180900647193,11.045845015559,3.71508279778188,24.2628551211742,10.0620568246106,18.027224304207,0.643086467649053,5.29417302097935,16.2375676020774
65.7122712024294,17.9719317697518,42.5527005374285,23.1125900546002,12.3377517264112,8.30289566276517,22.7922350099406,17.7175870824244,30.7821190046015,34.3602645926674,26.2200833215315,43.8486090867693,29.4977175022235,17.4451221111817,36.1250749355504,33.5253854206615,19.6567329163662,22.8264517835985,24.4599671190729,22.6882039196324,24.2979217139536,19.4019384753051,32.0639391187017,23.3023146143112,12.882112993473,27.7862019477728,22.0591730662756,20.752293850711,9.3480583549332,27.5410506944731,18.3816305281695,12.4959178041476,19.6016054952845,30.1201372290017,24.9450610999916,31.4960349252036,23.8495930696319,27.3685713389334,21.0824434396672,23.9469402403561,21.1389891250482,34.9568266209836,19.8532624575686,11.2438561222182,25.5260260539772,9.05859225135137,33.122597635704,6.71610622742423,32.3573282110496,23.4247979925107,26.5397039493436,28.8739264829907,22.8153140368139,32.013777325426,35.1805931296434,24.135370109772,21.6357421189422,13.6675271162143,32.1088328065457,21.461276913946,34.6572774077649,8.86513722666123,19.1537678682883,24.8195491992976
59.4341221940537,22.4024164723593,33.9503834317891,26.4681055979434,15.5429345057974,7.82101713242994,24.2603503876842,19.6931505632524,31.8635822067201,37.9841458289114,34.3762478930617,51.090819452794,31.6719024013217,23.6164003983352,40.9178571064589,53.1507396363069,29.353396826672,27.0842876877728,41.0835973855349,33.3088577290221,31.0585179395616,24.6190198319682,30.1764876351477,30.010722379254,14.6341289211456,27.8164775739802,26.4289467499037,19.7286708980709,10.6307825948953,27.7614557297523,18.536147931971,15.0441538613002,15.3879580726909,32.584014450784,24.0169441536356,29.8066935326229,28.554580966257,31.9395965022001,21.5226649502083,26.0088703314399,11.0497488438898,34.1789331738989,10.3940649631249,3.73566114444325,22.857963114874,5.9774666549151,33.0256219898196,4.42192198654583,34.4514191270451,21.2719566948768,30.8783252074712,28.64904605179,30.6250567468247,35.9598507209256,37.5211483783593,24.818389235895,22.0374338439682,18.1967852501692,29.2716242836727,24.5244014216467,40.511237003537,11.3217267435223,23.9951563263201,23.1663501587178
51.9571339448393,25.6371579240341,37.5838348677751,28.8579994356169,19.2728211163797,7.59343243393772,25.1172753224558,25.0544235292569,35.7328993496767,37.6141364414034,35.3302509652226,54.1371436166715,35.8430638773022,26.9636078078319,41.6672331147016,59.1622990027342,32.4430912098689,31.8578422665254,49.6802904631412,38.8334157472885,38.8171399394928,24.38150765585,26.3372102627556,31.4386726987805,13.6747189399972,26.2150213467147,27.6310498987967,15.8195451011596,12.3706995801257,26.7899551628942,17.1172330261577,20.4620671608321,15.312430413833,36.0758581001009,29.6605862830726,28.8626263541052,30.8158868404173,33.5974253610339,22.4671267366738,29.206903235276,1.60332693992262,32.9534027725204,5.29288225911363,-1.00393100814084,19.9515817605905,9.19481066491844,33.4792156254872,2.8367178426107,37.4826756104276,23.0553748727741,35.4858154744437,31.9916430402005,36.528796056654,41.3040361483403,38.5381124830125,30.4608218214986,23.0424717709551,21.5227435572916,29.6937648555769,28.8651745199025,44.802197789972,18.1350023791639,26.2894300206799,23.4593442824407
61.2609291466619,33.9465558598125,52.6278103433451,38.0697940190456,35.0800887172645,19.0948041688823,38.2984657132674,39.3095295851761,51.5497065707768,44.5578449825429,38.7810774442786,65.2110120250931,49.9402968184944,35.8768418518063,51.5226202072654,77.5938506611706,37.8578406664517,47.9027973932759,72.5920930520486,46.4556207816912,54.5274883641442,33.4725462728858,37.7522625325041,40.5479298002667,20.6321822215035,37.0795371744875,37.3773112082526,25.9312444890267,25.7321584489307,40.0932522029272,25.9722443811322,33.4271314754241,30.0061195670283,46.5635752929232,46.0957625490119,40.8715864584069,40.932657869182,42.0895556519029,36.2138108284552,39.5862989775784,17.9575296574211,49.3165960882646,19.7540402955057,9.51046793700426,36.4128111150412,28.0143648775103,47.3852895406894,17.1497941217392,48.5168687256435,39.2245333999171,45.2717607719977,47.747890237434,43.1295581983041,49.1167060434149,46.0305487870048,42.5881933464774,34.0427847617556,34.3944306837822,41.922264502596,39.8762167708249,54.8276224247933,35.0879416343425,36.9823885822389,35.7940367795391
80.2089198447405,47.5406168846658,73.5912702780491,51.4610781713641,55.8967885772454,40.4302257337266,58.1253246471131,55.805496366278,70.114968370081,62.6393860502825,52.7752960763243,85.1566259427215,69.5227399832005,52.3393665308517,70.4010869911771,114.201464298067,53.3076059242707,67.544777251527,110.612702631343,62.6648656710985,72.808279509147,49.9317763396005,61.1279015074251,58.3217629353347,35.2526175296068,56.107705784941,60.5335767649332,43.9325230939749,45.5502686349856,59.5017750638739,42.3400646935115,47.4983747317792,51.2373074083273,59.8404643870011,59.4890041395075,58.029644276665,57.7601325193477,56.6238764636911,56.0482463848506,54.9618938036562,48.5318352353854,73.3569017204553,41.7284701093634,28.9819851549359,61.5353302431585,54.5090743234251,65.3438928381573,43.6336944127768,63.399081433256,58.2079902162457,60.7388252882485,65.7875410511469,54.9702738101045,59.4846262205418,58.9467816335501,56.3404707434792,49.2737970399168,56.0164899745338,58.6119963730611,55.320463024137,65.6037830582814,56.9127378964563,55.1679749600904,55.006049399673
81.3900475197231,49.9217955950354,74.6805328604582,49.6911430265775,58.2587263722129,46.4397839275105,58.7343055667684,58.1745620285753,68.6259231387602,71.8297202445491,62.3738312171803,92.8294356650173,71.9481332622038,58.0861018609091,74.6126445345047,130.261673206785,59.3069336747086,68.732855200514,122.060087810375,68.9824078993388,75.2443388034208,49.6583662128518,67.923399643008,66.3099555166125,39.6572546529852,58.5740314925127,72.9175336351568,46.4522440143094,47.6562575269391,61.6350177921356,44.7168765599438,48.2354843514786,56.7182784491665,60.2568609144162,54.1577035393201,57.9141084731162,59.8579807570616,56.9840350585256,56.806351829519,55.9352388689119,58.5810586255,77.8138787924766,45.9243619262392,34.5104879518542,65.8499291011619,61.1289194950306,62.8086063951917,56.2011693805158,64.7170106319773,56.5512212959749,66.0433042313323,65.6786639439688,58.2835691479693,60.2622437479147,61.5916250423263,58.6012640181089,52.4863563020197,60.5533323758918,60.1655374368629,59.3702557453176,61.6131139748546,64.6176650480812,57.3713248318672,60.0716670627827
64.9286690966043,36.3385034008412,48.0566571958011,36.4894303744953,45.3344119422827,34.6531442036825,43.5433594806889,48.3408842260978,52.5096852888796,61.2867232447614,59.5738820602048,84.7636056623535,56.2208631875263,47.1413809300189,61.5058102591476,113.11124252581,47.9450236954091,54.7256688790944,98.4225876547479,56.546797189725,63.6793060731674,35.560184292849,53.4969767191625,59.5632415159515,34.0896846563386,46.5253903235896,62.5485992106932,34.9288016330254,32.2269811993024,48.8830648249553,33.796770552281,38.773661993723,47.9535137589038,49.1968369215513,41.3679919121288,42.3076683751887,46.1567207350845,41.8661198271061,42.8156343399551,40.5764359403936,47.1041631754239,64.8644829989202,34.7111661369075,26.1496879550714,51.4877801373648,45.2524220141714,45.2076955983971,48.2455396935018,55.8170997489881,43.2658430801397,57.7871894655687,54.2694385621883,47.1740622287433,52.5454821351477,52.9845655443405,49.2967842399077,48.0167541655978,44.6960677783045,50.0114421415097,49.4987869344318,50.1233812147815,56.3866595416193,43.8566586478483,51.5728546263438
55.1594575654841,25.9177488223982,31.7509808947824,34.7139585264844,41.8073752395453,32.427609061075,41.0325532180375,43.2137613619569,46.3161589508571,50.4622111479397,57.8484472940158,79.6755615392689,47.4720275535774,36.6485936497261,56.4903091286253,95.6796759108601,40.2389407321919,48.5999468313371,82.4022685506844,47.6540462586767,58.9520617177613,35.4729727303341,43.005784048301,55.8106642223231,36.0293734362148,43.5388281737029,52.7903968444488,30.6283957778353,25.5234803796971,43.8662196459448,29.3873272408938,35.9987224907587,43.8458542879466,43.9688100240785,40.8857641721391,34.1533501099565,41.859873708505,38.2399057640512,40.646371579176,31.9039645872523,39.7293917441041,58.8123407220359,29.7914788725127,24.3422039176807,41.2081750049568,36.5740041530987,40.0990076303748,40.8654509136988,53.2305300086379,43.6761166320127,54.7211242947272,52.7962890361619,38.978815956996,52.1399141106534,51.0544947325261,43.9359257603254,50.0484330688625,36.5247158583131,48.2298471228516,43.010438836214,51.7515835341344,50.4826363931652,41.7983218897767,48.3176149153197
48.8349624909123,23.0576504081681,37.4948939531072,36.4902881692045,43.5995999454137,36.8329386306832,43.635767996031,39.1607332423838,43.4101525229496,47.4156964938328,54.1255647506033,73.8060573264652,45.8503566843473,29.4485843747685,58.7591119984871,87.7903107116049,37.6252630005535,44.1678594683485,79.8965925698252,45.980401725695,57.609088892188,40.7371443774371,38.3383887465059,54.825746682289,36.0580986812794,42.1923727530534,50.4706295358351,30.5792027240137,25.9116380850173,42.2512215890097,27.1206058172547,34.5589946863408,37.5384118694616,39.2891280325191,40.9843597503318,31.2573255475907,42.0108588159144,44.7942273282041,40.0428314195513,30.9703648056652,38.6632166774358,57.3188925805681,30.2405280352286,26.2877012232005,32.8357943979387,40.5684910336612,44.4859615699031,40.1966169231318,46.3478188758291,44.6764037697693,53.4321564286321,49.817795099635,35.8660970973161,51.6778498494051,49.3352485688614,40.8223675532363,46.9635836020083,36.1400669216386,47.2856476325912,38.3274730410289,54.4764950764212,44.2437106651604,45.0479509735428,42.7278085106678
45.8433377596848,29.7488967447178,52.6603257054447,37.8153321974822,46.9361676897522,38.7401688780409,42.8527730667721,39.979385913798,44.5925923026645,53.8617555601472,52.0065012463908,68.4979106104459,47.3355446695932,31.3218969010169,61.7694027971606,87.2787710427701,41.9635131495361,40.2620087275993,75.8381588268862,48.236593357031,57.4438311676958,40.2499901387848,39.0178124086448,55.5194235854205,33.9317862564277,39.5929700423585,52.5280947476719,35.2017044234466,28.671997587193,40.2182813703695,31.4638695667973,35.8316348918344,33.3445452224527,36.9207185522394,40.9375490449445,30.1944789349548,39.3013649466476,49.6377011106334,34.882348664314,36.7207103890199,41.1555330210607,55.4677448449356,32.9290603004757,28.0560567670974,30.0802968380269,47.6803714360062,48.2709003870027,44.54779641916,38.6167435365291,42.9148742418158,51.6109994965538,43.4914980976079,39.7635796512373,51.7377853784136,45.3166633626328,41.8404221176471,40.8275009447593,37.4759357696074,46.4506243318932,37.2899723024189,51.6788215915786,39.5031421877831,46.2163787284696,37.4362930444046
54.9488306919159,44.1028525253316,67.6748345586763,47.0361569112271,55.5938922560287,44.8939571292181,49.2560261860376,53.304252838149,59.8716690779714,67.1437758318873,60.3729849683752,72.3528019436309,53.0395817878929,45.0607089888222,69.4338722813186,93.2720947362489,57.0188305258891,49.476409753772,74.0792268671548,55.9942175908439,63.9574693816404,43.6886508389441,48.5287600679529,61.2139069836146,42.33988052177,45.5225831338457,58.1766918302748,47.4253685008533,36.9897820101421,44.2622586136719,51.1994340030323,45.0608000231481,43.7867177575824,45.7532539418409,51.0981765635653,35.4327674131442,43.9501101289171,54.3290180584183,38.0972989020902,51.7026644126102,46.2443691043075,57.6123010688703,37.4270013439361,32.0125783393029,41.9956812028088,51.9296397260898,50.9631164406998,49.4161699843219,45.2896738470174,53.9780949342202,57.6463744076321,48.8256915407679,51.7810669573672,59.6662456386608,49.8814702760943,51.545564386349,45.9039378691953,45.736153453746,55.5688587855518,45.8178713332102,54.3365608724798,46.3581504998331,52.6808618395735,45.771430062787
52.2162245576129,42.3412693076185,59.7058386245281,45.1865018163098,50.2832412583611,42.6265975795018,48.6640080428779,54.8019485894352,63.5339525628091,64.1901680853325,57.0530884596039,64.0878911701876,45.2315534381026,44.6899438487961,67.2778999644723,83.7130035967112,56.3907965777568,53.1804571164119,65.6868354894678,51.8240963713848,59.3198176595904,40.3358248373097,46.8467876924329,55.4383981602915,43.2202860282287,42.0569087639914,51.0964050314636,43.4158494405889,33.2703760476961,38.4014116471845,59.3859729481558,40.310196360162,45.1448482047794,42.4890551771416,49.333024704136,33.4705105500629,43.3811067534181,47.7078659573754,34.2341349610074,53.0904498991608,39.1250240800262,52.7699164601309,31.562815336602,26.2607741454337,46.9742590153196,40.7199357955624,42.3523054251394,39.2432822682722,44.1650041471722,57.466142101733,56.1432939825223,48.5283050471927,49.3729441766013,54.5118361986043,46.5168657820734,50.6260153722305,46.0368999562356,47.2229896857445,53.5866134854369,42.9772901976934,51.3250421697213,47.4999122135431,46.6598982007542,46.0234985645574
23.1937881751358,21.5707759978708,31.0183838204195,23.5668874643376,26.2966760498975,23.9192507984723,29.1929930317033,32.8966463045405,42.1845959653649,41.0656709441506,32.7899526989959,34.337101650362,22.9510798288532,21.3501453725264,47.3177143899165,53.1352231504123,33.0533928290991,35.044913157642,41.5561723155365,31.8391209050438,37.9989834622444,21.825841442619,28.1190016318817,35.0694783492584,26.7358946985814,21.8538270521334,29.3830291574786,19.968482392397,15.6911478352536,14.8279542701482,41.2206175153313,18.3872182511462,27.2257290064293,15.3348912458568,26.45540650566,19.1277150351383,26.8960052013936,26.4948009810971,13.7104731877193,32.977821297716,20.8214714972495,37.1697236083891,18.885307194292,11.0392309851915,32.2107332199485,19.3170014443882,21.8416631886551,17.4088742229109,19.6112651349491,37.2523073026345,37.3732597685271,27.7506228703883,28.5851849813192,28.6268069275419,23.9622982206103,32.2718495699679,30.1493335386183,34.7101128250248,28.3895970111469,22.5773354045768,33.0369461070035,31.28694327948,22.7320760517321,25.5853949027889
-9.86616667413397,1.75526312387429,9.03405860908133,2.12847839036052,3.16632052950995,2.73608329363586,6.92318158360688,8.43149167547005,14.7017211428989,17.1726960507175,8.26438426718294,3.429447132667,2.70539612216667,-5.24170368506741,22.123501834684,19.1768567158731,10.9862960629964,9.89445029207958,8.76403670349804,11.3749207001572,18.1302684872205,0.143405308829574,8.39646540727213,16.6369519103993,9.1743315143006,4.04482168499029,8.59347551238369,-0.326830819335579,3.52216590943885,-7.958433602373,15.5531979531749,1.8275118801797,9.84444458781644,-12.598580877838,4.91432987399183,2.17205364725583,5.19389968900213,5.16105189212797,-5.73170687634056,12.659549139249,8.1451867321695,21.5169184811477,12.6593745035236,0.525282494687158,14.3405590689353,6.1328842287581,1.34008072635694,4.25682401810674,-8.86328782862478,11.7768640439833,13.9197877712691,0.964982085161386,7.01264458997968,1.26632412750559,-2.57982724582052,10.9497213068918,9.35653050357714,17.904268341911,0.590423239077365,4.05793985776793,8.53565790485023,10.1060896465424,2.76767543458819,2.78703874446902
-30.5121262389516,-9.660888364074,0.714729195635686,-6.94748518322365,-8.88816314235031,-10.6575175155463,-3.06677702604109,-3.96970255803381,-8.32689824122973,1.99929403930366,-3.31151872170664,-17.9973128153653,-12.8390751324007,-20.7468718112349,3.1684836451886,-10.3866219742289,-1.46806369002812,-4.30800649034854,-25.2555719077733,-1.66414173982323,7.36432481853335,-14.4289211015381,-4.43177552464712,5.44705955112167,-1.5500808721279,-3.55088022105163,-4.35522686861689,-11.2041310096957,-0.996060873467649,-13.9982572685597,0.0474844511856038,-3.51535429629893,-5.44088328381109,-24.839100884121,-2.46389518925372,-9.37185960823878,-11.1975762355706,-6.29163295842258,-12.6682997446978,5.62063447039052,3.38293048049066,11.4694510146686,11.3828897331042,-1.39340442843505,6.14843556191393,2.73130901744601,-11.6113587795173,5.80154357880626,-22.9421199705554,-1.80358058639167,-1.82709107103664,-15.6663456759687,-9.10342361128692,-12.7036050394537,-20.150017550932,-4.66223488459045,-7.98964357498835,4.5932456885428,-11.4276303027487,-4.19597289393705,-9.12800037514232,-2.8725609979098,-3.69381443582505,-9.47791101819898
-46.3848057774181,-18.3132234981743,-1.96214748581076,-11.7584135791123,-13.7881284402548,-17.9149505580483,-6.77923022511218,-8.7959990685676,-26.8398970548988,-6.78659460227828,-6.67853939331248,-35.5081730304294,-26.3478855287835,-27.5881049208691,-7.38230927806628,-36.3889978569151,-11.9164600474193,-9.07779157757958,-56.8326416138487,-6.3921379006617,-0.364989174375514,-20.5255447875947,-11.0870284342825,-5.91432948920221,-8.48835390383226,-8.0899005329388,-12.0097586795957,-17.8531433271341,-8.87082710026825,-9.05605178999467,-2.58110381985473,-7.31792395890108,-27.8710503147614,-28.4616669738236,-1.04224250729017,-13.5827895010207,-18.7531054946569,-9.83605742956629,-13.1908176830357,6.54465052516371,-7.65010701642195,1.57183279348281,3.33183944385149,-4.86912207874608,1.08077500800786,-5.58711702449562,-21.1677285439399,5.22947556072992,-26.3724891624921,-5.81833945691487,-8.28585222286789,-20.5254985840046,-20.3138668097266,-14.7158487116621,-27.4813689083443,-14.0462273197489,-19.8666526800979,-2.83787254091066,-10.6670436709946,-6.89085495748869,-13.9975725727131,-5.42420528816126,-4.6277605979258,-12.3438794916669
-63.0935909340731,-31.210978443916,-7.8453762736495,-24.5847832372598,-19.1765995438858,-24.3701605900575,-18.9645471866417,-16.0021491601418,-38.350116402624,-16.7279454279001,-16.1647786558291,-52.7970211100445,-37.5711460327944,-38.6035566570724,-15.4509642851717,-59.3787851855759,-21.9562360830309,-16.4339593008362,-82.6387500398536,-10.6320325765697,-12.5120812914757,-24.810064613996,-17.6360314990262,-21.8820012660087,-14.1241867804967,-14.7597998620619,-21.1312979300909,-24.3910729388447,-22.3527667228301,-12.1439621702433,-4.02574003870719,-15.6349582619192,-49.3424776903268,-35.3119673986026,-1.09146461567541,-17.3138249717908,-23.5758896136348,-16.7130294645658,-19.3137422782526,4.13769619327787,-29.2515207572051,-15.1381553383272,-15.6278104031754,-18.3213568836309,-11.166289127986,-25.7679521490087,-35.557168308902,-11.2762615160593,-33.0249280946188,-13.1222435693585,-15.8758062315931,-25.5149256946613,-28.2976990628708,-18.3330672544786,-32.3569855743844,-22.3225662251773,-27.9998284385064,-10.7542639935328,-13.1433419656444,-11.2710832140151,-16.6295400423701,-7.9378506008743,-12.3440709086383,-14.3995699499445
-65.5812060304942,-39.9790632608448,-14.2205475191633,-35.2300011693145,-21.6670342578399,-24.6817092534289,-32.6366379602012,-20.9353909876223,-37.2605944346272,-28.5219495106096,-32.5266441584683,-62.8057704290847,-41.4583130962003,-50.6436981753235,-21.0824392388081,-73.3590389974513,-21.5742272487058,-21.3988639935989,-92.9029400191599,-16.3147521842032,-24.3496494285433,-26.9266025825787,-24.0476797130225,-31.3901390670185,-15.1832283506444,-19.1266837607607,-27.8990718062919,-28.4451596611382,-27.6626590991556,-22.4858287839667,-10.0572168147586,-21.6730479780352,-54.6417244605569,-38.9119016923642,-3.10577359269499,-19.4364712339198,-27.3685826864247,-24.9585912418777,-25.3720305351294,1.43413917426694,-39.2836706101449,-27.0357560916742,-27.9158392903303,-27.3399068803903,-21.278025112445,-38.247879507756,-44.2142252676656,-24.7298331214324,-38.8397886912129,-20.6823824135494,-25.2498407549755,-33.0983600696603,-31.0209892867186,-22.3552908753866,-35.9722885108797,-28.7398469190704,-29.4489750202397,-19.4513853519419,-20.2816330087849,-18.2386335288429,-23.7639151356568,-13.8023372803219,-24.1025069089807,-18.0266983036417
-53.336720791919,-35.2510494443911,-14.1355576365707,-32.3323140484262,-20.9408778248488,-18.4742702262699,-35.5249468521135,-18.8461662759094,-32.6032121089682,-37.1911095186069,-44.6072540603579,-64.3994910832452,-40.1861456150816,-53.1087498784725,-22.6040201949373,-75.6702017290744,-12.9314888753196,-20.4274497863663,-87.6358291485385,-17.9522108523166,-29.49001245484,-23.3484507129011,-26.9648545426893,-30.329452299962,-15.8079066757218,-22.6444005718559,-26.8276734603903,-29.2255557516915,-22.1011873307242,-28.2686767125761,-15.2395882091451,-22.9857935067701,-49.374309562528,-34.8014965157069,-6.35065981709618,-18.7835294787593,-27.2223067163625,-25.7802621150187,-22.06387287676,3.04458648943767,-29.8425457354712,-24.7785885131063,-24.441204553608,-22.8155546009395,-20.2733006726975,-32.063264502172,-39.9733472724596,-20.3768738572853,-37.0708104116036,-20.2015481131423,-27.5382850427756,-37.4807029960231,-30.7045135195706,-20.105532044988,-34.5709372986551,-31.2554086711133,-25.6405004456848,-23.4130957654576,-24.7123869293263,-26.6275800317336,-31.5410599001889,-19.6400710040615,-29.8897172347731,-22.7856118330885
-46.1545565920667,-25.721550217588,-14.4667410075006,-26.6730177702252,-24.7467523957311,-16.5385443499701,-31.9133982756674,-15.8136335342097,-37.6639857489964,-39.3546764471659,-45.8131854199159,-60.9611114219399,-42.2098667300807,-49.508722792565,-23.2871462749049,-70.2680132212145,-9.44002957245969,-21.9311731376735,-78.593020490853,-17.4327534742637,-29.6177300520409,-16.2147599456973,-27.8670431334374,-28.2373228891644,-21.4938662227738,-27.9229981738438,-23.5677644200124,-30.165004180642,-18.4955284622135,-28.3499313605912,-14.8993008349051,-24.5530399916226,-45.0701433926741,-32.8603498941173,-11.1972145687017,-19.9142421561555,-25.0654574072382,-23.9861247448188,-16.4560927406879,3.72282169630849,-19.7934687258002,-17.7551671130342,-15.6462503424499,-16.9832646917967,-16.2530596023872,-21.4141140961407,-33.7986108730385,-11.8226663048221,-34.5991215010128,-17.1058346215709,-22.4362153456843,-38.0713159267261,-30.5895313225707,-18.771106821808,-28.9677209143598,-31.4799737634916,-25.0661502168881,-21.4817037497883,-25.2001914506952,-30.5241575472481,-36.2158056298763,-23.2201005879024,-30.6622459606896,-28.6167733599555
-41.5474096814373,-19.1055452474907,-15.1349818886511,-20.538993479596,-24.6726975672231,-14.032267699784,-22.7468683538839,-8.62517343792329,-39.91782879422,-30.7866265456798,-32.9258818044848,-46.6484409490549,-39.1691567420083,-41.1147939283779,-18.8706792374639,-57.3011530719583,-6.54941214142526,-17.7659905087948,-64.5757630628704,-13.3656000750359,-21.3951206244422,-3.19014532112882,-22.187673422129,-23.111748453558,-18.5588848840767,-22.6141176042607,-16.8235835491434,-25.5169800809296,-14.1908738928515,-18.6088855516668,-4.879626893619,-19.1396659265692,-34.7059669228773,-27.5545733751025,-5.39068126876957,-14.4613225396076,-17.6241509181354,-20.5411746452585,-10.1094082958707,7.41225522430145,-13.6945646941082,-10.2242091499141,-2.90794383978416,-11.1843592424683,-12.3463244149427,-11.4849152148285,-26.1465912635127,-3.79786476050111,-28.2334661819304,-10.3652855814111,-12.5466280540234,-29.6930043122721,-20.631055281908,-15.5658787625781,-17.2509339436105,-23.411303512673,-23.4069274380701,-10.0849395842999,-16.7011930664963,-17.9655561884927,-30.2458724063288,-15.9736956419461,-26.1414660013126,-24.5587254772398
-34.6012593266975,-19.8136855672624,-13.7306837630908,-13.2735993070081,-18.3030152886599,-9.46212723960397,-14.3208790515169,-3.21224505860729,-34.3275387281658,-21.544093620988,-20.9077459373997,-33.5622741315161,-29.5052647855249,-33.1054898654247,-12.9785298240139,-51.1590827279894,-3.99482361121983,-7.44008479502042,-51.6547735023123,-10.3277025433453,-12.1714561123869,6.15178421809438,-15.2126070282124,-20.1460258527243,-6.88696483450563,-12.1700117667255,-9.88979588526058,-18.9822042323992,-10.6694843983359,-6.64636669452878,2.94209354887406,-9.84037949506276,-24.0679470791463,-14.3583137823189,7.7234851492061,-8.01027846682601,-11.2037387483394,-15.9622840239635,-6.0339662884081,10.7921432824184,-11.7527681159406,-7.51803891695852,6.08175730270019,-6.49754391546975,-10.9419385425865,-6.48710422381952,-20.5020078401,1.73996571712503,-19.2132234007133,-4.29173445161748,-7.87431946487765,-19.5924338079283,-7.98879579594277,-9.59441637029577,-9.78053445909652,-14.6800201365389,-19.7354338751856,0.0449991497378984,-7.64784196592848,-2.79333095490968,-19.307284390224,-7.25156957837122,-21.4651830769423,-13.6596651686606
-28.7600158933237,-19.9160436578569,-13.4142653716362,-8.28435149830295,-13.8760515965786,-8.10397037421708,-12.1659671012753,-7.83887067542867,-30.2261733776951,-18.3741220678311,-21.0086116705037,-34.1422196330642,-22.9384105721936,-27.2287075905447,-11.3056885528106,-59.4628429536978,-6.12548467362449,-2.03375771442767,-49.1437549442438,-11.9623008525493,-9.25253337493252,6.10787786151626,-14.5688629865626,-24.1994114703868,0.0440094106889923,-11.3141654281704,-8.13759812041167,-16.1668422670321,-14.007949079052,-2.84544468793398,0.114691241973558,-7.17272207812512,-21.487683321796,0.0643988586045383,13.3750712553447,-12.4925059318351,-11.9501333808351,-13.1621354468037,-6.62763002266082,7.51247111984873,-14.9246327252218,-11.2630848473113,3.53102955136055,-8.39168258553592,-11.1581063608633,-8.91964483466538,-21.7597727990871,0.622700549579603,-13.6328381466534,-6.35725302676896,-8.74872560988953,-17.5246436087314,-5.17940615889471,-7.72808872516048,-11.3935934738477,-14.0013676566475,-14.2998532453478,-0.755969152529375,-6.79445200141429,0.0416881386267419,-12.6664814330475,-10.9085879480224,-20.2329957007817,-7.5666387028529
-17.1756796884496,-7.37528077170078,-7.8009492299204,-2.61105592660533,-12.0514523724702,-3.38656024143647,-8.06369859765405,-11.0714700109162,-22.8721209283577,-10.9069653795252,-20.7533739691839,-33.5583752791138,-17.9077444816852,-14.7900419389747,-7.96523372358811,-61.4818232171052,-2.47139733239362,0.565763930983443,-46.4972244633003,-9.80655432105712,-4.47239991478659,10.9973383997189,-14.0568305653289,-21.5389040010361,3.10119335600579,-15.177518110157,-2.43600482605437,-12.215688181626,-13.9136163291733,1.13964791698077,-1.46349382915987,-8.29954182866931,-15.0271950997648,15.4141917950707,11.8054257080336,-17.4996119946493,-11.8430331333671,-13.0543215893534,-3.38926697858233,6.50000183893722,-12.8328352577648,-14.755576892578,0.514720077952693,-14.1189986505495,-9.20005817340251,-9.171759242224,-19.3141776320209,0.546009558859999,-6.39078303789434,-7.76366071498293,-2.06070745350426,-13.9407853793675,-2.58337402268056,-7.00420529722976,-7.91545192968354,-9.92715496889086,-1.64137813697309,-0.0832776695060039,-4.08243535986805,2.70195696626432,-6.0363604547985,-15.4022587108421,-15.4647111121823,-4.1622677198668
-13.5887015951662,-6.77172811185381,-4.14482429597942,-10.4268686001198,-24.7735050102938,-5.23088589891883,-12.8833724874424,-19.6208049648781,-20.7211306656327,-12.8298460076363,-25.5905696708024,-34.6030686920268,-23.5947758842088,-13.3165576285065,-13.3134634055895,-58.8666009941748,-3.52774227322741,-9.81818062766817,-47.5189107511247,-16.2746785700971,-11.7738922605075,9.48714647654845,-23.7323221982078,-22.2393478143417,-7.70468871228189,-29.7067499073527,-1.28431915993156,-22.6518949200693,-19.9304842302077,-3.72384637923187,-13.2053683585913,-23.4027554842976,-18.736773507199,18.8137378018268,-7.558634072838,-27.1939675199369,-22.8872034690997,-32.763436175012,-9.0600924764192,-3.25583955640121,-11.5281079237734,-31.6568280127533,-5.15001461005006,-29.6146578314032,-22.0564635976606,-12.8116180802993,-18.328907985762,-2.07378953574092,-11.544258918448,-15.2216713849252,-3.6957841419238,-16.5307504513914,-8.83551181134132,-17.7117593900314,-12.3141826183661,-12.5568654464201,-2.48348284218838,-5.44641304468184,-9.0204578571965,-1.85207316986232,-10.4899243599579,-20.284655458191,-19.0467608590485,-13.4550236380052
-28.1419174013886,-27.3054571023117,-7.62234612695399,-29.9782461778144,-43.1572205808646,-16.1538541578123,-29.3380767617895,-36.5829733593258,-27.8848150272256,-31.4421719961429,-37.532239102634,-40.9132940295892,-35.5997369418439,-27.671084113144,-25.5088009213032,-60.5218307986037,-16.2292547280514,-30.2200532972588,-51.5642301513323,-31.0575385954358,-33.8356400459766,-5.60604742596471,-40.302430337669,-33.6966191474346,-28.0470900328446,-48.8461810352645,-8.46048856521484,-42.8605505117538,-37.6006516924749,-18.0698594134093,-38.5446839929228,-46.4043374372935,-43.7202847254734,10.8034512394844,-38.7706637515871,-41.2990050229962,-44.8209241802873,-68.5527841070891,-24.4435602935605,-26.3262714439176,-16.0915084486245,-60.9604180488319,-15.8099252712593,-46.9884519837044,-48.3538663896991,-18.274914302593,-22.9163530110811,-7.02730438536758,-31.1251442790121,-31.6457447837583,-21.6636665941613,-30.6314571935701,-25.7217498249294,-38.2692876976833,-31.0671103343059,-28.4829635925844,-20.9661539134616,-23.9988114060438,-23.7834710490742,-17.5194346154502,-27.7835733005987,-26.1590225760183,-31.4311142397676,-30.9795182980402
-32.7907869103743,-31.4679549399427,0.998250290188174,-27.2494229311061,-31.93654052647,-11.0875779005807,-28.7619358383302,-34.2549423775282,-22.3324764918103,-33.5589936233162,-32.9130932940574,-30.1289869125776,-24.2216119728049,-23.6751517988005,-17.0099559250767,-48.4150500730423,-11.4979998681496,-28.1441109604827,-34.7401652939334,-23.1908476161639,-35.6816929190447,-4.64820282195262,-33.0443999204947,-29.9089289129814,-22.3438443076053,-42.4868328000857,2.51930300651601,-32.3001175596094,-36.8209320039253,-9.0886097810281,-41.1692303396995,-40.5927608514878,-56.4190359257275,19.9767947044319,-43.3980701004133,-34.6011885748425,-45.5619453025456,-84.0696446741171,-16.7001628851657,-29.8285065085425,-14.4516383947593,-74.7764505962216,-20.1334651937539,-47.3736144725306,-60.6406136928341,-10.0913427134693,-19.1052029982283,-1.06587647843865,-30.1691274154706,-32.2047893808019,-25.2883931129116,-32.1295169314568,-20.6539068765494,-36.4618967982601,-31.2242967032519,-28.5911698323736,-20.618555744084,-27.0067120071794,-19.7998136017208,-16.8711784951689,-29.6152270626273,-14.5381442852148,-25.0696437285346,-26.6055924375035
-22.976342049703,-22.2778885719058,10.0551333555439,-13.2818442739594,-8.99484720725994,-0.512103078594607,-16.8113610654421,-20.8212998073886,-13.4842391891162,-20.7626326634469,-23.2135850679407,-15.7001712269722,-6.9914109985302,-8.64349151783627,-3.72036876236883,-32.414840718669,5.18837121966077,-14.8844710273427,-15.9814474956073,-10.5154362545448,-24.7166315128141,5.4916274609497,-19.74739356966,-19.917046958436,0.156065689653406,-26.9948365408741,21.3282808982476,-5.33404997087441,-22.5120047030228,12.5886369710963,-24.2037289069872,-17.481672886384,-53.8770239977232,37.924129026853,-28.4140880393816,-20.9782406157067,-34.713458528387,-84.1569706565382,2.93459986725583,-14.8761883996079,-13.9610815452077,-82.8070139123428,-25.3977069820608,-48.7158865251154,-69.0704517862799,-6.46283963614084,-18.4411085211354,1.30363466492592,-14.1642345933349,-23.6999921236892,-16.5442328902744,-26.0093357360212,-4.20548724546579,-20.7264719081019,-17.4908433940708,-16.5970297039511,-7.22064765055329,-14.8321197806707,-9.03567160164724,-7.35334797828688,-20.1627191226634,-1.45210278387086,-12.5847123288977,-13.6761536801683
-25.1177592969288,-34.2718547143808,-8.22206293681186,-26.7607000002055,-17.8958627512797,-13.5002763157924,-26.1467378799126,-30.2660513715847,-28.5286162752764,-32.269644193571,-36.6837117840446,-29.448853941035,-22.4282427299492,-20.4970026200131,-21.0330863810216,-42.1789564179091,-5.90896158599217,-28.5575583208959,-34.0807065131202,-30.5278043491115,-38.9757973342582,-8.30262065323852,-37.7213025217454,-35.4065337675687,-3.92735518380841,-37.6423274107057,13.2071882668381,-9.6727629062176,-30.0992222474228,6.62817933946094,-24.3440897043341,-19.6937559884733,-69.3033666196925,34.9132378951654,-31.7391700502261,-29.4272441093491,-45.8523387530968,-101.096124029182,-4.55147940189175,-16.8420297718288,-20.2089427277012,-106.040343588861,-32.9608570616052,-65.8162447687255,-90.5155369085654,-23.3284864464648,-34.2692409317955,-14.50287873013,-22.0087428026212,-33.5377213129515,-25.1117746256432,-37.7274765286752,-18.6609817964026,-29.2381913387665,-25.6891141074763,-22.8210342751551,-18.1150518759626,-22.2338887937007,-25.1502452159808,-19.9640155653728,-26.8199054502799,-16.5684981905846,-26.432151297332,-24.9963168161412
-34.5166027082383,-47.6913383976787,-25.9190684298575,-47.852652992448,-38.1697189096061,-30.2182471862897,-43.4978103073895,-45.4842854142425,-48.1855002751943,-55.9987043919974,-51.9637496386176,-47.9877266164583,-45.0872122337597,-43.2121095333431,-44.4821062079792,-60.429747597283,-31.431915060482,-50.3066831048124,-63.0538318031447,-51.305929083694,-59.4269214733987,-25.650051649943,-56.6567730821987,-55.2422635372048,-23.6996551980146,-50.3502219601448,-0.62168459505239,-24.6035702459342,-44.0693687434582,-7.18321046028368,-26.8927340765097,-34.4494741637819,-93.4615524340692,26.7530419160633,-36.5338858143928,-34.6867796089161,-64.4388217186849,-121.032941980929,-19.0147935337831,-25.1505677166835,-16.9720287300887,-120.810003182517,-22.5748965312575,-71.9124618593872,-97.297069638358,-29.001609885173,-40.3433445760654,-23.4858014004135,-39.5877090668304,-44.495619425395,-37.7202689120142,-49.9465847281518,-45.7844102398569,-47.2634840046022,-41.3117896033853,-31.7306101366611,-36.9700854603642,-41.3228128321685,-43.886227081322,-36.7594291615672,-33.7953432857012,-34.883463562189,-43.9553366717264,-41.261043537082
-30.5871825057783,-31.9866610577964,-11.4579541811369,-38.3884588694608,-30.2231237017046,-23.7126533280079,-37.3006489953451,-35.2170813828134,-41.6808838341107,-50.9012638440245,-41.3630672845276,-36.8414219978492,-37.1912457690983,-40.2508222228933,-36.5042779693202,-55.0410866797312,-28.9658790372573,-42.8062689120946,-58.279449853948,-34.222722470926,-49.4461152468108,-14.0806608564682,-36.8759249779767,-46.6219563894969,-19.333864615225,-33.3522053290565,14.1531929662235,-6.24195513301619,-30.5857930871915,9.02758227043218,-2.24506344345718,-29.8797580288778,-97.923597295534,36.3239757700289,-9.31595122725078,-10.556132921861,-63.4850850527567,-115.248456139522,-3.96471989276433,-9.30330903341265,-11.5491576805665,-110.234545150933,-0.79419080370362,-58.8350340475228,-78.8215851114558,-9.34189475750093,-23.9383864092764,-11.6458412452767,-30.1245152018262,-34.2805800378935,-29.4610833419041,-37.0819904722524,-42.8054658085039,-40.4731625972883,-33.7748310293922,-17.5698440862688,-29.0124477147019,-39.6771978704748,-31.819759101007,-27.0764792469896,-19.164145791463,-23.6721558421351,-33.9910585404179,-34.1156960523701
-22.8084140561589,-13.762487993189,-1.4868192106181,-16.5085992156063,-12.709929287167,-12.149238745975,-21.79910934717,-20.8861117092284,-24.0618057529062,-30.0467077413075,-25.9046591478843,-15.3481308588656,-20.3407018562468,-24.3321657608333,-17.7653304675389,-39.5113748544345,-8.86821855951711,-24.5078909288775,-38.4724984944177,-11.1993789239881,-28.6049625670928,3.20317789550468,-7.66274928481923,-29.3153366620785,0.731264456010728,-11.5833605322479,33.6957003405086,24.8703700665046,-6.92537967753499,32.8853096889387,26.0776553567824,-20.8356806424507,-89.7208073069632,40.8452228212319,24.8452579318295,14.6948444052188,-51.9265109864554,-95.4510307627175,16.597740716359,11.6173762679222,-23.8724164023034,-96.3511633394859,2.93948167984162,-54.2605181772507,-69.1660379383449,-2.12694975113583,-15.3501682240122,-3.11527954792043,-9.86319862050301,-26.6527802924106,-17.789534344714,-19.6541726560028,-24.3435227795757,-26.084616295004,-19.6059026291819,-2.38592390374133,-13.0572430186133,-25.0514866965114,-14.21597909966,-10.2457872511542,-7.15753389762257,-4.57858862695236,-19.2122117196292,-20.9363809935304
-27.2429291708571,-19.273746624715,-27.1090600249083,-14.2231109630673,-15.1975216759575,-13.2267045780305,-20.4130483252704,-26.8598490067096,-21.9673823857446,-27.5769640159668,-27.3653869288703,-11.1163281716898,-20.0455440134659,-21.7919005914218,-16.4683242273583,-37.5377529624611,-5.31451251181892,-25.537067794422,-37.0871898293736,-14.8378985804774,-25.8968891405713,-1.33254897304026,-5.20818147249137,-29.7857957210598,5.18549616771777,-9.67514828551994,29.1854542412437,33.5604664561458,-1.21955754446941,30.8875881673868,31.9767790496882,-26.3691175546056,-82.6306140040178,21.5609434862519,30.0189212703955,16.5858347395562,-45.4100655831412,-79.4680690375855,9.47188533441792,10.4881916775529,-38.0424703963471,-86.3561050184294,-9.26606938084785,-61.5382130976906,-73.6228644980283,-18.4305657218607,-24.7833384665687,-7.75265940415252,-11.6166557946104,-36.7388148696556,-19.1541959998058,-19.4895546252701,-22.5875199436368,-29.9305369335213,-19.3880086687188,-10.0754512503428,-19.1066644372703,-18.1851517340501,-17.7856149886001,-12.324355371992,-15.0078576722231,-3.22223794569313,-21.6083229449951,-21.1640644959175
-32.8344319279268,-27.5374271275475,-45.2842179405929,-21.0808218596825,-20.759653047744,-12.3795344832324,-18.9154272427222,-30.4219261584648,-24.7211723089332,-33.3447919733178,-29.248413297364,-12.8557636427421,-17.9871965065356,-22.3961002453985,-16.4084815096157,-37.0706690681777,-11.3045466750342,-29.8803751928128,-37.2832608210483,-19.8329787922683,-27.4015686142598,-8.61059069196057,-9.99915902681136,-32.3693446400321,-0.33376359849866,-6.18093176644031,24.0024621629803,36.8275900397175,-0.618710808704758,22.7664547559815,37.0933902199786,-28.1651828559166,-69.3928568869598,7.91667917059733,26.4468895013683,16.7315330355408,-42.634642233375,-58.6469214505391,-2.07194834781475,9.5250523521399,-33.8930591078563,-66.2900153696309,-9.10765343064248,-61.0870763191565,-61.9116715830153,-20.3284959558986,-25.0726250886837,-8.13368772209922,-23.0175357771175,-37.3087811201463,-15.6870580457495,-18.3268309668693,-26.3570117487022,-33.1054913888041,-18.8489120024943,-19.4750679946475,-28.2636369050267,-11.304162703932,-20.0892884954462,-16.9138444273475,-16.4312955382754,-4.80571629668333,-20.8782061175424,-19.0900825502194
-23.8649128087194,-21.5063348893289,-21.4117621513288,-16.4331779213007,-10.3927704199343,-1.21044455848031,-5.42585495484951,-15.6755705874981,-11.8403322378174,-26.2728648073885,-17.995789169333,-4.92536283081622,-2.12301048674312,-11.4966217297141,-4.80410352587317,-21.9046725874683,-2.90886306268191,-16.4237653476143,-16.6063450246247,-6.76816559827967,-17.2221365730904,-0.279086786215119,2.75943313133061,-17.463061195333,6.98924149637661,14.1573571444536,40.1929423707391,62.0303648963022,15.9395640227629,39.8269632602476,63.9325527105163,-7.66725082966023,-43.261731314656,22.8156163885392,48.9081349854608,37.2907235142506,-39.5435293849345,-28.889830705312,15.7464430704711,35.2372917052626,-25.3305363281425,-48.4757686329127,9.4587712145312,-59.1905077437205,-34.5665281178453,-0.281710953915668,-9.7923375060517,-2.36126064810765,-18.0105899072987,-16.0033257404936,0.10152761135989,-4.53177954243074,-16.1638927647748,-16.7878775514532,-7.48284326238873,-8.71501710465224,-12.9552772052085,3.33092135718726,-4.2358788369117,-7.19110602933445,2.60712683913912,4.47297999786784,-4.41584165517591,-3.60280540197169
-10.1214150126236,-12.2186620904082,-0.718001423447819,-6.04974672196018,-0.196659638281695,6.88265972099669,3.17262848163213,-3.40985069304986,4.37019066685655,-15.81896585993,-5.83850889938342,3.463671182259,6.0815871073132,-2.04313759997917,1.03006186719759,-5.15154937252842,12.0018940849074,-0.230477398036503,7.20956180216559,0.809941968378118,-6.76200660311751,8.03599176985151,19.2133765534067,4.49266197227459,21.153775032385,32.1618157469574,47.4351801157469,94.860604372407,42.2578997708667,66.325222958697,99.3166266419156,26.6749191089523,-11.7435877325992,36.2049746341577,87.9055598967727,67.6542673996389,-29.8632030449143,-2.87716769882573,48.3316771043926,72.590733189013,-23.3725769762585,-51.1078646780665,29.5287233765457,-66.0688125077413,-13.147742692784,7.89329752314473,0.449765746977797,-2.28380204607294,-3.52643835088189,1.85985307565155,9.7886446749618,4.43323696008539,-2.18119109209541,-0.833585328352209,2.19761821744705,6.71344647317596,8.68693013625542,11.6881120001986,6.68984417575261,1.73130676532553,17.4642029728701,12.3135820415145,9.15769436046661,7.41066802095479
-12.4277708211197,-9.41904482320072,-22.7743374261199,-5.62137306014543,-6.71928020888561,1.2535253329334,-5.74877493202496,-6.90899680169236,-0.998452636972002,-17.8344034198424,-6.21854186471016,-3.55021367149548,-8.54305676594979,-7.94578259639398,-7.22196658520597,-9.07398324053427,8.69968227697023,-4.680923353749,6.26402696284361,-12.86883423633,-8.43343523120049,-1.56383079990707,17.4009940368556,13.64510708031,18.5054207761382,31.4277420763373,12.0240520757098,103.486889697209,55.830253221107,65.4427501070608,117.640276353538,50.2987057029259,14.9102561540972,11.27474226219,109.966624451712,80.6697241831997,-8.27486435473978,16.8915095102124,57.3527959298311,93.4769738009614,-21.4828440741394,-51.2174893274894,41.0437762737666,-63.2020816194006,4.79724095895845,-7.47996353937965,-1.77694596300446,-5.40723049709111,-0.67973329239614,-3.47045736739897,1.80061591571103,-0.722406268443028,-0.584633556829318,-7.14314061930852,-0.940427967774574,6.70112585391044,3.85944698510689,2.97573376654311,-4.26392391247565,-5.27329656069107,9.30103493865171,5.347311834353,4.33561628140598,-0.991421874693992
-25.3990949918031,-9.44339054086272,-41.874869303748,-10.7437614447866,-16.8421280950613,-9.00754717110732,-16.9543736830409,-13.2187407992411,-19.2557917637952,-24.3407297875174,-13.4955844565414,-21.1598864672422,-28.6767693440893,-15.7828975383208,-14.7244070332744,-28.9296282536064,-8.76542959999832,-21.4265963009312,-14.7807502452507,-28.6619074618072,-16.2434039873488,-18.2412162765888,2.91749886321251,7.72850232166087,4.75785941253563,20.823527717058,-36.2433338788665,88.3663868856507,45.6981776685122,42.3231477356916,107.385860151712,46.6876729265401,38.4337359614512,-39.5005246296313,106.789738853788,59.0641234503286,12.6046222013216,45.5948154325715,38.7563275364388,89.9499703161069,-28.7212498485751,-13.5338750360757,44.0387754794509,-39.200231007081,34.7513200867355,-20.7039411259605,-2.96179390858446,-2.60736944640523,-7.01010747591041,-16.9084495099684,-11.1081085553184,-6.43897951338674,-6.89890801314495,-21.5034977688667,-8.3321735051954,-1.09018871939277,-15.377641369431,-8.72247126628947,-16.4357925255457,-18.1962681285719,-4.16181625233207,-8.63516136671967,-7.80405127193364,-14.7544962548933
-15.6297747278331,2.85841014208666,-11.6810061710634,3.68371771731822,-2.98229652654486,-0.223714364122682,-1.93626372904748,-1.84819404510643,-12.6283481059124,-10.4622811468666,-1.89079884698382,-20.0843334867438,-22.3934844158068,0.751678063400541,-3.03060374909966,-28.3514971920809,-6.55997825737995,-15.0716076056121,-16.1497395242756,-19.161949820437,-8.01150597768967,-10.599155067494,5.00852737366459,9.60544850173964,14.1702470465574,23.2562821252093,-37.7476198393458,81.2760724911777,33.7021352775959,37.0983499801959,83.4876138123277,36.9899705563174,75.1069214073642,-76.8370169074752,102.840712353737,23.5305781755187,25.105694304734,99.0947058283552,29.3991818068391,79.4996629836668,-48.1771091375714,58.9045813759547,46.5510210543196,-2.0485327560909,88.3199749298967,-1.89601902142186,16.4032141586195,12.2296300272948,5.30000011009834,-4.27684647257689,-0.819810084640743,11.7407216957871,1.11172390284482,-9.97098898494039,3.99462455564862,8.29012960961438,-5.29259405483057,3.92299558324812,-0.607842376378704,-10.734801467623,11.3148849944338,-1.00571645717462,2.47378760198695,-1.86700900596094
30.919565076281,39.6018321713211,38.0707196430839,46.5792146841828,41.512469896723,35.4198398608808,41.578724460969,36.9296706228624,33.1098631813141,31.0289222491565,43.9992876752853,16.922541520088,21.4076625458126,46.3142948756528,31.9335134559815,16.6415094179415,28.5501661613341,26.1101053718267,28.0630436247458,18.5444615172716,29.6271389255887,28.5499360731568,37.8005954620442,41.1291796270185,49.1449610047066,48.4067213339375,1.81494845586642,92.5405618574407,48.090998662452,55.9864585224494,70.6309797670388,58.268538404978,131.665111019599,-88.7619571100542,114.448619403048,18.9990602840934,41.7299727879988,172.654839790417,49.9770421544306,87.1335111424606,-46.8972913911907,121.317743837254,60.5855451529836,44.3914325882434,166.363850028131,46.1656911999474,59.4937172288661,41.9530906221616,50.6575411965054,44.9172900903786,42.9280980760164,62.9664668114319,36.705713652005,34.8476335968943,46.9375430079482,47.7154587276481,41.6918626476065,48.4334307358688,42.3959820980475,29.2145291704567,61.925506286283,43.9813764762875,47.5649957594118,48.5775401486816
79.4626811844388,82.389305665922,64.7788378395907,87.7224310166495,85.7502652211898,69.3857699845856,77.2959732856368,83.5369476780109,82.1264196622477,71.4811908797389,95.1065702335725,61.2597102085764,71.9931857409587,92.149270772777,66.9539209833618,75.5301903205735,61.8145536174054,65.160718333317,85.0548751064749,52.4436922836636,69.1186095284194,60.9588731925268,69.9538312382972,80.6815456562737,63.8731121434286,69.4561681373625,16.4151147206305,83.6649519450747,69.7916358560018,52.7344276255052,54.0838861411492,91.0875302326975,180.869793535309,-93.0405292543728,111.831800715929,38.2951461440529,53.9949783297797,224.154043864039,65.0283032146187,102.739628942852,-14.6391867145525,129.121475224811,77.4551632585876,82.3340395765275,238.886425090371,84.5467793627862,100.713962668658,73.6890154281242,97.5828186978598,98.1297838129962,89.0578281125491,114.326688429943,75.7584310095788,79.1149627907064,95.6821880350791,95.9576635806654,81.4420080820258,95.6138813687292,80.7833867512622,74.1620015682743,108.195980116382,95.6546720735824,93.3941409261059,99.9884208855413
95.1281154416382,100.608146849127,71.5738967393437,98.111534048615,99.7568810327911,75.8149195759697,82.0669956527561,104.030418831274,98.182629976177,85.3349535546093,114.434395850995,78.0337942679109,92.9559949096832,111.060044181228,77.2630717653126,106.281595016418,60.95543077208,70.945720985861,111.766492796255,53.6458805368339,75.7941874876973,57.1564187947892,66.2074560513732,90.4840773930243,36.1970573186552,56.8927491399622,-9.7403393823631,25.6042301039052,56.5496996810595,1.59226701170414,-2.43701158755957,75.1401856008597,201.547598694108,-97.5846681777657,58.9496839923136,23.9167079888807,54.8721407059091,214.894282949728,39.6526335814496,90.5581227163423,5.36914319829018,108.244470689611,74.3053155955792,90.7810419744752,267.671023745948,90.6313816249648,118.587646338516,90.3719149196963,110.426542535619,120.509797111693,103.718285713428,129.384045625896,85.3957736622028,93.0089206610905,117.334863377908,119.935912848371,85.8221960928036,116.486170096078,92.2685570759104,92.7229598084531,117.364124446378,115.183972362599,101.590966444892,114.897659920914
99.9741961672079,104.542203673748,87.4199496401072,97.5693758641193,103.611777649802,76.1406851505097,84.9548361089668,103.962598312314,101.393593420575,92.5960195614137,118.903990506273,85.2500248046306,99.4359952641789,119.041557920912,80.6792390974237,126.359527496316,50.5578837703761,68.0606581568047,129.148896096455,42.0812828158162,71.1774646922434,45.2001603560805,50.1463511085193,88.1456906968102,8.17225988897118,34.9846936176587,-19.8239409846208,-39.976408920321,21.9894334272075,-52.7259871305511,-74.6221149895303,21.6078773506084,224.830879789685,-82.5392445506942,-19.083183504358,-21.6132236431376,93.4218297666632,179.353938714772,5.5667813440682,54.6677177856959,3.27702598335543,148.131390998277,55.9705982069774,100.887519849931,263.794112083766,91.3771336651469,128.393122096877,100.563185844851,110.356044906314,124.056034490269,103.090727002475,128.652436173536,83.8376738160603,94.6358703728621,121.26856046762,126.93420344451,86.5769254743223,126.938980411425,95.5055493707266,103.358866955374,115.146401114709,115.138764926816,94.2071690637615,115.709533070015
127.945660574904,124.822987864102,121.298522138353,117.841447246718,129.026614258561,99.3790939754676,113.897575111052,118.498297977402,124.995335777447,118.313724311124,142.317640886471,114.35592041088,122.967529141834,141.498552891578,103.768987440503,169.380314503558,66.0492689819469,89.146406217314,174.220873385271,53.0351354061101,94.1124142928473,58.6822534942202,62.9177120830194,115.144502171308,15.7805332418371,45.3632174392358,9.96385816018116,-55.9588479916386,17.8176071981611,-62.4291126061124,-101.558805994781,6.22047993153922,270.866557919979,-34.418745150041,-69.3728685435287,-36.4672112793377,185.103251880794,180.522135426736,3.79392281895207,20.6676464623118,27.308450610687,269.73395554981,41.2738422425868,158.19456144462,260.870382476949,111.897978547,148.349558729522,119.954045122896,132.524649427525,139.81815955832,121.636704071996,148.65858842137,107.502013388633,115.097566280775,138.790182672807,145.65035270629,113.265369178769,150.563869806443,114.120087512844,134.152289045056,132.764104158927,126.071620830839,114.012196202514,139.071822746154
145.782105934418,138.163839272246,133.458950493851,133.242859022285,146.711021310697,116.342424307177,131.883204400481,131.603036638591,139.269189037988,129.94819251157,155.490422819863,134.271424612057,135.783182202134,150.790767248308,115.551590965381,199.751645435263,78.7627613170171,106.145628194796,207.031409237059,67.0207561839343,116.08353206443,66.9091114343231,76.8948580352845,145.334637219026,23.9412595976152,67.4945983731964,28.6350845332272,-37.9424113304404,37.9658583741622,-49.4031092254688,-84.4016990459031,32.7010492866503,278.945128233894,13.9397265691013,-89.044626268866,-20.2515419822149,229.01848654821,200.401722675824,7.51924709436627,-31.8968237810752,77.6863993550166,365.265931302095,9.44038070693994,229.54355457492,237.845824403173,122.440268758471,153.716969188794,128.961839994145,144.809197044373,146.97834258869,135.277804589877,160.584571897804,126.562305496169,130.242354885644,147.792029959481,152.074098107613,127.881945085017,156.386461933784,122.845216945528,149.835471842717,137.329356207048,126.484369133077,134.377525902807,154.899578926767
112.601908295971,108.058673181894,95.796113982983,107.107365638783,118.12584639502,90.2361701085618,101.577022731833,103.351586355275,107.929040821283,94.8427492134242,120.420720043005,107.858455814489,105.432360426667,118.939293215599,81.6732282586608,174.64161919942,51.5635171061807,82.7680908077282,177.685890787097,47.3457327767296,94.6431569274803,34.2931020977251,49.5310831948521,132.629800775829,-4.40972945154131,63.1881388540292,5.59790372473516,-29.9567261515066,43.6872012771805,-49.2288123276966,-58.9064313617434,50.4991165868324,211.617672067247,26.5433833130961,-97.6394926257555,-10.0699296015997,168.933511999757,184.351891520331,-14.317189940331,-106.920819946214,112.436033329832,351.028246078281,-51.9666607072835,257.671119301905,170.274093530568,94.495160470558,122.227621080762,105.79823438273,107.260449160521,110.575291221728,101.348272807023,124.317289903337,97.5191658101212,100.174349135944,110.995246810183,112.769914106994,95.6862104384115,115.745901985454,92.166085794566,112.764958774179,97.9732961695406,89.7833887629629,107.316599337948,121.660871249695
75.402567831145,73.7112925007034,57.0954342610002,75.5878547027814,80.7291161460205,60.610280957714,68.3113734548972,68.0885449282329,75.0661287044962,59.9762205306354,83.2878353682389,77.7957498675168,75.456474871902,90.919798592248,45.3875558728252,139.364334747437,25.6212929067495,56.2659305197166,137.052840028859,22.3308436936256,69.2670447674903,2.4044825144953,20.5521441678948,111.145961380307,-32.4727460816822,60.0215297864571,-19.1596665568257,-23.1855487616436,58.687989964554,-46.2669432383458,-20.6695370374572,87.2884074155517,157.311776101043,28.7192643534967,-81.6167516050062,22.0887876483169,122.45420647695,162.963918696399,-25.0861511338304,-125.534152836916,151.841371650226,289.507704661167,-79.9695683774367,270.190814949247,110.665913359697,63.5883022620874,88.843589241879,76.9673069948673,65.8013295766625,69.5411169954073,56.6449963450043,80.881382389704,60.6930848883256,58.399754556718,68.4840685380478,72.1932468413608,64.3718449953566,76.0167449248597,57.5856134306029,71.5366324547589,60.9471385823791,57.5560522668716,67.3282754022069,78.4196920023755
77.0469265632195,71.8358419678691,54.9953649725256,75.2132944074525,72.2616596693624,66.4309878259067,70.9657416024395,68.5136777131565,76.8457278889989,63.7761008922558,85.4714244697765,78.3986199127255,78.6996434691523,97.2375372576138,44.3879738097143,139.017668792221,36.8865366919665,59.5446205320086,139.911298520763,23.2843242209636,76.4691683493443,5.51597491166728,26.0344405351074,117.829450791121,-35.2183651512696,75.2715363759779,-26.3011343981339,-19.642239890727,97.2980657030354,-43.2928748968919,7.84202043510967,173.243312955485,177.976244269943,46.135825726455,-57.0811493143207,80.9332345479555,175.485123194089,189.953344302208,-6.81726712553658,-62.9489536837622,217.686609368167,255.118253360174,-42.1758607491473,297.998923778953,98.8758126274643,55.0488888459918,75.102416198884,60.0972779592569,60.9388542359631,63.8647667164677,49.0525080547192,70.3565412411355,57.3765311049669,49.1431100881617,60.1559507022213,66.9110591265058,68.3159815941179,68.4635817882249,50.8683648670915,68.0689671790758,57.2105239012462,55.4206293458305,60.2826399885352,66.8404988508687
71.2681424253384,60.3395585425313,47.5427855173592,66.4313137897115,58.4792171570941,65.8236127262191,65.2556008453633,65.5947534897321,68.4819096242287,60.1067059092792,76.8824022713729,65.9184013041426,71.5430251719788,88.5753295291599,37.7247674721714,132.137586376056,38.8649324652246,51.2653324314255,138.796111043139,15.0563900770035,66.4129913516329,-0.262810678173177,14.76125283401,106.820109802324,-56.0694132287289,48.5705214121969,-47.2089837985964,-75.3399414684426,82.3942578617971,-87.4801668290456,-56.2994555225064,206.5048574509,187.766055003935,45.5607033864491,-94.0701724057012,70.0981637423214,225.833742395738,230.74696446466,-13.4300996621724,-25.4419034406404,248.779197731036,219.88465256036,-13.1031020073554,294.48925436317,97.6748987610572,35.5896760187352,47.0027950713662,28.8837427105014,48.8695502831447,52.0767143545579,42.4235577861317,52.4471101280441,47.0380710735031,41.9095294972678,46.322549746786,51.1569494767101,58.8251824917166,45.4688285231466,36.9043066997541,54.919334116633,40.417233475414,34.3718949387513,50.5109054981944,50.8385071313263
31.3270072410772,20.9856500802181,11.8846274341073,25.4754014601018,21.5796401183408,31.130724997398,26.7868884925861,29.6728248697997,31.5361637456608,24.0005519693097,28.869725266778,26.7757712860202,35.8180217876958,43.6316618490614,4.42021967761733,90.0611538021949,6.74399119714291,14.2885569675624,93.8626170105464,-16.3793388392229,16.5779368229852,-31.4224585255104,-34.5815588344495,51.144594036719,-96.4174604127352,-37.7637197800711,-69.7941024180796,-174.997438928005,-21.0737483254242,-154.337536737507,-203.252087685519,85.0619098725199,121.087445411746,17.091319590574,-182.659790897203,-50.2226164451691,176.492846722547,230.1297267804,-56.2864214870314,-69.9251232964931,197.590504202305,155.826838478812,-39.6760050847668,239.39694047414,79.7052071719108,-1.13244897844773,1.33728487915493,-12.4604322520927,8.25753597252067,8.62792428306123,6.33751162645193,6.18923741792612,6.7584675917695,10.1421407268537,6.93476876643273,4.17422064801877,15.2052556534206,-6.54498022717233,-1.44505060995533,6.20649496012115,-6.20250908253249,-16.0876054458534,9.88629838666346,9.4216875736686
-2.03761408517599,-1.84755728165908,-9.8179721397186,-4.3172188597788,-0.983842004184537,3.00092649739798,-0.603495893990732,-0.821249363985314,8.82086987749307,0.6800034010177,-7.43055815741261,8.24129736557756,13.8938357420847,11.3173462550656,-13.1523260006377,53.8839619078479,-12.7391364407363,-5.48158494080705,50.910064640054,-25.0128597902129,-14.0468913660416,-36.4337927735874,-56.1651547158164,4.4424456636046,-91.0985358228048,-98.142581233828,-46.9911177762087,-205.38674683206,-114.992605120939,-151.630125579957,-283.930974931625,-110.057591336661,34.9367083109448,6.56540435747344,-208.929968089619,-171.070688440846,75.1869834744998,180.801626047648,-70.3762928177221,-115.307526422097,103.54017151937,82.0420202989747,-71.1098025793129,168.289406279117,44.5206857169056,-19.6094099869922,-24.7933592504167,-28.643070872783,-21.1632051840176,-24.7111378180163,-21.1308572195947,-24.2842433136073,-20.5102960155493,-15.4217969364847,-19.4421743403249,-29.931993933938,-14.5630751702516,-35.4832945366249,-25.047958650856,-27.6263502144849,-35.371423906047,-42.9012755948897,-19.1905679176465,-17.3490921858564
-16.5041280620781,-3.23730109540973,-8.45459303846161,-7.62317975823833,-3.03479931413639,-1.98588780676027,-3.0291049277884,-10.2713053177781,3.2467834150685,1.84733545064683,-13.9095998687287,10.2186837559263,11.5817808210306,6.07215921285057,-5.60965562579561,39.9848390249337,-3.62503609771641,3.59911578521334,38.2987547133309,-2.60125390350424,-4.10267729240948,-7.83189595427587,-24.0481233646756,0.560022268784226,-32.2986192257948,-77.8268164722016,0.226692399997371,-127.960235408274,-109.086776793417,-77.2844062718551,-214.803369909989,-202.410716576415,-23.4768558100009,21.9327969519604,-136.371527518641,-185.343028390113,-9.0261769444583,87.2936121605386,-41.9325068044086,-106.809078490349,23.4023882584758,1.69346809695227,-72.0587334834551,87.5887797569966,-29.910342783981,-24.1182970791679,-38.0295746176115,-31.5028613373703,-33.6920457121007,-36.1394185039719,-26.2742500875907,-30.8534747459916,-22.0376012208382,-26.6367196482799,-30.0445368116349,-41.8144254364156,-18.7894391797407,-34.6194346353802,-24.1003701088809,-29.8399135458337,-38.1071064087435,-46.8884960082421,-17.4188297917302,-21.4811429084211
