-84.0958679863801,-73.3663951743247,-71.4089913505038,-72.713927233051,-70.974012722988,-74.0188631155983,-60.4620292246905,-60.2445399109326,-81.1960104696083,-73.5838844880826,-79.5285923974646,-76.9912170702893,-75.0338132464684,-74.0913595535176,-70.1040554679565,-98.8851413219159,-59.2295897800625,-56.619718014968,-66.769219323669,-57.1996895183223,-55.9672500736943,-55.1697892565821,-49.6600599747158,-45.2377772616389,-11.9619122566834,-48.5001169680071,-48.0651383404914,-49.7325564126351,-42.772898372383,-54.7348106290663,-46.9051953337827,-36.5382047113238,-55.0247963807435,-61.9844544209956,-52.1249388639718,-44.2953235686881,-52.2699317398104,-66.0442549444761,-62.3469366105921,-62.1294472968342,-55.9672500736943,-55.38727857034,-43.3528698757373,-17.3266486627111,-68.4366373958128,-78.3686493907559,-85.6907896206045,-84.313357300138,-86.9957255031518,-88.0831720719412,-79.3111030837067,-87.285711254829,-79.7460817112225,-75.3237989981456,-87.6481934444254,-89.7505901440849,-76.7737277565315,-79.9635710249804,-70.6115305333915,-77.3536992598858,-84.2408608622186,-81.9934712867206,-74.0913595535176,-77.643685011563
-401.135371836734,-351.239218243219,-341.226417373767,-347.780790556869,-339.887418088457,-352.885234981586,-289.645814006727,-290.788725312054,-387.303117635468,-351.691228572116,-381.203667869525,-368.148929695726,-359.441064708821,-355.549114939087,-334.164569125229,-471.89010793316,-282.492981074757,-271.704120721968,-321.748180279586,-275.108540215911,-269.695621794005,-265.114227591972,-241.000588103352,-220.74192189344,-63.3561766244637,-237.526585259753,-234.157685712704,-243.591971622934,-213.830892697268,-265.660135692564,-234.30850476507,-188.307214029552,-276.098166208811,-299.479558597578,-256.683686287758,-224.027119477717,-263.388878523227,-329.255202964562,-302.141982010948,-303.212396878356,-277.235251337611,-274.990774850377,-215.567894119068,-91.3491038138317,-334.517302334103,-374.32233244372,-410.370656678719,-403.544785989452,-415.620093979275,-421.867449709319,-378.866750154727,-417.721034134802,-381.583181760502,-360.019579668043,-419.51350029314,-428.909353168213,-366.536976360121,-382.760156468592,-338.239944805958,-369.651410102387,-403.563274234964,-392.97195840629,-354.606661246137,-371.824846695834
-777.559352044741,-684.013217568384,-663.558567975153,-676.718339714392,-662.677765010945,-683.143225447798,-563.777414887611,-574.727974867493,-750.319481598915,-684.110353378469,-743.81849581305,-717.000175907899,-701.649970739384,-695.753195387335,-647.338370686053,-915.617115301769,-548.255360669577,-532.2911554605,-633.739395909587,-540.954766996191,-531.15119210899,-522.50283078042,-479.894301786122,-443.599404102025,-144.432894673619,-477.520842887556,-471.068010012487,-489.622902454399,-444.307841818203,-528.53597010065,-486.54671625938,-414.08608339076,-582.946122242976,-593.059958021295,-520.301656238634,-476.107815489419,-558.727153343871,-686.552514212835,-597.785579081311,-606.869719920804,-571.638830758447,-572.248937099897,-446.582017836275,-207.248629197536,-676.09261795047,-726.654753863019,-798.752394104007,-785.566892024619,-806.517735666852,-821.8632811184,-736.154949777255,-812.524018813401,-743.716630554889,-699.489927367223,-816.094066499102,-833.271166804869,-711.761619182071,-745.296301981992,-659.215733710057,-718.251794124318,-786.554655271209,-766.012659474641,-690.991288362569,-723.514624646158
-801.138688037388,-709.434021409024,-688.233515488333,-702.402961388304,-689.717314545648,-702.108790634474,-582.303443072013,-613.434328286865,-771.509836723712,-710.415912868952,-774.203032976305,-747.456875372935,-732.536262309806,-729.368600368258,-668.380054101999,-944.513634017401,-569.492245219039,-560.328072078097,-669.791479640476,-573.084168499689,-562.688791145097,-560.296852733382,-516.217014045484,-484.681831109634,-191.624991059222,-514.676165949544,-518.909148693956,-526.282546549433,-505.596379859889,-562.124134935955,-552.652287073043,-523.976162817444,-695.022222604804,-630.927481792492,-566.194742618727,-565.652688419987,-667.143685199738,-799.66682825373,-626.5546415637,-649.801943916881,-650.758383728166,-668.692722548938,-511.925443477668,-273.00675018408,-749.193184206626,-750.87406633331,-825.612871294388,-813.32436909131,-830.386534050395,-851.591418077064,-761.73460826533,-838.998523436837,-775.068209412647,-722.604930355331,-842.987807622155,-860.843351838327,-736.769635803861,-773.069378989715,-684.730477506995,-743.465440886517,-816.196679649331,-794.11870054068,-718.908919059686,-747.287245395925
-535.548101019458,-479.359244854353,-466.163722596115,-477.753941825166,-469.644642272675,-468.421386771867,-387.327092742569,-434.516494388184,-513.907000017505,-484.072087136218,-526.251297789997,-516.383693466766,-502.06101969066,-502.48238805896,-452.907458833581,-631.204811856646,-391.804424795676,-388.946470277226,-460.086512869192,-401.668625462544,-391.543476404974,-406.059454619479,-360.683916394515,-344.65168669724,-169.91121140788,-344.293902563485,-377.421743503102,-346.982856507846,-363.934424373538,-366.908599296871,-394.91861332894,-449.033374681414,-560.721570282446,-424.085922259224,-377.977424202747,-439.150430626023,-531.343624664424,-625.777966858161,-398.343880178677,-431.887111144434,-485.04067862593,-528.39020753232,-387.650615072966,-241.137630268941,-550.619413424452,-507.479172095697,-551.99886499074,-546.204776249018,-551.93663355011,-570.95911694734,-513.089854350614,-559.219507720829,-531.005851512623,-485.756624327952,-562.02883201056,-578.098758113185,-498.723573946578,-522.06527228766,-464.003582028802,-503.40501261011,-549.955304713968,-534.390057706369,-489.696724211602,-499.353513267443
-364.825920851803,-329.999219528239,-320.419018400844,-331.769008585722,-324.300718581821,-321.122472914111,-258.440859066882,-304.541649380673,-350.8734156583,-337.236371282832,-362.947643615068,-371.734406671558,-349.58180308613,-348.452143504433,-314.763519948465,-429.769915473344,-275.552828604819,-267.675851865485,-304.663406701145,-278.1465413822,-263.912198212852,-290.664906395673,-229.496988427769,-214.479392500357,-100.955420237282,-184.12136197804,-241.504612001501,-177.786489074257,-195.323736918524,-184.849290633818,-209.89419190318,-293.465932446477,-372.572849132666,-239.516580680145,-192.23015465879,-263.827442161968,-339.760841085209,-418.195580934359,-202.006537161307,-239.140773941012,-300.130317066725,-352.95467747029,-252.225006908644,-149.342248702241,-363.089545399784,-353.565616799943,-374.880596758409,-373.627914076648,-371.8847123357,-385.264505247284,-351.891684676075,-378.754502709187,-370.185940530265,-336.474607011247,-378.579444590068,-397.145513289315,-345.144734569858,-356.238059961215,-320.592543787934,-349.911170742398,-374.571925536088,-367.511583278779,-339.703565339133,-340.899297579007
-313.161915919968,-282.324888264606,-270.6349793471,-281.355982997448,-273.921580061298,-277.041471209097,-215.451598898612,-252.553385261127,-303.815076283845,-288.096352880174,-308.400541611056,-330.465902290469,-298.622756087354,-295.390380821441,-266.896774254414,-373.301788814949,-231.354471767704,-219.445593353613,-244.276442750036,-228.42528801341,-207.659627762166,-236.250538211437,-167.150590653122,-143.043907311169,-28.6713455899698,-103.001949468331,-161.316329341999,-98.244908844112,-86.6842628046105,-98.1409890282059,-100.885584529564,-151.0026819326,-222.445469493591,-144.119145988928,-103.445682346766,-143.917752646102,-196.494033311019,-270.880254731425,-118.074551769371,-159.027910719273,-188.533577039316,-224.679839457654,-177.120467207492,-54.7181282905164,-252.971567503893,-304.817482338468,-318.550349079705,-322.541139520587,-316.162982614896,-322.889409645191,-301.489119623736,-324.947914145653,-312.446756700637,-292.365142246315,-321.9176111559,-340.02598844491,-296.316449689902,-299.158285960228,-275.156636053849,-300.348936703588,-318.503289735421,-317.559167813995,-292.41511572571,-293.726804496633
-225.336884848381,-200.135740674496,-187.771048570099,-196.995795605072,-190.908784874691,-197.25687609368,-148.324605141815,-183.440537718341,-220.93011589694,-206.551713201956,-219.844321567368,-251.082794520291,-216.134954977612,-217.398111628763,-190.39982398454,-276.366645699723,-166.97518120693,-160.304526284213,-177.335314365084,-169.677701757241,-148.914522776664,-174.563377717528,-125.876492519748,-98.6303924808053,-15.8327074397348,-69.8540696708204,-111.322844762294,-79.1643751797901,-45.4790134420254,-77.5846939320077,-73.5451036294217,-84.4748226943026,-122.379281685307,-87.6502623417215,-84.3558488049701,-100.186528788969,-117.766884889939,-155.290772038245,-82.2531838633201,-126.568004476154,-133.766874924262,-140.597129867154,-139.580301416638,-16.7002432067277,-156.573875973482,-215.365931541132,-219.547583119835,-232.88346156372,-223.841375053179,-218.335971497384,-214.652096301934,-227.705464176297,-214.777653489419,-206.379431068584,-226.917713957715,-235.949256265718,-214.343085726133,-208.904018534287,-195.970455225972,-213.599483419033,-227.655257748341,-225.238324697202,-215.467211501947,-208.98329943821
-133.070828273824,-114.147219939591,-105.450394462394,-114.86303563993,-107.878324685411,-115.035014600038,-83.7887566501842,-122.663776434354,-134.77222493421,-129.613867941756,-134.567108470225,-169.134216546249,-135.979578439872,-142.520082258142,-125.560944974173,-171.779010129523,-120.713289118734,-119.121306765698,-128.026018282347,-132.169530929523,-123.688455556515,-139.068435708278,-131.032997335541,-102.096813956165,-86.3578682754102,-102.767177026115,-115.888132489656,-126.158929527242,-87.0835316346244,-123.218063132103,-128.347113251662,-116.535770863842,-100.33461491587,-86.520290630392,-129.242955449213,-134.435597761835,-118.45155715,-100.552657827023,-93.3792865842939,-135.682906164597,-142.491391902606,-122.976313020984,-140.375621118152,-52.7418731606793,-101.505214570238,-121.908515965633,-115.955088150692,-135.085101832277,-127.669235084517,-109.468111178761,-121.216946732369,-120.131820547506,-116.642283109572,-112.762705035933,-123.386108703375,-125.618949178918,-130.188285375536,-121.509306920808,-113.673711949894,-126.296295299763,-133.08425481158,-126.993684547368,-136.919521796952,-120.662438202414
-84.7108722320269,-66.748325991544,-66.3696650604384,-71.2574512662662,-63.8488662017182,-74.404690904613,-51.2847124220605,-92.3977079029737,-89.6251251722864,-94.137299640061,-94.8986190463904,-127.846172324179,-96.2825824748747,-102.818761788219,-103.069097224281,-119.798778773974,-107.86178156833,-107.182027571942,-112.502489028281,-126.889117003812,-135.936543855491,-131.186290355323,-164.037981137703,-129.072672937697,-162.995052276918,-161.845189905053,-138.431906547994,-188.856335454842,-152.640148049748,-174.499120750058,-191.134406820183,-164.955518866897,-106.42771800934,-108.572597843196,-173.716235323729,-175.519502416187,-138.282554377345,-86.7445125275823,-114.99338257736,-154.213219860693,-164.012694211325,-127.043873785681,-150.611348951071,-95.2704174936784,-82.8559724086825,-74.4164813903227,-64.6658803170176,-81.5019276231974,-72.5914152250493,-55.7252738976967,-68.2534505327219,-61.8512056179351,-65.9482421881967,-63.7250934562332,-63.6659085611742,-66.7182896301545,-81.5928412544841,-76.1394609042251,-71.2802301905047,-79.1025314208237,-78.6545842504652,-78.2654862255541,-91.2532912680337,-75.0585331675668
-34.0743313974651,-20.2055130556386,-26.6697746760334,-20.8919785544833,-18.6622258408728,-30.3226895234857,-11.6806624124397,-56.0352027871502,-38.5993136389018,-50.097838100463,-51.3669684802524,-82.7062607310124,-50.2762143816135,-56.7340609274423,-68.5545768627017,-66.2272877212913,-74.0538239893305,-78.7549816053664,-79.9126689232206,-103.059030564482,-120.993462021239,-98.7339543309423,-155.352585503929,-122.782695116791,-176.971931063518,-166.713800849747,-113.928708172738,-190.843975134939,-164.807725905952,-159.558050908267,-181.819641675536,-155.684356366514,-73.7302302851006,-85.6634893148555,-146.616994014454,-156.722367242129,-110.08241513266,-46.0109228950306,-86.8983687466983,-125.028008529227,-130.41189752684,-88.6318025576581,-133.867877760546,-94.4046488601098,-43.5694904759196,-31.4323821399079,-16.313925708524,-29.1226663516547,-11.0883427126228,-7.58933569890423,-16.4607473223937,-8.12612524547464,-17.3196122980162,-18.3650807639792,-7.51555939689005,-7.57395929829009,-27.3140742195079,-23.2892703284495,-29.6788144610898,-25.7393779070559,-19.0387033709395,-29.0305079154415,-37.7437446813404,-25.5317941688342
24.6395305241366,24.007602577234,19.6244199995322,30.3097274749033,26.1085170785456,19.219658434276,32.4268966249631,-21.2842520610958,17.8764708416286,1.50886315639991,-2.0821350284753,-35.8233485148246,-0.991999910144942,-8.01968599294226,-21.0912584366124,3.38473905257991,-28.7777239957063,-43.8024566922245,-34.3528361105074,-66.8845447647296,-81.0647106728242,-56.3869842140095,-114.554562511468,-99.3418758995234,-166.596828619192,-136.467412444916,-75.5807254303319,-153.847500025674,-145.79651798131,-115.445498773905,-135.595160263109,-128.200480641619,-35.5917915001431,-43.7410152797115,-93.7869766759878,-115.575301972528,-67.6057282522553,9.17110270202694,-45.5476177351483,-77.0027036935059,-67.4717831551468,-33.2639003836029,-111.916995759684,-82.8531981192421,6.44459640116124,20.3855470102431,41.5274316661492,34.2231889156883,51.7298541201017,46.9022057255248,35.6649384747221,48.0600607729472,32.8150639635305,28.5531655270723,48.9789313330236,56.2413467625436,24.876373230627,32.5703825800572,11.6788991857015,27.7174537364535,43.7366644761443,28.4742281127434,16.1255761345419,29.9821588404726
71.9827615287528,57.1459087907433,57.9469838596098,62.5379068945494,58.5000130032878,53.6888145633725,65.6646178969847,2.99284115584257,58.8963856083722,37.9242850019057,36.8985732504549,-2.16797285442953,32.746067835666,28.8877343577977,16.7524129792304,62.2926688476635,0.774101973759215,-17.7883379441867,5.31028959413073,-38.4203285953921,-44.4491444801487,-26.6694716807531,-77.4958581571577,-78.9842953630383,-162.89298525607,-112.998437404769,-59.7211184732085,-119.406026498683,-125.37900731929,-85.9340489520168,-99.552556963231,-110.261677498064,-16.3608344180355,-22.2882972136279,-64.6703603287862,-84.7034737090981,-36.3757730535175,49.7708346708963,-27.4358909956046,-42.1303548350295,-17.5456285788085,9.64970769280763,-89.286107458718,-73.1707369394486,45.5705555587301,75.0975087109374,86.991888754047,96.636665908476,91.6414049796072,88.5147953120141,74.1721288040359,87.8604696454063,69.9698591506684,64.0426132338024,93.4178002740772,100.015515741861,56.7132276655176,67.3009938833877,41.3387524236859,61.3442632826691,88.6912684320139,71.5061851796535,53.1293317163119,71.3966190332525
124.693793526768,106.595386739841,106.901955851255,103.133115509047,102.750563151211,95.3670797318789,104.158669856262,45.8966144640545,107.940520387104,81.894075767006,89.7525987873147,50.500641217924,78.9931887246124,79.5384241726179,64.5303943098493,123.894251793568,37.9753036803068,24.5179061164554,58.8373802677412,2.64762127011238,1.64555332009549,14.9541457032357,-32.4450359656771,-39.183401719816,-137.376680324592,-75.4145749115126,-33.9700983337829,-75.0686231424585,-83.4120676163865,-50.0529658294939,-56.2469973719393,-67.3993531935004,23.7130179847524,5.87903675550524,-31.0332346165133,-37.9494207358701,14.8646917259361,97.4932679378673,3.54324134428798,7.35693796051393,25.3309267723626,53.5697518848353,-39.4665027680561,-44.9649486430848,90.6906595805726,139.821035248993,127.702039498557,165.316429033689,136.751446094347,135.480917894095,122.081303252896,135.539653052058,118.671545028382,111.352357761506,146.255978197689,147.57562944171,99.6384367346485,108.58875246118,87.9944896497451,108.281646625821,138.569342582711,122.093205683634,101.799025794999,117.815116506289
166.126391367634,148.925270479777,146.271910288916,140.309327138021,139.599652811768,133.632822262061,128.525280488906,86.9029941925482,151.09489887217,123.069859990568,136.747535157855,104.137221136128,124.419119746219,126.765988330572,107.17636756138,178.156738936363,72.888276058388,62.6847447490208,102.567548797276,41.6960390388718,39.0911750287196,52.1158868701797,8.33133068337174,0.00273745536980541,-106.258254833503,-31.6212455917301,-6.30051327756426,-32.4518746055747,-44.3160225438157,-17.5106788468078,-16.3549364915574,-19.7421928588198,68.7106661157569,39.137612014277,5.87392912741056,6.2777015947051,63.016894316078,140.574972941137,42.5972487303139,54.874324574545,53.236283879951,80.9600791198434,9.41262941721731,-24.4772947892782,125.71317583861,183.836672399562,153.746163346188,213.664539839472,180.472845309506,174.945777099661,162.606011598469,180.226592961445,162.376166422209,153.930698162115,187.785182887399,191.657192565905,143.651077885178,150.386693328949,133.561697225536,157.472008614038,181.870253630465,170.105543385549,147.194088730093,156.031322347653
166.307312066588,144.405445138262,141.339302958902,138.494226930459,136.49538100651,135.080081117793,113.215443965528,85.8504729007417,151.972476836807,127.583174357641,137.773184197407,109.150647337948,129.54830146582,131.579203943057,109.93522469008,187.71777825401,72.9378707354882,63.2235650395138,97.9560380499544,49.9091282812668,40.1789810975989,52.6200651833623,16.8091511074771,3.76778959914659,-101.597926548165,-17.4275393427711,-11.4420086635377,-15.7279170413976,-44.5294233903728,-12.6112163030894,-6.12877562378381,-11.492186160753,75.1412276954201,44.6100530601969,14.9612987141989,13.249259741849,67.8841526798773,148.671155946137,49.26364514708,61.215793366592,58.8157505734837,79.7756555313946,25.8450141638509,-25.7832697208481,132.356399267197,186.592843816272,156.432418003078,220.713399803209,187.264352071466,178.409100841045,161.414449984565,184.687963743457,162.430351650756,155.764910624989,186.06231241191,197.8330177106,148.553598862655,158.599923003256,135.182441002225,162.172141554807,186.152266565181,177.215484183299,149.292695572669,157.630236559005
164.285329372489,134.055395835782,130.065731673807,131.366058988599,129.753332775193,130.899092055832,98.2862458833757,76.6306995396912,146.458433134553,127.424534190743,130.717782484389,101.913300535149,127.610719502676,129.15615031384,108.656439030789,186.065407268946,73.4012136485403,67.8820099367647,90.2747111586204,61.1793181521801,47.4611633242256,56.5344420683133,27.9025796581009,6.96246884156249,-80.6507046478227,-4.01884675979323,-9.61722210357589,12.6896567510757,-40.2205134477065,3.98704792226908,13.3793039600804,-4.87158730143736,82.7869234407821,50.1818570489039,25.700858075258,24.4551419963131,75.2163763298604,157.560676920422,51.7507736226374,68.1536178666943,79.5618536780745,94.0884797350667,44.6076916831668,0.256478941954188,150.903941514866,195.57589741365,175.957766051414,231.119936295219,187.306829840775,182.690679819457,156.195450863106,180.771550417234,153.885040577784,150.418380033534,181.220432871414,197.38552124645,147.354306667612,162.405603871373,130.429558113258,152.76905408226,183.340935439301,173.366284536892,143.861528973919,155.278154578127
205.563736565201,171.229704644874,161.97872750311,167.551914462104,162.768134900365,167.366278627983,126.566777481174,106.383071882382,187.566171347182,169.35608512933,171.13194603661,145.240567296735,170.172927749065,171.661330547622,153.093686629487,238.861106798288,121.347007065258,118.959343197942,139.137254095495,115.33754271286,103.482800963887,110.254821728321,85.6990090386754,53.7752975480137,-6.24014752039223,53.5405232321301,47.2028728839009,90.3914735243825,16.6200613727795,67.3425563016876,79.4586625016094,52.7851812035713,141.578415101821,97.3615073139423,80.8026501820179,84.8390398303989,134.746849758019,209.181807882508,96.4250279385688,124.177106656902,136.157044603286,147.746222164955,90.4483301249043,65.6358152213217,206.215405539144,247.3400394267,235.761874955418,279.808604017637,230.440748230977,229.105760930831,199.294083402786,220.524254710975,192.055884785277,187.691488309034,224.517454208351,240.827069026508,195.643758186512,204.813442122614,177.348078208359,190.50096262762,218.648883437656,211.533056009172,187.292766827467,190.036128761472
255.917250650251,224.930454779594,209.37505549341,217.807983032709,209.955846776902,218.739739901518,167.939813448867,148.642290825857,245.366958892411,222.664932234522,228.581805185518,209.109278931671,226.748342171066,228.082227426766,210.936991688669,318.472888998489,180.115454553858,176.047784643756,205.930323049581,182.152076273251,167.761031166599,180.405153887361,155.904316851164,113.688251438546,71.4640829552596,118.511740962366,119.749595366517,172.251810572383,83.8525054643281,135.699141589745,146.776248175186,128.559105687043,210.113314196318,151.989625714939,145.353740443054,152.185953598711,199.840738844222,266.725447029029,150.994458905397,185.320195636984,189.266470503872,199.713361882592,125.281303264001,105.18092952546,253.64960753204,297.076682243259,286.117945492565,326.43724158904,284.10485880905,281.112854657942,257.045690777107,275.675804698827,245.927057282543,239.374167231795,284.436921406222,297.593975526717,257.619054099109,254.59582910772,239.011812124711,248.727765319912,264.550545210392,264.501612831067,249.845755395432,235.510731186562
261.803004632251,235.474405252083,218.93859081891,225.1392956811,222.077421264493,231.872060402764,172.172655793249,155.380542646557,257.722183661247,231.224671432226,238.98195511404,227.113593887955,238.984707503491,239.392854957854,221.052952690367,343.197517751032,188.997434704327,186.206165979951,218.331954375975,208.89819882489,182.702358759407,212.339075487237,177.464228706798,127.984200278415,100.455523260841,121.16269918994,153.656469837077,189.134801109623,95.6948384575185,157.160376156909,153.622586746649,159.467533868657,229.569046759026,161.537390375819,156.698678914246,166.057311423487,209.925668002902,276.879333659638,158.481071615995,192.640718415151,202.29621086562,209.266211101872,118.871711561171,85.2043525471559,254.140303625086,287.629870098698,275.67445601479,320.359710041478,279.844115986591,282.046799069375,258.255962402639,281.712812672459,242.803065209373,243.811192098312,294.624946102751,302.141297314569,258.985408935475,256.923741730291,240.388839297425,255.857723504002,268.317737269497,268.980952073785,264.106672077666,241.860633356715
246.203859148921,217.013861488825,204.282237165474,205.914330620347,207.690884003221,218.054749270497,154.215182049255,141.147373918532,240.128686108102,213.222355318105,217.918929931967,213.961902163043,225.999681265751,223.849479261081,198.629457397201,317.205144291076,168.87854608078,169.985300348999,193.867239593657,202.617600240434,163.047513840774,217.052935262564,157.877360467837,100.829426208586,101.13032436309,67.5547537590543,173.629278553323,141.021134146983,65.5193156009872,148.20753722912,112.136159311452,154.91265652127,225.157973609521,149.184887257067,128.685836021622,147.86373393312,197.087925429969,264.989002289397,137.904618699281,172.217654295681,198.62782819012,197.483002553031,105.525563097816,58.9074045128929,239.356528408144,250.431384945531,245.661973402895,286.509808228864,242.182793535513,254.735093787529,218.773840544389,252.976615224244,196.552688611669,215.108660111117,268.406787907901,272.105296311674,221.470325915511,231.643692198679,202.946035842755,225.234172283263,245.663921730543,241.287540224909,244.226402613685,222.63709606435
270.013146147155,232.601645512951,222.695223647366,224.699797267098,221.608740431599,232.797724564982,167.777956785492,156.169157761183,259.73055170544,230.634461565735,236.894023093756,234.218681262212,247.532330924741,243.687589155287,209.859847530558,318.882030604425,184.075255297325,183.477534939908,204.277926747019,214.125326400056,165.52990277506,244.424973173968,152.598853737025,88.8439686104137,107.537261169493,25.2215354795355,226.688593122712,85.0945323985988,55.0151016006987,161.01183308443,84.5779406572089,173.829375828478,253.983245195959,172.257205851079,126.930322902553,159.727951060061,224.929422532647,290.893370470089,150.266969093393,186.165690242754,221.367829085059,215.497964580067,126.962477131921,75.7612148174024,259.042606240594,252.412294074334,283.207046273592,281.041434299045,264.958958428095,278.261230874165,220.11562780261,269.993601573497,195.735613720484,223.952140563602,284.118255545703,288.110107117219,231.266040467864,249.186609271406,211.885795298627,234.8062778406,260.45734970485,256.032961161952,260.276611284174,238.545278801926
325.799366022867,283.323072899728,274.513778224105,279.946894297837,269.909363733178,276.987901966907,213.713106050606,200.821949015295,317.884673026994,282.012718968448,298.093951277079,287.42692275658,297.362635934168,295.214924004699,260.536467887513,367.192915231104,236.452503946422,227.525617633021,252.900897563961,253.315802484972,199.978565054654,299.250058682525,178.344951362446,112.627613399928,114.224976305983,33.3899698744784,292.187297912587,66.3509397277212,78.1040149442593,203.118128138397,102.95190784982,224.465233306206,301.002062364906,225.215281008299,161.637354951418,201.278256403358,278.141995427035,338.151454480359,194.115464346063,229.922604377923,265.651842831398,261.780976402253,166.116481677053,109.105277159897,300.865874064122,268.32479928989,382.211417734138,278.219572867426,350.109505615434,360.68870393117,264.369668235682,344.808453513508,255.616997489315,272.18240914323,349.108677638333,357.347994793571,290.383773925451,311.915874180073,266.810024793779,288.671108353555,316.970188841072,316.206408273911,308.0835377358,292.160163958156
351.231391718406,308.337328084888,301.616909948416,306.653920730864,296.233139284671,298.91370377981,241.850884055169,230.513201960785,350.993069745516,309.023751730961,330.337074307907,316.463344776098,320.776245122996,318.588258413508,293.169466138971,402.240425306477,274.606528252714,253.74056440021,281.803370363673,279.533011688824,225.656470606451,336.084379532979,202.865430042441,140.028079679014,109.167057497504,82.0534128519693,319.119011636591,86.8794834231588,108.611334175972,230.992054133068,147.745725717622,262.595828149417,313.582043964083,256.320582602819,185.924490084981,227.746282437306,299.738374072414,342.140288690097,216.502769308846,248.093307517985,291.475288920516,285.981525697596,187.449285085497,115.150279576165,313.880289103563,234.67049881549,440.917374973973,220.248212233703,396.779173672519,416.336091278917,278.250316454666,395.330072002217,299.718989586925,292.920902826707,384.104762585939,398.730554928493,322.099976220514,346.695147691775,292.178775684444,316.771318455076,347.659057852873,349.282692250206,322.033205896929,319.502665613421
333.616150618332,292.065527121219,289.938459170916,291.872360393719,279.866484371171,290.026354450027,234.819180362712,233.647550381862,340.445677965451,297.072206432092,312.05177525956,311.086849230407,309.532464203608,300.939851578096,289.533008413296,395.56180133351,280.382904142395,247.538591604544,274.656937147601,274.156381464562,223.157724528738,330.533758968514,203.193456932149,150.040974935688,97.0525192027651,140.256703163928,300.76896616197,119.256244736011,141.498579977649,216.144627116727,184.665767861776,271.896828281643,300.932913891341,251.36666176435,181.682054122703,232.397385818499,289.047712880816,307.832008099869,206.136152661734,228.260367824088,283.996408565558,274.210690758467,193.134751282462,99.026252321144,289.602264748181,186.97778221422,409.906437344335,157.13998023061,364.934110199905,395.797481354234,256.394201438128,376.6057112257,299.757136045646,272.573392948085,357.093631915614,374.046976780276,306.795651439926,325.568874159945,275.770328773479,301.256274775669,326.458904996581,331.429091722821,299.025412301608,299.590471636635
318.514779689506,275.757510025635,281.275200004,281.703762771039,258.416770718094,288.369123289116,222.177944466285,236.471784689041,329.001434777345,283.87646364577,291.570814396894,310.342488474903,300.877234867235,282.832339981891,286.531851051002,383.33248217195,280.228018113043,238.473209157164,265.11220744988,260.036906174535,214.043650540523,304.249512596082,190.185101837584,155.382873184142,78.3399401070943,180.242991905053,263.550582275778,137.277899208542,182.098039361724,182.304676772124,200.95324210352,273.290914147034,307.40947268626,241.229454731255,177.52457272276,235.555208797765,282.797507879141,293.922720402203,201.012037944938,211.678668962152,265.078054516492,259.270350623705,201.823970893319,84.4062374619919,265.814436404305,197.617030327921,344.422637316723,175.556025258524,317.614278993363,343.899815795575,256.353734336075,332.317831551144,299.236585075285,256.196156146701,316.567656950479,330.375766092303,290.931849060492,293.06843062813,267.639146096441,285.620724125932,300.075922030486,305.772814864272,285.906109899495,275.627823331743
324.833139589608,277.324896483991,288.158291070376,288.308506198615,254.526298931175,302.247360544307,222.122952723162,249.912621470984,335.634513448475,287.253783778747,294.843096611536,325.539178346556,309.710636926081,284.105038031469,298.962488348758,389.431001232749,287.43609101584,243.498350209907,273.441420173759,255.328155524951,220.585956264098,277.73081176884,186.413227525353,176.503003704988,53.7987256620868,209.573099544391,229.133301224651,151.469457320644,230.115279681466,175.418685674704,222.413465340877,285.278851568142,333.925941821521,255.853350311531,206.757979945536,248.775545188887,290.425065097981,314.385226451125,231.26062695333,237.017036011494,259.21733298861,256.889342486786,224.707647047563,75.1072730024588,266.85404211833,242.622967204449,303.723726724433,243.268582052544,300.784289124131,313.615373107617,281.13609018715,307.249148376043,311.029229991411,258.51880940228,297.838036885852,309.701707203618,290.84887702767,281.101664284178,279.085028652123,285.008676685716,295.787418735614,295.646688845458,286.791730360372,271.698846367463
322.26923894168,274.109373303113,283.468605440156,280.801323672659,252.805319166305,301.504716813213,219.645495338445,260.602570257334,330.311192852838,287.965192412593,298.458410534264,332.339414007546,314.481172899976,287.035484402446,300.142764367009,397.583852288885,282.221463303228,247.721498563743,291.382338970157,250.473589190432,239.877130320851,239.038146062037,197.514445238754,220.016242082089,33.6456657357996,259.04934412707,196.863585616704,197.970813264837,291.505421090042,207.381147053686,279.176767222177,310.640895481537,350.146765175116,295.920270007761,273.455689877269,283.050158361465,295.307668048327,333.803195746518,292.310505427443,306.28403887999,267.128046725724,243.812846507704,266.507273572261,61.75105996691,277.637021457857,252.780490480369,284.133346858597,270.054125546893,290.510369341412,301.4652891761,286.238060122111,294.000888994025,305.965046680428,256.162180745541,285.849365076321,298.508128262651,280.320792428591,274.933389632077,279.672931652284,276.800704619824,289.780125475219,284.276155828863,275.960519006006,267.091817494445
285.220937062785,241.662262514151,250.694775625666,241.678160003488,227.41660006898,264.844599566051,191.807134204357,249.187901241059,289.734813214555,261.505121377374,273.98587218934,312.061785447035,288.519242085621,266.03931603379,266.246758184517,385.904442177406,244.019894971553,224.257494958724,292.57171711444,220.439136545399,242.228785909474,166.625173213309,196.17233372747,255.861534414732,2.57461813906176,312.876494282244,135.299706882079,265.815517941426,345.326894411985,232.127973393644,341.323837699303,320.498168578333,326.094604959056,322.515943305872,333.134607290694,321.102314655862,269.436322309836,309.307313755909,339.724356157423,369.988404267008,260.652209874008,187.096864848831,302.406393661405,23.2569902406957,258.704916778883,219.781243938858,252.401439849372,240.182749909111,253.37292052787,270.807868373354,254.632361326113,260.76501214999,271.833918492634,228.970509206115,253.236526605997,263.819256732941,241.602922348789,246.956605732492,251.077279574039,245.054612474914,257.51816462932,250.937905529742,244.425866066065,236.942145395606
238.585193395255,197.265166097361,211.506301130821,196.86089180863,185.071465106209,219.323382092873,152.448982892846,221.778242839503,243.201440277673,220.254398740415,234.372864539356,280.965270728509,244.298327974527,227.685842632113,219.596326060603,356.109630138002,192.829406506223,178.977571384672,263.090483099189,167.05462647518,213.222221131577,81.7958899516058,161.559996898393,247.210189779073,-64.413394219637,323.771340415798,38.6066225711801,296.72473862596,350.578720425933,213.072274348894,357.644319356265,283.576306875775,254.900851519341,306.494591607223,344.317073700141,326.582558716858,206.855815962566,232.455570556619,338.259124930721,379.110519713258,224.822212443312,99.4702236888741,303.549596289907,-42.6043854320824,197.163216083843,188.026730822733,207.618815409014,206.680122042197,205.453450185902,219.030430406097,216.191774317075,211.957504887476,236.492769887413,193.213262182762,209.966080889576,214.316229035858,197.132643587382,207.355229847217,213.553601456005,207.091289265702,216.888556207685,208.334995961549,210.80667842741,197.096304168545
228.583180692987,189.469784377447,204.286280067857,188.184527900635,170.580634209121,214.660334342799,147.313720073466,213.721535271339,234.804466831251,209.11236762538,222.04066242845,274.592456871613,228.095090210337,210.989227177674,208.730292901193,333.520135519502,174.809379826648,157.994445364486,231.713611360288,134.679301056623,186.811602403903,43.8514141989009,125.089533962977,214.021080914857,-132.959376403332,295.656098516828,-29.8214088753477,274.634577228175,316.432957829952,185.117142104224,343.262026239845,224.970625058507,181.308126169631,279.698441742254,332.576400306238,314.452813939062,155.736648422541,161.540689746938,318.010565246715,358.517055420574,189.229202171692,43.8568210035058,288.501589721237,-90.3420710364633,134.082788617323,188.3201721053,179.115297535936,206.770677780332,185.392916098849,188.752849947063,211.783377054495,192.42130773599,236.017439219326,189.837126605159,195.326449285824,194.412524172835,186.827499525192,196.225147167872,205.944587143071,199.115078432333,208.242559257969,195.999319682013,207.057545084832,188.790488741221
232.764447982147,199.598125108586,206.783608543569,194.073027013609,175.604101019755,226.065376780452,160.20253439913,213.708326438386,234.296937026436,212.792849518394,220.833646663308,273.312652997659,226.316818075992,204.037485356782,214.55672447172,308.177564962385,177.937370487517,158.641854671924,207.708870527288,130.312993167084,174.187148263141,52.591597001856,109.564403921706,182.673991050943,-145.028681783499,250.214204610897,-33.1292149446788,228.622513641015,271.756781827515,180.879227065991,327.35782968507,173.820479857208,139.416447890092,262.735775467412,327.43081892672,308.853983411301,138.622177814142,138.603809999241,304.855807621408,344.063833257834,162.478666568547,37.8272527363272,265.733451940292,-100.833721413701,89.9588058589159,188.648268640227,153.456109538072,205.62385968337,173.881122228868,175.118287314139,221.088181646864,189.895715338395,245.366635458357,200.05458510158,193.775799704437,188.855207640955,194.806191170287,195.460141773334,212.958027962861,204.336084805099,210.796287377548,196.30958106124,213.589639868577,191.388979000344
203.65151365747,171.003374127282,171.377481608027,167.379079291772,152.303095010859,193.204715286925,136.574174792362,183.914054479301,193.013992495788,179.910609879999,187.406572269463,232.563173088101,190.026935515366,167.201936640993,183.779902315506,255.167984218171,154.272637010595,135.738463730304,166.046030279214,116.341394073127,148.667906850384,54.9049709395375,97.748550650614,143.29680340143,-94.8683551282986,190.778218891135,-3.25769373459979,192.803917551839,218.988318432177,192.618554443841,305.807089280211,124.016676982624,113.124319945378,235.379331359831,323.811901052556,301.9538688631,126.276966055419,133.422694410083,285.271274368191,332.133490267579,130.93291445363,53.224408103499,225.013358259822,-100.086256003896,58.6081971950401,167.301289181202,119.230646522648,180.876863749466,149.350032709373,149.829758681876,209.387287302361,166.967153962394,228.553325796051,183.128970585958,173.350628748679,162.187103518576,187.408569194708,170.18571307967,197.282609293285,186.0989911473,187.13246715521,170.172374139558,191.248532015401,165.313429706391
207.665931857797,164.839666911988,159.361563612778,167.225147916869,155.602467631214,173.031094664504,125.726896405998,180.151116134677,182.486144155028,170.416264971555,187.934463207909,212.135194517982,178.085311506674,164.659040412532,169.773951610225,250.332927810285,140.769803364162,130.169994058051,152.89914560634,123.726384873047,148.113506348056,71.7509736125751,119.122253206628,134.168912880247,-3.66665534631069,173.805064684403,62.8798718357639,223.933149332068,192.233837282155,251.764268091116,316.532034258212,104.023940992032,137.171069610024,239.420868087282,355.69016688572,322.164695080537,154.235991335108,173.479104453886,300.469552982856,360.59513289511,148.65159477259,132.22266613725,231.545837868182,-65.6569965731771,107.623004758001,218.747948344642,174.931794683797,230.221363745644,200.794310992141,195.507582290866,251.154602413824,206.848995239552,259.874035389409,212.377683374512,212.968128083981,201.055677763666,226.749671680696,200.137790985705,216.394931661673,211.446887787993,216.265645613867,196.65936587735,203.753624477442,186.509887900599
352.296478994018,297.267461552546,278.633916284243,296.797425488643,291.642325159354,280.234679292564,228.976970691753,297.220859101014,312.536755233022,297.281939669506,332.755537284621,321.895192663027,299.776939947774,301.194292717515,273.855239464164,406.082171189113,221.441815714923,231.957696674162,264.54088709411,233.017723590693,254.822796648648,179.159154304379,243.820790194679,233.944129621744,128.361471350372,282.965303255574,218.610957210363,369.504158664749,256.526494469441,413.593710513015,422.720389944711,163.667924307578,301.247121679088,362.277249022326,477.643447084768,410.774924213789,303.986232721915,379.382891763986,427.084254208925,498.284819190397,283.601818899899,353.176035377571,367.496100484075,60.6572534256253,325.070247450613,436.458012293949,412.839812373294,449.774449567777,418.709507364423,414.083357545565,440.283861092532,417.399062234791,436.057869382288,390.683279723545,414.152976431099,412.752154491097,398.691495587155,387.006783155519,359.890447307024,378.261361675967,400.636472982787,384.370636736064,351.056383400016,360.163835797965
592.001007956326,533.25480066757,495.257756466118,522.691451623556,526.829413355195,487.667114307964,422.404020118649,508.879219511597,538.714180687957,527.760494134238,584.07202401633,533.876295703385,523.022448901091,538.242183417895,468.808580107658,671.675320643195,382.217893187963,419.822009485045,486.295965483162,430.143269795557,457.596656946456,373.023286021565,459.148416266024,430.592197918628,306.729847030615,496.190217249229,458.447796928161,590.825944296278,407.308419172683,644.536466028076,598.577252212036,289.04911427426,565.583333187957,575.181853704855,662.479135097534,537.902075856004,537.115042960639,749.511395554454,631.62483743099,718.542078719576,488.762305024663,674.611288434706,588.54221481068,271.402647521418,653.230178054408,726.720626857285,730.366768346748,747.836614255206,719.200413638672,723.654591898918,705.474857585681,720.160801296609,693.49896903126,656.238236055226,708.463256644231,717.71220042254,648.968974162459,664.422261665056,584.484692876948,632.720118979148,674.150208618608,668.333756029535,589.239597418348,627.452250884116
737.806738704641,688.807633715612,634.717138663453,673.951988264301,686.208929695815,620.570889641323,555.058682825748,663.372515895528,678.420235614739,684.892546102855,757.65824475169,673.759475295784,673.488296397994,701.090754273098,601.742461575712,835.532383313781,500.60478309286,557.951390540501,657.28140600248,583.043364517654,624.536750559935,542.810556520238,639.621065356187,593.579389839152,491.241217442224,667.235523712179,666.538902345545,761.850962520962,530.236829491051,800.542448854402,725.25450248874,403.822722164423,701.963081255341,698.092544069774,787.421807238739,621.758145314496,680.239630754904,1042.35875673836,744.798141381854,869.017639082917,624.241802208285,918.324128463252,745.025796287822,471.688905087918,889.86515875789,871.69951120989,898.535168303196,900.600563645052,891.750715019924,903.155626446691,847.959544539998,894.078923179886,836.445762919906,810.467523069959,881.288707906854,899.03580789241,797.621079389569,832.627583190542,718.914545587351,785.704818461661,837.795403225037,843.820916756971,735.907037830524,791.391699501544
677.315078539962,648.715655915589,588.351368531104,638.150901879953,660.059897649494,568.813155821527,528.892375128802,650.896649632521,625.228119504151,659.153899746049,735.527966283086,630.893761175018,640.986622713972,680.723017618188,575.863733546014,774.236771142496,492.637587797494,559.82642704251,650.249699188317,595.031543835686,647.995175198907,588.453459424001,680.906315869499,617.171719992017,603.262635453088,683.268098856504,721.93475062342,782.642020493342,525.659567761969,763.176402755555,720.134454357994,462.182594012623,567.129897904443,598.846879544009,746.092332867558,617.214073417272,644.036076178629,1037.85289851739,641.662999517846,820.119482941021,613.645948823116,959.524551686619,744.432237973409,581.560531299813,906.09502246598,776.922315817653,818.916155116239,804.677511491796,823.249074905898,839.225958411006,766.481542514722,826.595123610723,758.831951772359,744.080382490015,810.862077842221,843.834013203399,735.338236885727,782.104294100267,657.900925403594,726.92606072734,781.232120092488,797.61042895831,678.110105731466,742.880026879604
511.191256586546,503.90988145055,444.824275777293,499.670959790069,533.374389137727,426.15858247176,418.744700096958,536.402552792214,475.32858313689,534.572702054127,603.448257795593,494.444268969212,509.868335502119,559.016027484038,468.54034937434,603.397249607817,415.064965852507,489.308315330229,529.257938314154,524.409074944877,575.624968748214,537.989856821293,623.514903423698,550.236215234047,613.330478886066,602.103584775847,638.87547993928,693.807646455943,456.836656486232,580.550632780938,616.956309102056,506.804965361455,346.664897604932,361.570513596077,557.855297251337,553.300713279652,565.497618114864,847.782510163125,400.365651261044,608.956237244256,534.278015432808,883.856259283941,641.052500838792,639.375260374596,801.807027930306,575.950261693771,625.952398692205,600.359599995073,626.169595516036,649.056139779985,575.113745737221,639.14159381657,570.471493939713,564.438998141777,616.411879095626,661.992249363369,556.075630351966,614.572195520462,493.310478056771,555.922165126989,608.412546808853,633.052286578382,512.049029264183,584.683632219735
394.052408516576,400.429668865431,344.457644007881,401.539262793642,437.344617495306,335.610425929323,343.850282977897,447.542649419742,375.21199659935,440.778429272926,503.575185555082,403.229821423273,416.930882728165,469.541883749194,402.299507987639,487.296385479348,362.232013287722,444.389150612634,432.679719842549,474.108254975844,515.442606501562,488.1994340458,570.382461916956,502.845167782483,565.900676434971,545.480953999528,517.834863744058,601.953489987743,445.19124392503,391.199471017797,476.248482223488,557.365807878127,304.622549674893,147.932333329936,311.808511320329,443.924008750076,579.099404095447,732.156548715207,174.906483274358,343.94131786942,490.152678124332,831.088056931451,514.475758695422,707.970410533385,721.763750967274,430.893331155727,480.785833785529,462.26327483855,472.436166582609,499.772940394838,432.44473441215,498.952997949388,427.745716490756,430.019828219431,473.560798780687,515.576239726717,416.049400943019,480.967445595982,369.089787369973,425.788052406564,476.276271505372,504.224490112866,388.895194032093,463.764657549417
329.19999918369,340.097140116425,289.527808902441,344.681222295924,368.270537746254,289.531702537079,296.577404855788,390.955584093087,326.987645549716,378.307803565877,440.196579968369,358.97535165232,365.512404773199,414.630704503434,371.356143932194,418.756898074583,332.009804374198,412.16080325948,375.837409644941,437.330815851713,470.384226627942,454.313492535519,532.429181601066,474.25784215407,505.481970593477,514.479294539187,400.534645380577,525.558020038259,458.731072013693,250.213068405875,300.656385332233,519.345724873736,387.340640181385,-9.06479126462931,56.3393295740351,241.200739054453,582.534655691471,663.769056736972,-12.9594491593129,46.9489409641123,465.481673122479,758.367372211927,349.377938116009,737.159907432854,615.803107263916,333.359878070318,376.570805791964,374.941781740848,374.237299367503,396.67585998252,341.631500300888,403.494368572974,331.715466289896,344.393642837467,381.843051797547,412.03445136929,330.439474055353,387.806979010928,291.766755494804,343.986609660259,387.093435659408,412.071767702148,311.485509338526,378.651732276934
249.470078064608,258.928302248891,218.697317306772,263.45281220732,275.991563389594,218.146636747938,222.914445560837,312.886325691189,262.073584489649,297.638127713834,353.503397622505,299.178756114642,293.42360417445,335.35077954308,311.692938961786,321.213760768733,280.386855650113,340.098423320224,301.615577257683,363.947955974669,389.293182918473,392.269171027014,461.516099343643,401.443293838256,448.108861644718,438.224326943283,293.48821746691,420.68987548336,392.959131118541,139.44956876405,95.4702637164902,355.416004429986,361.156672253134,-132.918438048854,-188.918825682055,-17.0534499289882,447.707887389897,417.222500220222,-208.36213352103,-279.415512499687,422.684862731778,559.681577357103,140.38257619913,669.005747586705,392.82629815048,219.572336827558,252.879641072268,257.787046239518,264.961919343909,275.886144029712,238.657335005952,282.813347239376,221.276389777528,242.768305791738,266.851230975596,289.971739049231,237.259839566797,280.205901261249,206.908593342377,251.360216639377,278.659352299041,298.185485594482,221.516953852887,272.972438885156
173.723663566067,180.41903569196,150.611741496171,183.788006769862,198.373528954907,145.200134605816,152.729082308156,237.35564295168,190.685523680597,221.744616834269,267.175861486024,232.998588256131,215.717811677734,252.1506650288,235.414176013414,215.916359408702,215.778280542496,250.536868232812,218.702780202412,274.095283871596,290.394303989065,309.786169154038,360.866008427511,297.521831228054,394.622214763916,318.006447743967,237.184620309317,278.517370024308,275.556538944973,60.3411178632007,-86.9862521832483,194.634245059604,202.088818610459,-181.18694421917,-379.112495864254,-172.481096927508,247.482900864127,5.53188858256654,-358.596727693783,-526.631706634109,395.894210862245,285.245886169187,-17.8809439787903,554.739113075697,156.332551161383,129.339795396854,151.082796390495,155.226776070239,169.039984597721,171.908731691045,147.724171721969,174.568742226394,128.195959727974,154.054995899183,162.03181232969,183.544595904659,152.08845765311,188.603591489156,135.457372210679,170.253830900472,185.10296682283,205.073919980176,146.871136169377,184.063895523237
143.831664706195,154.287874389446,126.464436178243,157.51130226418,179.31775650086,117.846609229162,126.322480626979,211.152116585152,151.294448684283,185.760306281672,231.875601521467,196.614445017256,175.528864281604,209.812030459003,180.947954834837,150.173092440974,159.187973579989,182.645505132677,160.933643955828,201.761434073842,214.272957221708,232.680243289826,260.29701750449,211.529920513835,315.117287900175,203.999991243468,231.421324411403,121.70048519622,198.514279475339,22.1979547964372,-198.235398406506,127.414370305388,65.0025388948582,-133.011092834654,-434.833613365432,-175.622427138556,99.2396054154967,-340.350569155355,-363.391447472207,-552.550909811088,363.928874756166,48.9865626532744,-45.5775135416187,437.534308379108,47.3241490035467,112.052060140561,127.191365956558,134.766968697773,136.262793413566,142.505176421897,115.838284599323,142.027114642071,102.126495592117,130.257886446518,129.9855174744,150.422978393894,119.269211040794,161.868266480394,113.699313667294,144.690995976532,155.872743920637,187.818335697639,126.414828653535,163.382757800449
122.918148395909,148.704597434637,113.496878828696,148.520218418489,174.452056891843,103.626191920027,108.194073381538,207.195554646486,118.276528953781,160.930666920742,218.336581879884,167.486790516194,147.954410729223,182.81584554546,128.667767237533,92.9494262928407,91.9682129786448,119.529883003215,107.593082374399,127.767784482213,145.134103406926,141.156041610127,155.765218999667,139.01089207924,186.501967213451,106.93608138228,209.716804444759,-18.1408196476215,153.653045420457,17.6922347898389,-235.554236599059,91.2273502030306,11.0698649726243,-48.5299466075469,-316.725500280027,-148.819719363606,9.70413112359338,-519.651739687233,-224.325252718665,-366.439280419928,244.184246499545,-120.692402017201,14.8395385473633,277.153291967411,11.9184511071235,112.076437796759,131.164799637424,137.162845455601,126.253521970811,145.198202773255,105.925878808346,141.891026103225,101.020677983399,129.857755936721,130.950910716415,149.952764602431,108.249016913489,161.095904430969,105.935092642116,139.624352129781,147.353872209625,192.751617168587,118.768508133898,164.943314968983
53.6028651995038,94.7575507994226,54.6366954774148,88.1127357709105,118.637376953041,46.900374241014,47.3095621637472,162.133029763134,46.5408950031836,98.2328459369809,158.054088233367,98.2725828431525,82.3404270365728,118.375627900112,43.1495463744367,-1.3937889146964,1.00648613197556,37.1098262588333,28.8537283735485,36.5023164999491,61.9009591650626,28.1779028348763,46.8228453333535,61.9379845216259,62.4195602409655,21.8720431229824,149.904626572796,-100.334522390487,88.9152191245607,38.1712690155289,-220.424354560347,23.4155177189948,-40.3804777075547,23.8316883825682,-122.033632299999,-159.637142266085,-84.9196154561719,-629.096250893679,-52.505695499057,-150.269069033601,60.2079283238958,-250.377243025937,47.6879184782958,60.7425781324714,-107.924120908556,48.0802359790631,71.5021409740126,65.111775393553,61.3479292677637,86.8063438662737,45.1620365795471,81.27364991626,47.0519432524022,72.5892347966692,73.3734629362361,91.1660045689654,54.980444792793,104.997020430842,50.3556654571028,83.7584432919277,85.4509204657315,128.526176166195,62.8039226233405,105.673249721483
-41.8640619364748,-3.78213498809672,-31.183770698877,-9.56647968619611,22.9338363241841,-33.0376748577956,-35.0618084301482,74.6727958824259,-39.6357174950484,11.3397005181823,55.4642668834422,10.1214688282979,-2.37192551760666,27.7626513832228,-40.7832147613678,-95.2780327158483,-61.8740043156865,-25.277161108557,-37.9711761088917,-20.0751515714402,12.0235724117963,-40.0215896936552,-4.32963002103256,22.0946499882594,39.9639285496469,0.770205507489945,115.885782700015,-79.9158108670965,46.184656463787,87.5891234041621,-138.488909386113,-34.6388934761021,-129.243676361901,96.6367679571889,24.5935502678649,-129.590891048655,-204.562720430944,-733.456542019605,68.2704757781044,-31.5112116958332,-75.0289917846264,-345.404563750388,4.76006177155812,-131.994740822976,-341.463009334629,-65.1628440810081,-53.3813509217596,-63.3890588954762,-60.3028886779285,-48.5108497321426,-64.7083973451357,-49.43505176319,-57.8117886232031,-39.436925605803,-52.8053436134435,-44.3686948676533,-37.4830174380698,-15.5612838408407,-45.2755706733319,-22.0793847816221,-29.4793760775816,-5.21765151502914,-31.8569748847111,-13.1675938115673
-99.9481494930256,-79.7163739520769,-78.9928006516544,-75.4828800621882,-54.8957482008124,-73.6784436793358,-79.312961120749,2.46063658090819,-78.4780764937036,-43.063100795493,-22.2830896764884,-27.4597897714492,-43.3856965066726,-31.069358506255,-55.2007698230294,-118.650600674217,-42.4038578011448,-12.7619729496275,-35.9016762392191,10.4905614364509,47.3234590505468,-9.32655221163801,56.2882719754828,68.3277291489814,132.204527615106,91.8223828585063,148.251502885716,43.0430740475086,97.9801447907951,162.323866392573,18.2554418711219,-18.2054372881459,-171.506874282389,174.607182716124,119.69625985617,-19.8551476867257,-258.798508941017,-759.474941718772,145.596915445874,32.3999224472805,-127.496595659836,-382.908570115038,-56.1680057587507,-235.925490584502,-557.679375160253,-152.101799897016,-171.577842852794,-161.199276606098,-173.538237651538,-186.972850368788,-154.403158196379,-177.249668470954,-143.332775499268,-132.403881503015,-169.737084934854,-187.305427046813,-112.49576578413,-131.756899576936,-115.287447456544,-111.020542169924,-136.229663216431,-133.758523002722,-107.349292881818,-119.735304092185
-130.720828605916,-121.86977846592,-95.9776797374479,-110.10156309122,-111.461376606161,-83.5078859133316,-93.8369230980225,-42.7212093321057,-84.0342963793456,-71.9384222648194,-67.851722206526,-21.3108634795131,-50.5652747320461,-59.3632144093954,-23.4307862724225,-96.620289450995,8.6852211789094,36.5015095733301,0.778635847755717,74.5068963045289,110.816202389999,54.9181606083152,155.595238342312,149.670493198654,226.452886783232,222.972625655367,186.787317121392,168.198277660695,199.758662149528,218.392559856928,159.400778998629,48.5083109027246,-134.901875996345,214.353342747078,188.000456258767,67.6705135862841,-202.479848808226,-674.934756028118,192.551435025403,82.4536132725566,-170.005276125109,-380.576656668346,-100.894710066673,-297.28922046599,-661.758445088476,-204.994486674892,-265.670354193405,-222.506234582546,-257.706393552383,-289.525871175388,-205.063087547531,-271.401862795372,-191.189868568664,-187.063760483903,-245.670034278831,-294.403555224202,-163.15137295698,-215.708457544106,-151.931317913518,-168.914345263609,-218.23037913687,-231.935846780301,-157.181610040275,-195.973142715253
-196.853099974842,-187.819574323412,-147.23094880377,-174.695166813567,-191.976482018687,-128.384468992813,-138.742565310477,-108.103210792633,-129.029428218352,-136.835423498684,-143.695294683374,-50.5552513878195,-97.9395985169579,-119.403956293327,-37.2795502733955,-124.773028551575,-1.55202963827635,28.9019310205946,-18.3863442584656,72.7528634060282,98.9638046373225,51.6119810980323,167.217305930537,161.925438405213,225.11641860296,267.472782038773,169.685661743774,186.831784726684,238.820919595374,217.718234383981,190.842275268547,76.5238136953307,-116.613330505808,196.804135168172,197.570577269335,50.2918239842715,-152.724987087924,-579.687341047167,189.912753981966,71.3491759522455,-252.328299961859,-401.200541763683,-169.54751028964,-381.227919812955,-690.122032684697,-285.475583466548,-383.789201363914,-315.52216480161,-357.212930204214,-399.446678511318,-271.723968307959,-375.345809377244,-252.673020803415,-259.171648660226,-335.798258495424,-401.906786086725,-238.481425504801,-315.38793896977,-216.473093179059,-247.368858928931,-317.336641999022,-342.646784811825,-230.105202751331,-291.373417389731
-300.526895160451,-293.796192106526,-240.853714387094,-277.747889985574,-301.625707002446,-217.208699578593,-221.552894554396,-209.601770123392,-224.648079278508,-243.631597805488,-265.960436657412,-137.498187693566,-200.827244512387,-224.780607195066,-117.940259681028,-227.284443404364,-73.4955938015889,-52.9406878356588,-109.57918633923,-5.56914370337896,4.92062709237099,-18.2681755905186,75.8907580197056,79.2939178503047,153.444932573701,192.252445229299,119.257930190362,113.667141675171,176.542775519656,177.58669073777,134.726466233326,34.4254204028013,-163.540770095987,154.7892859341,139.56290151292,-31.2434155297525,-195.119097941929,-533.660847165013,136.526738676359,-16.4290027689716,-337.568792369816,-448.633736392323,-273.709306751184,-460.141842567771,-675.323747839082,-404.534954944399,-525.793431690775,-448.092720199127,-484.31780597985,-537.511141890803,-377.809814031716,-505.168882982088,-349.266880484366,-369.896639917402,-464.186536583364,-532.812711905522,-350.814500848426,-446.722748662369,-324.872811665271,-358.807059646941,-440.444922026199,-474.399115138912,-338.624046981451,-416.715488672429
-374.491663056028,-378.422480239747,-313.334702263708,-354.005209943531,-385.607063884704,-288.470289813823,-285.63464758671,-298.792442703579,-303.498434076071,-327.481636100568,-362.550502773862,-218.605918956586,-288.753723982235,-309.938702467596,-195.569217008023,-327.381283986752,-136.202751634257,-138.379701467813,-200.815351050418,-91.8068550529141,-92.9631147138058,-85.6905893640118,-31.7693639268933,-28.7603570829025,76.4262217704506,70.2667689140914,67.3161762712585,35.3225880465418,73.6292622905307,125.57953038506,64.2900208199773,-13.6358793156108,-196.836360077762,108.648175251782,66.9577467683726,-99.227677687067,-241.122780390823,-468.039676298973,68.9825111195503,-105.514518840927,-364.416608411014,-444.726043460255,-347.356317143742,-455.617647376916,-574.866812453539,-483.182529744596,-607.554187236466,-533.819183577141,-571.599064705783,-632.111242556676,-460.88020558393,-594.954022831152,-426.180061802299,-456.22922883043,-559.335667103696,-624.336819065756,-438.097524451382,-537.849361120005,-408.832517225547,-442.701789911894,-525.231996668532,-560.88175638243,-423.626029934631,-505.417451147874
-385.394962116442,-395.795491807244,-326.735861555697,-363.797876127355,-405.821837616979,-306.19938348011,-295.747428516953,-331.383715165833,-324.742782482614,-348.634461619031,-381.344637448456,-247.068836214968,-313.401595883755,-334.149684508542,-222.612263267061,-366.482761679328,-160.350371077854,-177.424110751593,-241.638252733413,-142.790363940529,-149.843562550889,-127.025264481489,-101.245311807283,-95.9736896327532,2.87378015106322,-20.2420658121494,-7.29286125953454,-20.0552520917355,8.09381911845444,53.4213761036896,19.2101904471301,-13.9274899103826,-167.063763918821,48.8196429333859,23.3638160210353,-114.629844985182,-197.317772464673,-339.48735201078,25.0957435628817,-123.404056404284,-309.221866618507,-352.233294677442,-326.712218630207,-341.127810423088,-393.599143434936,-467.930444786462,-579.228590708824,-519.030955732509,-563.757656291889,-618.899113836691,-462.403508714343,-588.142319157583,-429.410583604617,-462.742988424956,-560.478739408085,-618.158335983121,-446.076794483687,-534.480883677785,-414.737497347417,-452.205388522613,-527.9096715858,-555.997954947493,-435.057847196427,-508.421634025137
-371.252405755783,-373.400987663791,-309.666151670918,-343.849089010049,-386.806545370634,-295.162712383019,-277.031127377145,-321.838732806838,-319.854362964911,-336.715635491723,-365.789447898278,-245.432667752375,-306.126407075362,-332.720789071928,-225.299811186597,-370.476369454282,-171.412266335456,-191.385009347025,-254.073951975669,-170.426347691039,-182.654247139052,-165.796683063403,-144.806776506468,-124.835239758564,-73.3046470045901,-60.9820945960276,-119.366228422916,-72.0329102079464,-4.53872121301814,-46.8721939695438,3.33285319257667,0.574292993810977,-125.023048615328,-24.7228656943479,-2.78843713949336,-87.5267522600054,-110.541164483719,-214.019479637078,5.43435281413088,-86.0273037946189,-204.670872730246,-240.254163316806,-234.460651550975,-180.094329669128,-231.109934614746,-408.479052803049,-502.626421492944,-458.482629230766,-497.363364711874,-540.566267412201,-410.33123065209,-521.420406849994,-381.360887872925,-418.628235669784,-505.212979897018,-552.409153434726,-401.984669079344,-481.111959147653,-372.463984726717,-415.309902005649,-483.185537644595,-501.945431228076,-399.284800358762,-461.875173244462
-366.7938502863,-353.006887027604,-296.074021715669,-335.324345312718,-366.212206477014,-285.90063509718,-264.797004554649,-307.465242342304,-322.61343262416,-331.71908070031,-368.893828991153,-250.004518798032,-308.808747218331,-338.562059095966,-238.967519000755,-380.71475121151,-191.671344822038,-215.491187122151,-272.207287057829,-199.787372773773,-213.766504033032,-213.803342879,-184.307569058055,-152.390748920087,-136.751793049589,-84.5804676489868,-241.875987614932,-124.737973171834,-17.3236292452848,-153.146066598481,-28.5815672916732,-35.8785671555841,-117.450552509152,-101.676869623005,-51.8001711005477,-81.7841143377298,-76.3230508662095,-139.792391141992,-22.8236793946516,-73.152753945553,-131.434505709642,-189.556673687012,-165.295152825306,-82.382911904297,-157.471843019758,-368.931273959681,-457.076583085211,-415.027509006449,-440.700795761625,-476.033084071895,-364.964057013534,-463.291654328915,-339.707894035925,-378.877204721271,-458.23686200287,-492.615040098982,-363.619886825801,-439.675519127391,-338.497097859646,-383.495165277268,-441.829018013286,-457.944350188047,-367.793371190356,-419.61712157199
-375.726484789605,-349.24550899116,-299.420199371226,-343.494105539859,-360.589846203229,-294.614623939237,-274.688093990008,-309.362047298593,-338.476061392928,-346.920947392526,-387.792256852777,-273.83607503478,-329.124331720573,-352.929100809607,-272.770452587364,-408.398943915658,-233.836044838336,-260.251968633951,-307.726485256132,-251.940349586936,-260.441533773976,-277.946577175498,-241.828895934363,-205.275266484708,-201.670663293018,-147.43920536792,-355.108485615539,-197.374004642699,-91.7951909368977,-260.719321265932,-143.125026014634,-146.899745559062,-155.559506897736,-190.460451220638,-161.100854708419,-158.823059889242,-133.198221385656,-94.4349171454861,-97.9464113256165,-150.452598563527,-157.636459813654,-205.348697281996,-194.651494300992,-111.297801343648,-154.050558376354,-351.369407408803,-453.848339226042,-383.177761320137,-423.86569030356,-453.028974428326,-352.737958231088,-441.207547623709,-337.184950787624,-364.501988845465,-441.211226272847,-459.923253803798,-356.335040174045,-421.868518192841,-337.09758667636,-378.058389577535,-422.744493382975,-436.521321602293,-361.644282005264,-398.584306355297
-385.705061467871,-352.796631058762,-315.224876239561,-353.347011413553,-361.674813297552,-315.725320987982,-295.899505645578,-320.970269992494,-358.683741507212,-366.554139006817,-397.668789935877,-303.071657734479,-351.023862000102,-368.736305574397,-312.788154280588,-443.671831665173,-287.547944721187,-308.884752123831,-349.505366013443,-318.700652729028,-321.989020364287,-352.211151880066,-318.786666012212,-271.970660844448,-281.526143008142,-260.543939293598,-442.037057491648,-304.455836187953,-208.605601524435,-374.867239381452,-300.738584034017,-269.363541993952,-225.360624241509,-283.642759821371,-311.161640699353,-261.231297637319,-228.364401161569,-50.6499475793784,-213.213705121421,-287.656227180181,-246.062000035265,-229.043598572578,-293.68902064666,-202.057013788928,-160.668692842574,-326.720296634061,-454.632521917588,-335.018430172582,-425.90407410629,-447.371694910834,-356.31310291553,-435.922579447251,-359.598432286998,-362.654880853881,-434.068339620234,-438.723522932854,-363.506240272909,-409.231629858756,-348.065021464036,-380.916192208097,-415.185799117696,-416.416646820966,-365.354084746561,-385.48207040827
-370.827981581476,-337.169922797595,-313.931343112044,-340.347721522261,-343.534689781223,-314.944834075711,-292.6449181225,-315.174405870998,-359.322341210779,-356.994854852234,-380.565891620653,-307.118873415623,-350.564153602458,-364.673899285507,-329.122440742018,-461.549538890368,-311.022570836878,-330.764694457786,-365.942993113348,-357.769239406806,-360.786551778373,-395.906779869438,-372.81341777131,-311.300912046585,-335.072067411522,-364.263855483826,-472.043789355714,-398.42983625175,-290.22152733628,-455.816749333227,-379.221596132076,-314.960531126985,-264.206601686878,-339.263500553268,-415.702488633526,-270.212933549794,-259.099643808352,1.46114189199855,-309.160011487441,-378.438805668597,-288.011419823099,-210.767915755641,-363.240463953487,-248.243013756578,-128.380787728939,-283.789310679933,-417.808288231128,-273.156630995041,-399.009022279587,-416.476083653465,-337.185567757113,-405.201437325606,-358.74117830071,-341.549447731656,-400.522731086947,-397.904202422055,-348.39538263923,-377.370547820038,-333.442359295378,-358.368352164934,-386.564894529076,-375.152614966385,-344.347395877025,-351.134725592368
-330.490324517859,-298.509728332206,-284.755872776138,-305.498759910205,-307.188371709471,-284.583103879138,-257.934338248217,-289.765739194067,-333.945421721383,-319.774544276397,-343.628650761086,-285.243746484802,-328.301617554396,-335.461134109551,-318.022802228241,-451.624752018239,-296.47807249054,-325.139641814316,-350.610047592677,-358.022100192999,-359.287347806088,-391.914296245331,-384.434713641354,-321.77671826472,-338.356404861726,-426.074921157338,-457.472718228818,-438.207047107626,-329.38244076943,-472.0425097782,-353.425548830626,-301.46584645685,-247.227208359248,-353.185027272585,-423.992188121019,-192.189431368569,-214.444355401915,31.3372170771396,-352.802662657836,-371.269609544749,-256.610409286587,-180.949750403332,-353.78973342503,-262.48699705559,-92.3607661720574,-244.674942399941,-343.839049988362,-233.032279458107,-335.498348854122,-352.323410126265,-292.781974691011,-340.946406958617,-320.692632433462,-295.367828066458,-338.78283738153,-333.791651292221,-307.07242525743,-325.146547812356,-295.872213413385,-314.076170816154,-329.941353778533,-320.45400681771,-296.679874786531,-296.188629439355
-300.748857102418,-269.548610418391,-261.508508398057,-279.813739922837,-282.731524935938,-263.971552962087,-231.588535839978,-275.16519270686,-312.217729391553,-296.680741406313,-319.350167292783,-273.492010573063,-311.913656865098,-313.704310940887,-309.326401781863,-436.504695674948,-285.947654944248,-321.407833606365,-339.877898440371,-355.89805404832,-353.199046738083,-377.635110832793,-391.388411188788,-347.844057967237,-328.330723852973,-477.909428044957,-455.591885600728,-454.985062137497,-378.653647421788,-476.700497622993,-288.535216383857,-302.34070053038,-245.568919359204,-379.144417126667,-372.999767289991,-123.931632902795,-187.57290429815,-22.689614546166,-377.387442464129,-306.99163962512,-218.654446286816,-206.956746577083,-297.708857132942,-309.357865360333,-156.287282667407,-231.500005612638,-274.666965825906,-235.930907832291,-279.649831397244,-292.034757999071,-261.248051557195,-285.545878775698,-285.531080791639,-256.916163176864,-286.053305271149,-282.064406213794,-273.711198090805,-281.250754191142,-270.6864137629,-283.462612687039,-283.480557419263,-280.820824291293,-261.899826863273,-258.295485628805
-291.306388821367,-259.721596142903,-258.088307630373,-266.368151879924,-269.410770247121,-263.656286183783,-226.112734760896,-273.143028123702,-305.953058440772,-294.324960885782,-314.535095085,-280.577960421467,-307.354414896262,-310.084354763881,-311.123608219054,-432.656027049716,-292.849819883485,-323.372066594193,-347.114235991254,-364.729142588135,-365.349394389551,-371.291019964326,-413.584853077132,-392.188687508838,-329.472894856228,-532.473625867469,-478.316709883717,-496.102567322047,-433.538322302049,-536.808157355475,-225.069147644646,-296.849662612265,-288.170897214132,-437.933372380829,-320.937691044709,-89.5667923290519,-205.513651841928,-136.804093529836,-415.745463661828,-235.74756611835,-198.556140034326,-265.460352834999,-236.698240931997,-336.105707459287,-310.821591786421,-224.9313632874,-231.982149528732,-244.663607602752,-249.172695593547,-255.516833572932,-250.03720739279,-258.583776803142,-269.529115827585,-236.754392807035,-253.982749248673,-253.991467103386,-256.186025862001,-255.04822728467,-259.919079525887,-267.40865728921,-263.512258286157,-256.672158709687,-250.531781573661,-241.061746303967
-264.895055165743,-230.684154049535,-234.832617756826,-230.136563235667,-231.801406935684,-239.174666875008,-199.773120997259,-245.484700006905,-282.350171750956,-268.287757896173,-289.344001330279,-269.195793714206,-282.023257211375,-286.275764692156,-292.664925598541,-419.164988962888,-278.057290878887,-298.427425495563,-331.876011731121,-347.052461298391,-361.923281756499,-332.788453742727,-411.572022142978,-400.241770494764,-307.714652319827,-555.284489413709,-458.499543941918,-564.407007958008,-442.707342769257,-605.27563199022,-206.517005409226,-218.771687726212,-283.64479084222,-469.908661613174,-290.891857777122,-60.0055088423037,-192.734747607097,-166.066600118378,-440.765813029757,-175.674944688885,-157.75040092837,-233.109795808611,-172.547407389559,-223.475060336094,-374.673121160153,-189.492397754687,-192.001752493139,-209.745087318889,-208.857261671342,-215.584135197322,-221.364246921088,-222.365994434461,-238.381392579226,-202.5767354286,-211.868603344087,-213.080677971231,-220.218697785144,-216.533426802626,-228.065219387009,-229.713938202245,-232.697735206938,-215.113277209392,-222.307865416692,-202.098205828179
-207.979109858992,-170.990136265919,-177.17723858023,-167.68179563519,-168.364989676911,-180.444102108753,-140.112910274693,-188.275925995753,-227.897098889476,-206.698007489099,-227.950178763266,-226.346186074764,-225.335440099589,-226.390055039232,-241.745316500858,-374.495820692477,-224.418799053306,-237.958571637314,-275.055999634607,-282.207172267294,-314.631519862511,-244.065155262924,-358.168243624218,-352.035809090384,-230.393828647074,-530.069508809465,-350.113037615696,-625.44050816573,-413.764736518443,-578.923652976798,-297.969962709462,-109.568203994031,-188.20909175981,-433.564344569139,-282.254279368349,-60.2231633032414,-140.867403673062,-27.5767676380847,-420.557739578208,-140.375420327254,-107.866515187766,-55.5436349618306,-101.22375665672,17.5359821958627,-227.258075470528,-135.716288064045,-137.79906102062,-149.28245445629,-146.088862475806,-156.237389117895,-167.424672334563,-158.85125034799,-183.864030431589,-147.658487382566,-152.78768023055,-147.903828084433,-159.375445876767,-157.859804993535,-168.907281870504,-169.190357866104,-173.755414262367,-150.681999084186,-165.920556320561,-135.7058016045
-167.013222035941,-131.355909935927,-137.50882797171,-129.516850345229,-126.757687915432,-144.372458956553,-97.9868786342937,-149.909639019244,-183.570321317221,-159.18008943096,-179.74623298076,-189.675685004584,-179.586809413802,-173.69371666369,-195.146489664521,-318.714178340415,-171.380305841365,-182.534848458046,-219.507035917294,-207.943192092702,-253.560517913009,-155.878050862172,-284.658900239623,-291.587756662691,-120.006655340746,-476.463491498152,-201.979742496817,-625.193094445506,-403.466927831264,-457.879911261829,-459.189402938542,-83.0672629196958,-119.233496854725,-371.610048013727,-282.153561131081,-129.468669629185,-154.35243291165,150.083786162773,-378.638683728553,-141.945173036631,-118.706055265584,137.577785550713,-51.0674622770483,227.931758060842,12.6124409133946,-110.355180864551,-94.9629482261944,-121.409977038338,-105.644684598683,-111.498656699627,-134.544935447552,-116.227482359651,-151.809907664459,-118.084526499442,-118.432647556639,-106.255230344656,-122.617212390267,-121.804860856241,-130.075227546026,-134.065102484019,-132.397065748436,-108.990170923958,-130.826844746298,-95.5958114569724
-185.573458863426,-148.649350316138,-154.014787264311,-150.479159091027,-139.257486091497,-162.148445050258,-108.347583178971,-159.652990511396,-185.114913922488,-162.931573992637,-189.990686329403,-188.036096960022,-178.644554362688,-168.840151785696,-187.095309918386,-291.029202447875,-153.865175613612,-162.575463545635,-200.81356908375,-162.819282394875,-217.085336601682,-108.671182789527,-222.434167620982,-249.623732722392,-14.8911116718516,-399.971110688605,-79.5648083991869,-518.348796397622,-401.443259747446,-319.0310660443,-523.718779594662,-149.337402148724,-169.612994425033,-313.872238716483,-258.67726823313,-218.855500738377,-258.857783471933,177.881808648294,-340.65697387105,-169.733395383669,-192.561466157912,182.219922413854,-53.2152058289555,299.850369209966,140.664504129293,-132.839403802762,-99.7030532719903,-144.944561562269,-126.229211302876,-120.554226203374,-156.612968268183,-140.459699733365,-175.373343268554,-145.097535362224,-140.340720492922,-129.796625333101,-145.628989112193,-140.02314514486,-146.913617487298,-155.019144721055,-150.325040602762,-128.876883343828,-150.878543734353,-119.845270322526
-230.826945453331,-185.831735481772,-184.162411162509,-192.300183059296,-174.959492743036,-186.021774285204,-135.296338207372,-187.398188183822,-207.172261125992,-188.911743762776,-228.00980728477,-200.306678986021,-196.180681146319,-190.544750593643,-195.175240321616,-289.015590213745,-148.646959803759,-153.161250068749,-194.227858573017,-133.681350940037,-194.079717648118,-77.4858915376294,-164.221737868653,-207.056011107009,65.7495728916038,-289.893077370854,4.98591181933113,-328.652036982492,-342.510258673705,-205.570214981543,-420.063217347903,-204.79265449859,-250.729773412712,-236.545578485587,-209.996864179461,-253.128947764337,-336.936565024486,58.0421885191227,-301.788225828824,-210.576441790226,-246.29223818516,80.7839059792888,-111.190848067994,257.250535206513,111.561138593598,-174.884962273615,-146.375937651468,-189.476509012382,-178.842839388753,-170.757321073322,-205.500601483442,-200.354427099732,-224.387871961842,-194.015703771658,-191.084949899543,-189.014876807727,-193.385904381982,-183.972561001683,-185.390521790652,-199.640788242349,-198.132952859789,-183.767480104129,-189.702345453606,-173.785513037666
-220.816261519945,-176.933441218563,-162.059110635085,-183.094989670149,-171.921428672101,-156.807203082013,-124.085195603353,-182.692703634182,-189.813513898525,-176.293114728426,-220.072062956894,-177.758478287165,-178.020750078849,-181.015309042096,-167.601206413712,-254.773293943746,-113.154153967774,-118.804260500563,-154.097855675573,-93.4481128590162,-154.074516382715,-33.540292343764,-105.01159723269,-149.845837917344,89.2391727235299,-171.484190612216,39.6432181318458,-157.656629158929,-238.559162108244,-155.489886937116,-294.393965297356,-205.605309652865,-262.274280824595,-163.183189459425,-222.31546371245,-262.584935815703,-334.819520402537,-59.9643673688844,-285.049195546691,-276.738292209053,-245.327352231615,-70.9576002520997,-216.319370899576,122.974603407722,12.1043785420417,-190.513322008927,-176.333249282424,-207.009883554978,-192.981160706537,-198.351231317315,-220.852307422081,-217.773051353277,-235.298003449883,-204.081708949197,-205.117640065431,-207.314986361382,-199.511310216449,-193.275725506096,-185.972970623789,-205.069117157576,-205.535581149205,-200.288103205451,-186.465733688641,-185.041442641314
-122.668893775367,-99.0275569133564,-79.4470970464921,-99.3346674475285,-102.078685493422,-69.2007648258476,-65.4473009725243,-125.650475323149,-101.473698226611,-97.6478779386271,-133.083601659655,-92.4148562489621,-99.2913185279869,-109.003699924436,-87.0589592573683,-136.830111564305,-45.6315023942728,-59.8333357783434,-66.5957753278668,-42.9875359927947,-92.027585403895,9.47714097662134,-58.0870730744843,-92.9413081656728,25.9597446091393,-91.5553314562269,-1.74687410498608,-81.6872441433911,-160.440611690646,-207.229643109553,-287.186590735706,-197.57005071598,-240.153954920577,-148.217177625708,-358.602554529485,-303.501913984138,-323.097547368485,-121.361220938563,-314.161300821454,-351.953995790541,-232.689478400021,-243.687416558807,-322.590994727945,-101.288862988899,-109.445837595681,-150.641204094845,-131.697636453403,-157.997546187698,-133.090500358851,-144.480235958285,-168.802420458651,-152.332764463434,-174.80588227581,-150.492032405507,-139.778801261638,-139.17254028423,-139.582608545641,-132.588808448556,-129.201910530704,-141.732478970799,-135.10698025026,-133.525597196386,-119.022385491881,-120.333755264572
17.7384869349238,15.4802544708979,27.6387072750867,17.7266838585906,7.45078742847708,44.1576876299999,17.3864469986358,-33.8191239457476,30.3915625161648,16.3040413478694,-6.90418076681907,32.0472041608999,16.19823987523,4.03288296405125,18.8293908021587,36.6612576880691,31.8776872212849,9.62039378514272,41.3596788791466,10.2949391059088,-20.1112441700851,41.8112203531596,-23.4146219980359,-44.7209756767383,-70.4554473968509,-50.4164844629858,-69.5879665724883,-64.3799169336256,-111.838541877938,-279.415341345309,-316.004545707747,-182.374647294128,-217.32615631908,-141.88696530191,-483.245933587977,-309.137065303333,-304.00928735741,-194.028999078419,-309.115241536435,-337.726460531476,-218.030475370596,-411.792720255285,-330.4191132602,-311.650451995798,-228.435116291865,-63.6019629084981,-26.2710589313152,-48.907568091031,-27.1349811105695,-22.7406986987383,-65.0427610562735,-33.6328154665374,-62.1059297678377,-54.1539669708409,-19.5487933624208,-13.1064847406294,-41.4882787306809,-22.1488184229297,-32.6609715043259,-34.9720192154865,-14.6907815048733,-13.1442165011126,-10.2501413695022,-10.8230292588707
107.27784753642,86.1201179473706,97.0351797454748,86.077639529537,74.0720200500309,118.04689911708,73.5415623553599,31.0669340783897,114.004762071829,81.0972919846302,59.7180170817662,111.238756304259,89.1209585314389,74.7453911117702,82.2246860115849,140.453875245998,81.3171179685623,51.6558498867287,97.5669008553417,41.1998672144004,16.4473546189843,56.9443339941031,-16.7712644173006,-27.8762434566476,-117.690839772379,-41.406250128199,-70.7748538549512,-48.3604078830753,-73.3299691474997,-228.601582876699,-248.879376110204,-142.132356816382,-162.389956161139,-64.4408800446752,-395.462366362273,-213.678259087254,-217.169474776407,-316.404237478547,-179.639433387113,-178.676726250141,-178.746489256017,-485.370612997062,-218.33674955441,-378.779487882832,-290.186827586899,6.09565470049658,40.8061817517228,33.1606559867558,42.3383663158273,58.8505420130012,15.7445309267574,43.9089038192788,28.001280219419,15.3858663866888,57.6971559420587,67.3637326523692,27.9846966315249,51.5178449980482,46.1682125233686,36.85192007208,62.5757363983035,59.9894365842964,67.2985560152196,57.0724902945916
70.5510637745056,39.4202333339771,63.56357874551,40.5404273692316,20.1925021673476,82.1297153249301,39.0242684808379,-3.1629149934757,65.495619906717,25.3164325139212,-8.25822549683648,69.5171307837008,43.0001866176074,19.2891556164053,34.5941440201792,71.9877158236189,49.3297854836472,5.2128748399594,36.5331200508143,-0.0544514883606187,-44.7291668219996,19.1494750123099,-83.457434443981,-88.9347009132664,-132.627522165772,-101.302168880211,-18.7759915814703,-62.0398152444176,-88.3558229345753,-79.2462189553188,-134.42596118112,-135.23192720821,-105.075434454061,26.1720728522719,-133.515154205465,-100.693485543619,-116.282974517014,-430.550037263356,-4.43753490913399,17.5961721415287,-133.855827653174,-427.343924838202,-102.68483553302,-329.061502530592,-288.871021880835,-13.5389397043321,-12.2508497954726,-0.542491824875967,-2.65143530807663,5.03996886010476,-6.97456654140696,-4.96142253187963,13.7075470616248,-15.7085723053359,7.76292885469154,11.5067949537919,3.84848097160591,3.0621857098088,34.4486233627765,1.21895690048788,15.014238941532,1.48152547694478,36.2477071057173,6.51753634110452
-48.4058161754488,-81.5189923378575,-41.4047639727173,-75.5813760082184,-108.520087579284,-29.0851673876202,-63.0940150509129,-112.213039648991,-63.8128554974546,-102.141223433935,-152.549854722909,-42.5384916155802,-80.2420613808198,-118.940710955295,-85.6969804376045,-93.1460652517071,-42.4939049321969,-110.504014530929,-95.61847568875,-98.2307092674979,-174.275760154482,-63.1409971059757,-202.766129788951,-212.932231385614,-170.789640077705,-218.191979521513,4.68431718005433,-129.334231505003,-172.043564753816,19.7426219514984,-78.0041179987976,-201.255972738095,-109.475893887606,59.6227054391551,84.1808849081754,-54.3027861481086,-94.7236243253983,-442.961296681728,86.9014056847595,130.623340798768,-107.091955956097,-306.962696321236,-61.2077092783342,-276.764461503002,-273.368514013417,-93.0118115997012,-131.040405654589,-106.078333074831,-122.53276414501,-127.766083474898,-98.570859846612,-131.250301242528,-75.5431485857875,-110.230360810052,-117.48522150729,-126.027387644678,-81.8843148574841,-125.481417361419,-44.2213822294157,-93.9458330873132,-107.71624542946,-134.14615286123,-63.2659924386631,-117.319342852078
-129.317931668844,-163.686008398567,-114.204647886935,-159.841146237104,-195.824585346343,-103.499093956044,-135.631365068622,-198.509402541687,-147.228727870699,-190.423732556971,-253.976645413647,-112.55571058631,-170.900147359485,-219.239779023859,-167.658194322016,-201.539564058558,-102.073040302704,-199.98418087972,-193.428800830218,-175.192963025715,-272.370109203912,-123.757672763287,-290.925668080217,-323.212919528414,-219.149399212356,-312.095376555719,-7.48071959914412,-194.018057041744,-258.007340429655,33.6785336732911,-64.1122993336312,-272.403425247638,-163.231182304985,101.124733358777,172.352264389566,-26.292377869608,-125.034748061925,-345.229865357686,120.013484901829,186.959472827226,-89.7181135128289,-204.841309997481,-44.3547441899895,-258.683363129854,-260.814006123592,-140.400836391667,-201.931462605941,-170.22906577569,-199.047238735293,-212.879361021882,-151.492596284698,-210.88756268926,-130.832500192404,-159.863366661689,-197.46630357389,-217.36852773961,-129.370635708946,-214.524061364458,-91.2132634222035,-134.055603410557,-186.306669683321,-224.720667703869,-113.871582011131,-200.554599539245
-144.658219404003,-186.158362681951,-134.313256586498,-192.749409543974,-222.360359543395,-118.508601523124,-153.861025847141,-232.897039307093,-166.63773428372,-221.736462213051,-292.386284426701,-132.411290150319,-206.64547710688,-255.209435549264,-190.180414863746,-233.606913548828,-111.191177057215,-231.256858196573,-237.17127112102,-209.056137475627,-310.43285221734,-151.070192709556,-321.122900437579,-373.432224605582,-245.034970716918,-342.903996734026,-24.3493583267418,-206.301911455335,-283.092740925669,38.5380489177216,-13.1640469404953,-254.499354525401,-202.048589975931,190.180011197035,231.345120800269,63.6508006636723,-111.802148873644,-213.207985227864,187.793117111278,277.153304840942,-66.3667150333235,-135.671786784395,11.4911763398217,-237.7861140717,-224.972016442934,-142.381220250874,-210.523641012092,-175.579265137598,-204.805984730119,-231.321464422934,-151.665351953871,-222.394731029043,-129.382932086126,-150.338096334636,-210.324865365668,-241.859484806399,-120.0129293807,-236.54182656835,-89.8469938118578,-113.850393579057,-198.107238663162,-249.387845020304,-99.7575685446787,-220.9265202522
-161.557688533992,-209.171466119343,-159.805527462716,-219.257591706434,-245.650624965539,-138.943502706922,-169.245271365602,-252.812033410904,-193.830653557191,-248.050761163234,-319.427415450459,-164.432729306739,-234.37466014777,-280.054374254417,-212.280974155136,-263.215359536993,-130.182490837872,-244.978399584118,-269.530264107232,-231.765299345117,-322.934471238048,-188.07815329979,-321.536400977874,-363.920882356013,-250.541702830852,-319.440118958292,-65.3655710841165,-173.700189698098,-232.533222626617,59.840243608977,103.793130004963,-128.832057475254,-172.537001972796,243.195441537605,338.653093109589,210.438041110504,-12.7398095477466,-67.8489905381177,284.595829241117,411.166834220987,-30.6785573442302,-59.4963670633661,105.297200283279,-187.742008403303,-150.658862555692,-150.843601816077,-216.888161555842,-180.736053824407,-207.022383907255,-243.95164294487,-163.069846713154,-230.784287666663,-133.716016130576,-149.924244355541,-218.055683295102,-259.124705248826,-119.273009814934,-246.452637854843,-100.749627837506,-115.083725891789,-205.24721997323,-264.727569244286,-98.170287457174,-231.797062589878
-204.404689403359,-250.693220791753,-204.157772970875,-248.980606905385,-278.470561538799,-183.345857897308,-200.377227568621,-269.928415738282,-244.672010980927,-278.914932353026,-348.265844058993,-215.068262335425,-265.244583320996,-309.944558307161,-247.492672976288,-307.07931282412,-174.695369701725,-259.606281235822,-295.727247160373,-249.77868912694,-316.618141990946,-239.273015845935,-302.52239622373,-316.515679828212,-246.854491122903,-249.852539284799,-165.391085206735,-113.294393627347,-133.508455861012,59.2460884708633,238.052390102749,26.8879944025585,-76.0638799960132,198.141092397964,440.925958311889,330.620000706259,121.702416295745,119.195465577406,338.913955064547,497.02546291445,5.19453326044589,40.4947295180878,187.217712425481,-116.883053982283,-75.0184287103994,-180.160031226019,-239.824978729501,-205.578576880753,-235.036423448675,-266.34840525461,-199.571192562807,-256.653952534637,-167.163671581647,-182.197880824726,-245.599306972747,-285.518387444183,-154.0938573917,-266.509083289632,-139.838844470745,-154.960707447184,-234.495624838316,-294.223769283201,-134.865204800139,-253.6173655969
-225.143997629555,-269.086650730928,-222.396351005691,-255.42550012141,-285.003760837073,-206.198064807491,-215.259153095353,-264.106661172133,-264.407014564517,-279.46822405047,-346.912160746108,-237.668328786789,-269.454249723686,-312.523775646696,-254.37192194823,-319.375487261703,-195.757490145313,-250.175395089514,-282.344693002557,-241.153580791207,-271.501693737452,-265.258352701016,-252.096284486356,-247.710152094094,-219.865703548193,-143.631436284823,-305.194438868589,-16.4886476335821,-29.0664265266541,36.9993722638225,331.212587170435,127.753043616308,28.8256451237978,76.9642766626008,465.713435411031,371.746614618887,209.028352002179,314.290227494134,320.691942744254,462.810361695898,37.0030667801124,133.813525448757,222.917190288615,-20.7399165916467,-47.7539448641681,-195.322081631144,-241.545782806159,-217.800791749706,-244.227370349701,-261.654886429347,-216.461007994113,-259.221101894297,-190.471724328361,-203.12334242088,-256.454206630308,-288.611116911953,-180.005278336938,-269.988608930048,-162.443362293301,-175.885075023399,-250.282851291543,-310.245552551326,-161.089462089098,-261.661019050112
-186.239449955852,-228.647256530854,-184.630729870892,-218.02226759147,-238.869903392011,-175.405863613585,-182.073838853505,-219.14003451529,-217.037385411141,-228.938629656,-290.067331474898,-204.040849748367,-224.134085975761,-258.050229486955,-205.366912521624,-269.880774630741,-156.685432964504,-189.358951437219,-208.329008077261,-187.369315741879,-180.608362043291,-235.99317040487,-156.385674643886,-146.778881591039,-130.583553825834,-10.5960652447942,-407.633430317539,131.686484509368,70.6457240062052,46.9565208438928,390.653287591037,185.434604680854,113.15414006736,-78.6197545703244,428.176278549165,374.934593652199,237.809773610012,472.815620554367,258.047001985008,362.065000275061,94.3116386285314,217.63082447177,239.166730561947,141.143808737153,-33.7672171743636,-167.139485270848,-186.807979594093,-189.90481689821,-190.497926511426,-202.950351400222,-181.442040678167,-202.761996353018,-165.698202015395,-166.675327790837,-211.043409871965,-238.746911777018,-152.109521919091,-225.502922141982,-131.15195303378,-140.867837649716,-215.019701313556,-270.962948450603,-135.967071412246,-224.959530893297
-107.213524670628,-138.908008550697,-110.939038576652,-139.534924288702,-146.064380544605,-107.52928023997,-102.040472726717,-136.511791512251,-131.073494503526,-143.96149414635,-191.112246252768,-134.233762175688,-141.952849845492,-157.881025392818,-120.255139904341,-184.861248004669,-80.002474776034,-89.9346806438855,-100.565564302482,-100.674691518404,-67.5522741055807,-165.372299280424,-27.4145153701346,-17.1171402390168,18.4418950141941,132.3475118944,-415.805467535276,296.45215826039,176.714236307294,92.8703631909669,437.618235229076,255.766532947019,212.494928915272,-233.010639384392,363.411597855439,376.114810416646,258.490968117665,615.041421907717,180.089834791407,274.138609071192,184.533609296541,322.381569516713,274.308424272614,373.361993294514,77.3420579615255,-109.472867925012,-83.2182573421191,-132.040038095449,-89.0755230393956,-98.4915688164543,-107.032784725799,-97.9173162142236,-100.800379774408,-80.4972427742836,-114.037322759865,-134.713073890332,-80.734216769619,-128.63503204603,-57.6223981114996,-66.6686256536258,-135.464049307554,-168.053349614093,-70.8592202109279,-138.219249640035
-31.5498775901675,-41.6956618323399,-42.1836460735382,-48.5786887161152,-39.5929370368383,-41.2511115714704,-10.7942855674551,-38.8749096597334,-59.1597223212409,-57.7026014744987,-89.1833348093936,-70.6463753502162,-62.412083699933,-59.2937638993381,-46.2345003563317,-115.395462635255,-23.5239027591231,-4.22499859459838,-17.0380201852591,-30.0930761599297,19.8697442752724,-103.270782434954,76.3479443334232,90.4687839510208,138.950305934687,234.213016057946,-364.576306724939,383.780016903806,262.505246768649,98.4564799721394,426.485449288302,310.314163831623,332.383102197799,-355.280656674438,253.663691617147,322.139429203265,275.458096331999,734.171517812257,86.189801150608,180.064313592966,252.958281730914,416.700372326626,320.830754105025,585.047304574202,326.362550952055,-59.0023897423217,32.1818812360261,-73.3638509869571,9.95539857029657,24.0711077725713,-33.2643582293852,13.5045625704605,-37.656420137741,5.62885554270696,-7.79686632930605,-7.09166045419379,-10.5004845001685,-9.88144271677428,13.2435583103691,14.0150985542239,-44.0657302440286,-40.0143531780224,-1.30530153752268,-32.2957804098046
28.4053945028793,37.5115505804019,11.6441627030666,31.8940882140875,54.4935198355954,8.48897515646128,62.6623591030961,49.2452027337179,-8.94080293263411,18.9975231519806,-0.716325405427666,-26.9048933357771,-2.05946032656262,14.9483013012762,-1.22892049861915,-71.856161255029,-7.01141807445114,39.6965416877438,25.6937773450105,0.0494649424282614,59.1444912700651,-69.6986607536482,108.471131083822,137.851644827942,164.644948738392,248.618100652797,-307.665795014947,344.638901119431,281.081507095205,40.9986352410875,320.681877784672,259.504036527062,413.389446577164,-405.739215868981,109.527285711152,160.918486558252,229.848321182261,740.93418662678,-10.9874659645791,49.9900778060807,229.419331737109,401.963375677638,337.692838758735,646.363115761681,611.333850929259,-18.9280447010717,136.65325188523,-19.5957006660305,88.3437421591628,141.821768374745,22.1652507699474,109.781229279064,5.5522595476512,70.3613094195775,82.7453571972333,113.253693896555,43.6230715458557,99.5699582691551,61.7765874195834,92.6453030423442,49.6925013615608,80.3783850230711,63.8574346177293,67.4584976453961
84.7345665615522,102.898947932401,65.2376966431133,99.0170176688797,131.943774297957,47.3525410396983,116.577395972093,114.953512932928,41.7197457670351,86.6411343289447,78.9245196898392,9.10239749159147,48.1160426264823,75.7752927306101,32.5583326742806,-33.6994859660755,3.13326960324523,57.63338274637,52.8499506294117,15.7797251186216,68.2965012346944,-35.0776345313781,87.3806264970248,132.137269498482,141.550773625252,179.638984418544,-223.005109063086,232.350506996118,211.924104706938,-0.932174118916818,170.599772860632,89.7155506535218,399.097484534993,-346.411821081998,3.59956100848423,-63.6884255488753,89.1724998645873,556.421110947557,-72.5363024193487,-71.5254141197429,82.6568289937945,223.843791681918,274.35124123741,495.143541632265,765.59912320853,30.7020737264208,220.373515037149,38.2619733153748,158.785829558595,234.101597649327,73.4439924283371,194.091815172075,44.2654456324713,125.658374458597,162.307053923789,214.888448976005,92.871713811146,191.267814955002,98.3239816550999,166.996238377794,149.322483534492,187.200849468416,130.10346457252,160.726910456561
111.196893596196,134.340338130661,91.2278313877869,124.899877231249,166.235962242411,51.9347526273759,131.342889213401,132.990951028485,63.0775505464587,107.914386591263,114.293888894744,15.3617253945974,60.6488257850509,96.7545635299715,37.9325199375131,-22.7270875740582,4.94792542500239,42.1568703494665,46.0132856334212,10.4132390072908,38.6194717611082,-4.73483306914861,33.2613352250941,66.8557427869184,116.410629953867,40.0571250072388,-97.0666705175734,100.73509843988,48.575706940284,1.9610768882507,18.2660252649953,-111.097860853024,269.482133996204,-211.329074303147,-52.6671347417601,-263.776569087554,-90.2505011021166,200.844617797391,-95.2731228640918,-158.594208101988,-129.167612927732,-21.8983833867748,128.018104184324,222.099944380623,686.217534132886,65.2047683292104,252.192586452617,74.2055106894172,199.729862650176,269.829922365714,102.480375464992,243.944702710487,61.0428375548987,138.114409157189,207.832861746085,270.235975615126,95.9479550176025,245.455620633098,90.8488436938881,176.878233598012,217.247793854613,253.759097575221,148.113765926837,222.753845461531
75.1852226317677,104.482771937117,53.9825415437313,85.0528862461061,131.729699612522,4.862288072582,88.4238528079927,93.3456559972732,16.3393444834072,58.206140495939,70.7676991600031,-33.5274063603877,9.10493961543087,46.0158397760926,-15.039254092156,-69.8083995425038,-39.2994487584067,-23.159634937827,-23.4045014611574,-44.613991077676,-48.2292522093859,-15.1720351849032,-53.6459516505953,-62.4383116267116,70.1803683171822,-145.037331354764,13.451492091025,-40.2604870334423,-181.50473267464,-2.0196220807207,-152.817180293125,-266.038993406123,63.1764936698631,-81.3474427134692,-112.411673437743,-396.562458715742,-197.243430213049,-182.496515447427,-98.05599085048,-234.972302249291,-259.182883238965,-133.227984734973,2.26792505168151,30.9859273230578,431.728233252587,57.9727562139674,225.785129822856,65.5350129561661,186.905293130388,252.35124937156,80.4253237781231,238.295899349227,29.4894941016176,69.7362305546694,192.842553306768,259.513327159552,5.81497524743319,244.158637726163,5.8089877415659,57.5184684957497,211.659678895765,256.5152803865,61.5795857826385,225.87063148047
6.34564335413231,41.9358022026881,-11.265323192798,15.3582197941223,62.2668812820447,-57.3566878419197,21.3969160380435,34.1678486845804,-58.4931054217876,-14.8057805700737,-8.08247232799824,-102.984238652187,-64.6372728195943,-35.445542729493,-90.1504701470331,-142.794161501101,-108.741613792931,-101.457169170484,-113.948397364881,-111.661663554014,-145.442771319744,-47.0600039607729,-135.088116914748,-197.598632523374,11.4822748920296,-296.423225581431,77.7735902978812,-163.220582708807,-399.515873055796,-17.407438779521,-335.250201536385,-406.899068639337,-147.594082126798,14.3835374190789,-176.020227945852,-493.0920106695,-218.343961542449,-442.732154274787,-75.2029730479401,-305.307079585794,-251.160169474597,-68.8238592145309,-23.054000276633,-9.18449676485904,142.611888514702,42.6808560063641,186.174738199894,40.5132988355437,152.109512081404,221.770336822523,39.2234124524775,201.834415648659,-15.9619847759386,-25.163358830133,145.118255954166,214.678217850526,-113.786215871138,205.174972889306,-97.3726840679292,-132.907743569144,145.081943649615,219.941296402255,-85.5352573691591,187.335709940378
-55.8933206683116,-15.4688732126883,-59.6702500407997,-45.1055501251145,-1.6654493859052,-106.389886135824,-34.8472669471537,-17.4344885243915,-106.885276892562,-68.2530552297769,-67.4929093590406,-153.417055682448,-118.152962488152,-95.4472311479254,-137.172245217334,-196.484814284975,-149.276694513032,-149.184871445252,-174.45764528452,-141.485166963029,-196.189401795334,-58.377141102597,-167.277761360708,-270.947754290747,-14.6966570807509,-346.621525345207,120.207807850591,-229.248206949761,-534.126045182067,-5.56163308776549,-475.615540971892,-589.037892903077,-340.261773962546,84.6558895577508,-214.687421106752,-595.675874789748,-283.075689744908,-567.237303120661,-42.38262980501,-374.941012962642,-236.340274463793,-26.3298358847604,-30.6320316562718,-49.6252814303301,-118.817118226922,34.5527630453037,143.926272659588,13.3726686569903,114.515491631841,172.977084884923,11.7641241723708,146.143329759404,-40.8332193425517,-75.6003679305698,89.8976974840972,156.109044371349,-167.488481837203,138.185538336141,-145.810162388371,-262.82679803004,45.3617980274742,159.31385807023,-201.329309928508,117.064205535266
-99.8045696266549,-60.1810345495721,-90.6682819049671,-86.1997936128444,-50.4443810459225,-137.743726662825,-72.8853550983818,-59.37238416291,-123.263608962231,-102.569997582775,-101.261122922956,-177.265451184984,-149.84909855536,-126.785572783142,-149.127360411385,-213.894451411182,-144.293800524228,-155.93565452834,-191.181178698434,-137.320044024157,-195.712985368107,-44.8908769205729,-151.374578888704,-262.028343025124,1.55392835369729,-299.5286089148,155.968489710955,-221.502773285533,-542.818498345888,32.0926122577706,-519.925028315744,-709.042949991417,-491.661226107368,130.404840571747,-238.01738638544,-655.724320815367,-420.071967796944,-596.520861796302,-37.9140002147948,-459.755688247297,-295.37622350675,-93.4246563102114,-104.51146524181,-165.173108795355,-317.036178780916,2.26331594202772,71.1566080353964,-32.0507500362492,52.8025549207923,82.6147920874162,-15.0781398201559,61.0216702433795,-55.5564718842578,-85.5110933550657,20.1900433938851,71.7222319438117,-155.294492376548,44.5949957898305,-140.615326959449,-274.871928115611,-56.2474613658171,70.3865343502599,-241.734998280417,18.1643229265689
-124.972767516093,-93.9796396762614,-114.52983292423,-107.776525227671,-85.2661572125557,-145.861831002742,-93.7867942282691,-86.4523918338951,-128.893528454279,-120.760125886046,-123.408765747351,-179.328639782039,-164.38017511217,-142.57082381542,-142.781175684117,-197.647741164362,-119.601221074871,-134.898176458244,-172.030260156806,-124.102517152803,-168.22274499605,-33.6902133542515,-117.487511889524,-196.041862835299,21.6137004269928,-206.610481096519,159.547921679356,-160.224581535483,-428.693745633343,53.6669623294969,-465.209371296573,-617.187790302076,-521.71392344298,138.821057765492,-271.096058962669,-603.003234196611,-482.149932983256,-538.230003123549,-68.3219385598022,-538.018003650447,-344.954186262482,-131.118183530581,-184.757701504069,-240.977298139313,-387.660261547657,-57.8824116875893,-28.5086039024291,-88.7728001221994,-36.0907655593684,-27.6511182003917,-55.6001069679003,-36.5944204259004,-76.8714382301925,-97.4760722831967,-62.3619090601249,-31.6031444536569,-139.94901649258,-50.7892551201757,-125.031104901342,-223.540500545531,-124.19481763161,-29.2843594783749,-224.006474844002,-72.7997692820502
-150.822823249621,-130.879727310195,-143.347050926997,-130.744301613659,-123.387872306428,-150.412844395661,-116.851445752566,-111.689512022441,-149.229734819197,-133.896934419024,-150.918652714686,-181.915872841469,-173.285789953813,-161.481837605842,-144.412838901208,-178.90015323514,-114.952625107578,-121.409588572784,-152.299043759173,-123.375886268548,-143.761740708188,-55.5590559349956,-98.7708977726628,-129.618940104942,5.75906525040345,-124.957301670831,100.536310985576,-96.8964474336494,-270.92640639078,35.661129619702,-364.334817241434,-395.946480713752,-425.632832546887,97.0604850036603,-304.437405969391,-484.135721753879,-439.326869415832,-453.093070483556,-105.048870821863,-554.096489225926,-359.112827060549,-131.049099515609,-207.129512536078,-236.190847851842,-366.473385143625,-115.747875596088,-128.939492984224,-136.487962376626,-131.348091753757,-133.625054712681,-109.589791414853,-126.843374175749,-116.502630299533,-136.459897969509,-147.170270778025,-135.941215828695,-161.705420182224,-134.461124208327,-141.028021711658,-196.416128851402,-168.372653396777,-124.241046373119,-203.39673170842,-137.380845614131
-192.652839219162,-180.239590878723,-183.503439666053,-173.068204778771,-176.212610000785,-175.052764387096,-158.059960622493,-152.302140076881,-185.043033831761,-161.817169069239,-188.306665127164,-201.139484708322,-190.556626057466,-189.883361040402,-166.083993815121,-184.767536148966,-141.120511906003,-136.880884572107,-161.135133145474,-140.407535690758,-138.439058551793,-109.280986585777,-105.851595435602,-101.574532278381,-38.1826840211225,-81.4942353260741,1.28516813837843,-66.7598770587211,-160.311659470338,8.20646174580316,-263.876396551105,-259.442898984834,-334.247528216857,30.1050674671994,-290.533703426831,-393.480881413554,-450.29549626242,-426.058174096437,-109.236349553642,-471.378045846054,-425.639743223383,-331.432382599583,-217.582383470242,-284.719367734184,-384.369757184302,-154.828997175132,-211.216598642126,-171.407362394466,-212.752547306142,-228.636918998754,-170.939616415376,-210.872665864394,-177.421567009819,-192.262490417893,-226.03353766367,-232.211142110175,-213.433391285972,-213.24513803802,-192.239871697789,-221.126920983906,-222.095015347504,-212.643614169164,-216.769289636283,-198.424826716573
-235.554233318547,-222.253008467015,-218.948353513516,-217.051500148916,-219.902365700923,-207.518526796919,-198.044691562152,-189.363532683504,-210.339969481457,-197.871238393254,-216.770895415428,-222.745709488458,-209.591125184442,-209.990310907431,-190.997724081685,-197.68617259072,-179.370913508664,-160.763695100059,-177.807678460073,-164.167393048506,-140.074491849481,-169.847286710086,-118.937609609482,-95.394924257688,-75.0719472938032,-66.3021279176038,-76.3155934696367,-67.9457228119844,-113.294027089749,7.67533133622713,-180.971483651978,-235.667374878465,-318.60830768806,-4.30862472775919,-212.055216235131,-339.365910661417,-542.270818788454,-428.70716871877,-67.3740760820171,-319.862140702854,-529.644556551421,-782.4560059042,-262.812336667054,-453.948057888361,-476.90235246201,-189.312515607149,-266.181050391988,-202.221762072799,-272.647742385214,-298.079316385616,-231.796977987713,-283.26006875969,-246.38879952561,-242.18474067861,-287.351486179648,-305.010586234135,-269.727077101084,-278.320557505326,-242.639523823766,-260.653813308822,-276.67223498672,-281.461063726996,-249.360188888746,-261.222038837246
-245.128971260156,-222.37242809202,-217.095572154039,-220.48444380747,-211.557682008997,-210.089937499363,-193.576172616185,-179.665253755056,-196.438031718428,-196.528212156323,-200.75725741249,-215.496815146307,-195.96893186059,-187.942139001976,-184.455712474057,-169.622803102275,-193.544572108887,-145.259399930971,-147.779356248891,-162.446661602982,-108.42708738744,-197.196131669779,-92.71989026031,-54.051916297291,-68.2990872015365,-32.1603311991899,-73.5391065998921,-59.8436979233455,-62.6697907076433,42.2114093254732,-109.236358489753,-166.782639448091,-261.157966596568,37.6377238615267,-107.983103241838,-254.332203849898,-502.051459519918,-347.952547809768,5.33748980108301,-160.055852052348,-505.095961273559,-1064.24275669988,-273.364380661268,-564.938054261156,-528.886938655819,-233.298496287446,-290.358907184407,-232.25059122486,-303.481004820378,-321.580460631881,-275.108517756463,-315.662666463524,-292.163380577958,-267.042044358584,-309.362614549623,-325.66979831887,-297.92214217334,-297.849251273019,-254.834185979596,-265.429111925871,-288.34708355551,-302.370475281755,-259.0121403138,-284.739543160672
-207.216568225711,-178.910149535649,-172.819241900201,-171.284266382989,-149.899024933763,-168.20963031895,-136.907724105826,-123.443514026024,-142.13910281243,-137.74488488388,-134.428570041264,-167.538446570392,-135.250003814429,-119.452187194549,-131.189556345673,-89.0487702049965,-150.475431814402,-72.5367699752486,-62.4745854689112,-102.963379543779,-28.5217620915895,-148.237198207134,-8.29880774036089,39.5009632609447,-4.74144943641334,51.8809756857614,11.8524804281461,-6.69896471811938,34.4091389165507,84.5822860196682,-48.0814092342676,-4.7848739614759,-88.1755750687734,119.280622262977,-46.3503603937667,-124.681508154114,-245.564042477176,-178.859656508768,62.8366994438904,-44.9195790844182,-311.908112267914,-817.743719896132,-195.902857356374,-435.652798581529,-435.286328219164,-291.066171023662,-300.810482965002,-269.937432074641,-307.172323510149,-310.864511716157,-290.613558788248,-305.33616063119,-295.490860217883,-262.330486807174,-291.816951593055,-299.087631668992,-279.142512843859,-269.534257761314,-228.484505584122,-230.632428857576,-251.250626722577,-275.065835746753,-230.812408511331,-252.22739867842
-157.961533014337,-135.616334586712,-127.889914644106,-117.193360469992,-95.2636763373258,-118.891616541371,-80.5009233974318,-79.7686414589452,-89.3377169398599,-74.7351948310815,-73.9863469263319,-111.639564295347,-74.7265745402821,-58.8955520793656,-64.6603317871934,-14.8117794408299,-72.698484579539,3.01888693246065,4.0629205134265,-15.3595707085529,38.7312270510473,-44.4318517102202,70.7680640291121,107.511111305732,60.3230407278184,119.771409417408,86.3520512306722,43.4779307453733,97.4468248720255,54.0190029655114,-45.3706443364943,91.3466797033649,40.0807646608481,119.559120133853,-96.7945937836219,-48.2080745604246,-13.4824994682216,-83.6050753889494,25.3639378612517,-41.7553513850766,-161.937861119915,-324.293167876512,-145.060811507339,-185.198812612491,-251.355376991323,-363.744965725083,-327.215485533349,-323.734701667007,-313.519689220928,-306.969952045198,-294.300153309721,-292.905604816081,-279.048489528671,-249.00008524816,-274.009462630956,-276.583227096827,-243.648775756536,-240.472648085744,-200.105467280341,-199.46964840808,-214.301268037942,-245.264762344945,-195.719355061065,-215.445012221324
-133.415585073004,-116.39270466965,-108.959304005655,-97.0570562412748,-82.4226184730052,-96.669449514231,-60.5973172357288,-77.3739380664393,-72.0107839747125,-55.2441263041775,-61.276671425193,-83.8958203725461,-55.7623307153395,-46.5189237945428,-25.0899810527519,3.27184952744852,-18.4880738721279,25.1947709592642,-2.75523564902826,32.8573204142386,37.2269090970701,37.721310749147,78.5878155396993,80.6209225893085,62.8876578357895,87.2213184341288,68.8880008272976,19.6029832849648,42.3397166199396,-92.4485031064199,-122.154934647864,14.3165829312674,-25.5295669650001,-9.86044611076758,-246.385080704558,-91.5572277070804,-3.21961178317439,-200.607492753977,-123.710788684584,-167.489034205541,-200.082682668722,-101.642815882455,-238.171097196653,-56.3113188289115,-146.38928311863,-400.429471325649,-347.688656187533,-344.549605158565,-316.671856071623,-302.343394428385,-277.739122614959,-277.846490735299,-252.78379922584,-227.642758560378,-261.209926943845,-265.737430404675,-215.210461011886,-224.786377694564,-182.141291534044,-179.515396468446,-194.165407331631,-231.06346848421,-170.581230067898,-203.983193148503
-115.625964586998,-93.4024715328088,-97.5321709682265,-85.1699098366119,-72.2138375387872,-90.197387631496,-55.7983707273964,-79.9426824159243,-70.6100991533289,-56.1259927611302,-62.3814639575331,-81.9191756401237,-56.048912471952,-51.1761250165345,-16.1167199697951,-7.73717897580954,-7.75944754324235,12.0947260566552,-37.6081059435645,29.1175996484756,3.04029749474137,67.7102934802195,47.0085845075024,10.3027914546944,30.3351607458289,-3.2912687318446,16.4007130318366,-40.486003090882,-62.1790426251055,-243.219998419028,-185.394284264098,-124.810605282453,-178.536880311404,-152.590653997152,-364.168709552462,-175.069768754587,-92.242639549852,-454.101078333979,-275.940606962766,-309.828931889857,-280.756038622657,-203.616626264552,-401.898409722352,-83.825361825592,-197.711766355923,-307.349802001797,-291.998138501238,-250.650538542654,-247.323289334584,-235.710201424497,-187.535965961495,-202.814859322004,-177.233514639317,-151.334174880226,-193.50122660581,-204.713297600864,-151.805160496711,-170.520062664826,-133.853469142446,-119.048554460262,-142.409434246368,-186.635756019444,-124.157089591938,-168.542700792041
-56.5424063504872,-24.4793633533858,-58.7727301224172,-27.4742123924716,-7.17496957400603,-65.4184409257954,-24.8405450529127,-36.7896790510515,-37.9210127191832,-19.4460241003349,-11.4642145687668,-73.528675102941,-26.8820210277621,-9.128870236482,-7.46055178908092,17.5323699841537,-7.36406816805341,25.3505808767633,-12.5942477945232,29.5639992145065,16.2469672878609,85.5989194536116,58.5177487738382,10.7657026789831,41.1127471850796,-21.6543432321504,36.6920066860535,-24.6184339317691,-66.0697356210728,-237.265474535353,-117.301424805094,-140.380411696506,-194.376846867891,-181.630345388336,-326.849968029908,-161.31580315468,-47.4564514794914,-577.498883320984,-307.950644192282,-315.573157837078,-195.778316143016,-283.835423451725,-460.725341900059,-94.6170981420255,-255.690872075121,-62.2772064207754,-122.324004369265,-32.2581457203159,-61.5851382210945,-70.1563657920195,3.69003058571662,-35.7059914325603,-20.8633714109076,16.7302987164009,-24.6144828925916,-47.0939754511773,-2.52732059266228,-30.4259612377208,-10.5752086214689,19.9640845768205,-11.0491314513461,-60.1154926349674,-17.414161666733,-50.1824749303156
49.1725591557518,89.5288117256236,19.5466108519618,80.8846044533973,113.138144686484,-10.5324802489577,46.8517344413549,62.577247445186,33.3134970815998,71.123484706778,103.38901285526,-38.5005353807339,42.7990785346418,92.5701197030736,22.4658537706018,89.810411981623,7.41924630187499,78.9468297558312,85.8045443860404,61.1119703379761,87.7254604158192,108.986774244228,119.95019398818,103.450938627333,93.6013465179993,60.5352393904831,107.67694248159,70.3933249863896,56.3074512396448,-103.616677121177,46.7813001075492,12.6715032284543,-8.32819929340916,-128.329943798457,-179.521738839267,-26.4943898130672,172.687720983416,-393.002739013933,-233.792997896839,-175.563797380251,45.8883761143306,-133.943103138333,-346.900751542302,49.406345884029,-128.512202900774,223.650085928841,110.500210873778,215.442913655207,179.202645593061,151.196444410146,229.878769214129,178.466743069856,174.862615472863,227.363482698454,196.827962347855,164.981270470907,195.636382072034,162.96838969034,160.957827069251,200.148258002463,174.257811363659,127.185928234675,132.500599206006,128.674935812292
134.911091175017,179.178297795398,92.476559229097,168.334735083852,209.385166213472,37.2143404971795,115.401803899772,154.702917240291,87.5637928691591,149.446060718719,200.743514243886,-6.49057160510984,100.982681540163,176.326635263405,41.8441735616043,135.537267053969,6.88548774406195,106.89482085061,161.888338508246,66.771626747243,132.859915471772,88.9091657473297,140.004816038125,175.922995434156,90.3840708143601,118.331437327805,101.226073595812,99.1187007749767,156.032908732716,-39.7008961067137,122.699279627121,187.077496321277,213.94733317843,-114.613947590846,-98.6586786128384,89.4558530481614,381.264511616706,-56.1761624369898,-187.168689674724,-54.1347841895789,253.742852319956,106.927473209887,-179.731419258925,262.903346189282,134.139783202393,394.361767765429,283.124381999096,365.604736709072,341.477077959449,310.071388993944,367.166323903837,329.64763667978,309.394302236236,362.331517870947,344.575490370359,312.886899362384,326.607601809599,298.467193957117,278.614762398349,322.183791629491,306.801264360837,265.422901528296,241.136891524485,262.182165961506
159.741751315804,198.970723404519,119.546478651803,187.710354174561,226.607541853544,54.6490406335938,139.464659004254,177.647558956632,99.0464840335137,162.252441798899,217.038899469208,2.42537159159419,112.817636130896,184.124447741459,30.0839556653866,121.741089600752,-22.1539986544776,74.9166004868284,152.189573214053,20.8964130157349,104.438059476295,20.6999672498657,78.8343867629224,149.673979953828,-7.72509601233009,73.7642658016297,0.390888356097784,-1.05016177076361,129.478616636384,-96.7985401144028,46.0380665764711,242.778898164252,301.526047308221,-154.469356521016,-128.559718347845,78.4785869703164,420.025415608047,160.816677913418,-214.002135167401,-58.8320968470814,315.301929973839,244.054993147148,-107.942912507135,349.394486165637,341.69600897496,408.164125209341,325.150726145507,384.519377596034,363.496017374329,336.965329026137,376.170831708459,355.019671628179,338.72936988706,376.235610175387,360.561771062214,335.540041604742,341.716157217865,315.282642118122,295.148654431453,341.106946331554,325.041565659342,287.172716307846,265.337395379086,291.66654840519
173.918181174127,198.725830675604,134.23036244949,186.831960012844,214.564989446225,84.7084797117662,150.272801670897,161.924677744668,119.671188292791,156.64187635029,206.225217978797,34.3476066432397,123.176148054833,170.726412999091,36.7018687244862,131.08515052274,-26.212424442968,46.8318680523776,123.369840732249,-6.59501451201467,64.9728584427634,-14.6929911291774,16.3631139106322,87.0450434912245,-117.918343104665,7.83288475923721,-67.9296092566802,-97.4548416152734,61.9407953025042,-115.282165169365,-16.7191421440893,223.290620619492,275.219630133139,-148.937251910595,-109.43081774667,31.6861421366841,355.537070796293,228.031261632837,-210.571146026557,-106.826834960446,304.783725954968,293.616328328849,-143.80516491506,250.09544304338,435.100337295207,353.433824665602,294.157242886785,348.791987111261,319.647348179956,298.440370967649,340.270939234329,317.66563208939,326.179875294973,345.647586943813,322.843727050655,303.48818415026,316.500802052,278.882031494071,281.290454657249,321.192471043542,297.428242473561,256.692115499714,261.968687322968,273.816774514115
204.114126475068,208.125816729837,157.780352000791,198.250098910783,210.397201612571,136.880764845962,168.176868767654,146.4024336923,162.907099876103,167.963128134513,213.679053383463,99.6310282976611,151.866960715524,178.876797393612,74.3954668005142,204.761377107479,8.81283581034052,51.9201471540038,130.597979985415,7.0380390338991,48.5251562844373,-1.82483072385113,-5.64708476521228,47.5361674533046,-187.515792726339,-12.8248103144945,-61.979110288175,-96.5148727995597,49.8367609131345,-35.7273692353645,46.0142471324776,225.963296800504,233.727397469148,-75.3519464389898,24.1951993807871,69.4665191462932,304.118297233935,277.639795900275,-128.727992059357,-124.981611577911,301.317155406923,345.028162674454,-223.465073282351,59.2081589175238,436.026264906522,296.40278934011,254.750156307344,307.922452073524,279.479631092281,264.523815800856,309.660172769074,281.587064069756,314.602586358432,315.075522896558,293.420389136992,276.667108751618,298.703605327328,244.648407392404,279.287889987321,304.864844585064,281.928220316185,230.602613862774,263.763780733913,250.733354472559
192.755759553885,174.483288210283,143.734126821359,173.550382820742,167.343519039821,142.153674746877,144.872130996476,102.042281005711,162.9120788543,145.185282437911,185.613397395284,122.834961477221,139.752885632377,154.602481806859,73.8163914672862,253.633310316995,14.9987689681383,28.0289697653625,124.520834276799,-10.1675979336878,4.87029116871894,-28.2370458313238,-45.4545070758449,3.88930767845817,-257.468417214312,-29.4565822061758,-88.3889249176293,-74.9049031516501,68.1591693435584,8.65819129429827,130.499467171437,249.140916944045,205.761343926127,-23.466761206122,122.123624749918,149.944153302155,241.690895955153,352.074109445289,-51.8204766386846,-166.316399973028,258.713968369357,369.119927351237,-303.854269092132,-103.066999696244,331.802842466366,224.447721253932,195.824303413789,238.757065079564,216.213870894109,208.35639434123,242.697111822796,217.206470615484,262.316154721608,240.096003209455,234.034246039385,217.592455737113,243.406877020303,178.865321514905,234.672032624095,251.10094269734,233.20848029881,169.63568600531,224.009323335525,187.521279361778
122.53350472536,92.5169294511617,83.4044387637943,97.891349186448,80.5892091456231,84.0346898680786,71.0955932793282,25.6190841523944,105.370615992174,73.8581825122958,104.312574284418,79.5389812830432,74.5923779859921,78.9928619659729,18.9246453118575,225.017342977451,-30.1547128197242,-37.8340043693888,80.9972391912098,-75.0243972805032,-65.3538530823704,-117.806338875131,-115.443299954498,-42.7089554095448,-336.300818667407,-60.7134651875667,-200.448782829348,-96.2974048024406,82.1275988244402,-50.1636358699478,142.612837860005,254.581669608547,195.198180493644,-46.3289682440694,95.9143370621572,182.796117595034,135.330152482914,399.161097085341,-28.3201647176311,-231.274672144952,126.711878045361,293.641060671714,-344.233730375863,-170.483997454357,169.784003020482,137.434648397624,116.066259234973,147.811110762789,115.788966618798,117.237078314661,137.056946116344,114.333928880573,161.873396628252,126.478546172611,132.912699864391,114.055842294256,145.278324414388,78.9618603199558,136.587197649463,156.824204584786,136.14760202553,68.8085787078949,137.207146080343,88.4687405409739
61.2437720332604,34.2772129596051,36.4746966387732,34.541451176588,22.3770280106648,35.2871554187449,10.9593473064544,-25.5380626311316,57.5514641715027,19.0164706881023,41.466795666369,40.3985915528418,25.97081559926,19.5591439984801,-23.7807004422452,188.019027881741,-67.5931670006086,-80.8690049698612,57.2294874930208,-123.695050391015,-97.312062007524,-194.851959374431,-157.981351222048,-48.6230951306682,-377.647687915141,-76.7539256164161,-326.360076162724,-121.530998929182,90.9458593229459,-126.4660303266,126.267253254044,222.468626210384,194.939915490497,-112.177530739582,58.459450907044,172.931402647278,45.9298756720029,347.157733749742,-6.29217960837902,-208.530445057251,-27.5576895135234,110.56781200896,-295.103456303847,-192.538287005188,32.8140837405803,70.0172146018812,53.5216141330919,81.7865338503031,33.9213231081161,46.9021373531472,57.4652900486318,35.0754891325032,80.4927486426864,49.7908694968212,52.2278976804387,30.5714760881808,69.8692857130667,8.35041251462059,58.6479321221673,83.4682432447301,58.0979830734224,0.359195195594538,67.131657070417,19.2095129428539
48.9238874794457,23.734169790124,27.3793697367069,19.1874384059394,16.8065589520962,33.439707949225,-5.72660871477622,-29.8537776800172,52.6413327158938,12.2154427442333,32.7212283228778,44.5910619567404,26.8834472113574,10.9342175285755,-28.7476148111111,200.677134139441,-68.4794739567063,-82.7463339489373,83.8798740840678,-132.444041125902,-83.6473741205438,-221.092493512323,-163.92478196706,-26.1014054990563,-379.507241475296,-86.0673189641297,-397.677815902527,-124.401409686749,66.2150469412754,-144.701551194065,128.985761024801,137.008039628884,137.694714350212,-172.710432373001,118.74412603568,171.470047521519,-12.7822167711912,156.780343904868,59.3643787674652,-51.907485423627,-91.1414213367428,-128.019412568152,-145.009819707129,-263.991209545018,-85.3147204672642,32.9729242601377,19.8161844627926,49.0652689662257,4.93830562850116,21.6509125654946,26.0146152609233,7.48395162702215,50.9098894832681,25.1392597126725,22.0004853501791,2.94738602901127,41.5651275484524,-8.95335167620215,33.6783181645731,49.766513964155,29.9834300590595,-9.64583075273291,39.717578416732,1.15581358853487
57.9829181235091,27.2668101668835,29.1147181839173,27.2637978764646,25.5871941620612,47.6770445466781,-2.09208807707668,-13.5468351741469,64.8198887558472,26.6145290057532,48.2605264898474,65.1021250473812,46.1824762025775,26.1401808215718,-24.5272914382248,245.831809180686,-56.9476574137865,-74.3895683854068,137.197337179073,-122.205001623549,-58.7763084601853,-216.238198424162,-159.641370017774,-7.68229188578669,-365.633840660207,-97.2209891255074,-393.759927143628,-118.782419482514,8.99597565529037,-98.9374277428723,146.83921828831,40.6913282503954,-2.02902023570299,-186.467680142255,245.265848250032,215.055263341226,-90.9484008884045,-64.6362603051665,152.292604582773,169.20870218209,-37.3955803693216,-291.471623022701,59.5865371093781,-341.046941690556,-179.721992948544,15.3177775913391,6.53982701973135,30.6946246586339,5.41235358039368,12.6086794578972,13.2698270915354,1.67963509453824,41.5451778551712,7.28997956712065,15.5358211716654,4.89989563436581,30.8556778556665,-2.53172451070567,27.4086190551633,27.9554217240545,23.9283811815798,1.20034451255735,28.9573122222261,3.79838797542589
