-1.59492163422446,4.05980052348045,6.52467941273644,3.98730408556116,3.91480764764186,2.89985751677175,14.2093018321816,14.2093018321816,0.797460817112231,-2.53737532717528,-4.56727558891551,-23.3438530100126,-4.20479339931904,-4.42228271307692,1.37743232046658,-1.95740382382093,1.95740382382093,17.4716415385498,5.14724709226986,4.34978627515762,2.60987176509458,4.85726134059268,-0.724964379192938,4.85726134059268,16.9641664731147,-3.33483614428751,14.7892733355359,-3.26233970636822,-5.14724709226986,5.65472215770491,-4.85726134059268,-9.35204049158889,5.7997150335435,14.2093018321816,-2.68236820301387,-13.8468196425851,-3.62482189596469,11.6719265050063,4.20479339931904,-8.40958679863808,-17.9066201660656,4.05980052348045,4.05980052348045,-6.08970078522068,12.6143801979571,4.05980052348045,-0.507475065435056,2.46487888925599,-0.434978627515762,-1.59492163422446,4.85726134059268,-0.144992875838587,1.1599430067087,6.23469366105926,-0.434978627515762,-0.434978627515762,2.46487888925599,-0.144992875838587,3.91480764764186,1.37743232046658,1.52242519630517,5.94470790938209,0.289985751677175,-0.869957255031525
-5.68295938393948,20.7860860649916,33.5693267326264,21.3120493759395,19.9531053009857,15.4996722734105,70.1776776813359,69.1627275504658,5.5963443329029,-9.93739134326952,-19.4967253396935,-108.156178229853,-18.1392378088715,-18.2287659481718,8.3482958855724,-6.67796472516498,12.115197569112,84.3524692825545,25.8734987883277,22.3795511550843,14.7761644383494,24.280033698235,-1.990010682451,25.7299624566209,82.9594618048388,-13.3588425385936,73.9445793648754,-11.8549055878012,-21.3787196373315,31.7612854170396,-14.2755252653725,-42.9252900284097,29.4769193505159,71.9900886293182,-5.55062857708634,-59.9031282864407,-16.7647185766686,62.3426830377258,24.1564421561729,-33.2336252251327,-85.9814543195409,23.3959578300862,21.5110504441846,-22.5158047661319,67.2495829383295,19.3361573066058,-2.62544692234369,11.115822595491,-1.04901353363201,-6.19043444937453,24.2075372603157,0.471955118541326,6.22886748453193,30.2359471324707,-1.48399216114777,-1.1940064094706,13.580701484747,-1.26795939152172,20.025601738905,7.76832438221805,7.87634076703107,28.6424820423781,3.69586178975215,-3.33046651189201
-6.36723906090507,42.7902025161202,70.0902671465593,46.1859233712975,41.2177731836534,32.8318451463329,140.63502240302,136.471575127122,14.5517231145292,-14.2739698850501,-32.0393747567847,-200.985303268207,-29.8808227943105,-28.1854924460578,19.0319425846784,-5.8633676100101,28.6905594615956,163.840097273682,53.0668234898446,45.1560886094547,33.5789362511326,48.0185691934963,-1.60212886330459,56.2758803956365,164.545517304935,-19.2308390562618,151.453582286646,-12.7772401633379,-33.2616241529612,73.3990422401029,-0.474908472028093,-80.9050839534295,60.4697177286487,150.177324698063,11.1685543320065,-98.4851013316697,-34.038884961411,138.294280720218,57.2723771465478,-45.2414034991868,-168.271769151801,53.5790628689085,47.680070715343,-22.7517934855429,149.079467727358,35.4753450069307,-6.80989509031343,18.6632395373211,-0.882259508337438,-9.86264323828029,47.6020788114932,2.29957564762202,12.6903641328123,58.4535762643461,-2.29375523156592,-1.20776520690835,28.9091048777806,-5.01382531743565,41.054292062302,17.0049554112018,15.427431054509,54.710257850545,12.6316962234385,-6.0899908697924
0.539664081549524,45.4171380711031,77.0321684833089,52.1824545012915,45.5622116814205,34.3743474322244,147.985126460119,142.135117205841,19.2526669649253,-7.73750244338537,-24.3348823764566,-193.303824250771,-21.6428915373376,-18.4747638082061,19.5340315816285,3.29825868163912,31.7137601144085,164.316653858855,57.9131358739969,43.6357565946883,38.8213554948445,45.6618055367686,-0.994381315370691,66.9868128267364,171.687513894273,-9.76885051688646,163.856347150253,3.62216383186468,-22.0600933359002,89.7783365368406,47.824570062233,-84.8870950958343,61.9167427796375,165.977444676206,48.6131021950565,-73.4166929049707,-43.2918704779528,165.187222528189,70.3149499089809,-20.7436969043358,-169.919301796208,60.4388895872295,59.5465852531276,21.1746767967609,179.094761923234,30.6664487538825,-9.87116390303417,14.3791924659582,-0.600834788653245,-9.81818683441385,45.8905410014051,1.73701242516977,12.015634388944,57.3671330636557,-2.47809963821619,-1.72271033635535,29.3494833017907,-9.26162497392987,43.8864605466613,18.9287301798319,14.8674678693206,52.7576224783192,19.5961425962733,-8.23771775458981
16.4359148254763,37.3402439328152,62.1863114954156,43.4462962291289,42.6457866433154,26.705424048409,105.724694221033,103.694523351673,25.3360652558611,9.64085429885282,0.202570312208786,-108.369152914249,4.07196118267006,5.73787244921343,15.3767445862608,13.3010412392049,22.8939145277439,109.920098244296,48.1135593174034,28.6815425442103,32.7357918183784,26.1710983839216,5.7463127387625,60.3877567066693,122.151583541995,10.9091790521123,113.747447376547,28.8552620496726,1.66171146785682,73.4321983736204,90.7121767517109,-58.5951277221642,34.8629135067594,114.650205800273,76.6165697273462,-19.4106369628969,-35.719082665464,126.80825367612,50.4891186446358,-0.183762130428763,-81.8042828486467,39.7126097872553,59.6725904521839,91.1321707757371,139.21166721491,22.2556119586477,2.50142380208166,16.2960257096314,9.22730079774689,-0.774711093359169,31.4220325958486,7.52927842747836,14.1911702889811,42.5118981609931,6.15798350529749,3.9775437899647,23.1552433370547,0.989812582990348,39.2515168305829,21.9440330451539,18.5570639123014,39.179103879682,24.4895116806996,0.295884525776261
48.6495163043179,56.9219902926365,79.4279520972701,60.0778032654883,66.2025106595692,45.4913735629544,103.446897006126,106.106650429378,54.0784765331042,39.5500132209713,33.5452898084529,-38.9958838193741,39.0061400812788,37.8460374316465,37.5746742211068,29.0557275071816,41.5596530405827,108.332899718018,60.2808771242914,48.6222970142977,48.3210552894057,36.3360510287884,34.2841432481329,72.7770725355711,117.783213504242,41.2514905937065,93.0597993044593,62.8985998534595,22.623982039033,77.420434348462,110.391206623987,-25.4301336122116,22.4842879802177,86.1207437857386,99.6510265520401,8.8433639949863,-6.87387436976034,97.1694357505494,39.9365303221749,-2.70805762884669,17.6533013932002,35.1936539171994,76.1054390310888,154.822737291591,101.423002621345,48.1459736511486,39.7280840080726,48.2765698349611,41.8262251335258,30.1150912927318,50.2709665778043,38.7875401069269,43.4028264308888,63.7181248608274,35.6485683004503,30.8776598887461,46.2927023398345,36.2068605357612,63.5340488974838,49.0071032464405,47.5107183552278,59.2696630708568,47.6415649059704,33.7925548627293
71.2598571545528,78.8146393624121,108.341882123896,84.2571994100647,86.3798772385506,69.878447271977,122.106473774593,123.775234284186,76.4400536129096,53.5251444765707,47.7331259135029,-6.74414887072205,56.2920625796322,51.4037299630905,63.2388824353639,31.9941823952927,74.1521046841101,131.423717213708,62.7038253482316,77.93150381648,63.4546190831344,58.1137869946161,53.890566796729,76.7419905343178,135.142439601764,52.5395530233269,99.600590113909,83.3932653582866,18.7501869761968,98.215968830204,106.720790613565,-15.506985842782,11.1371366642311,92.6863908389061,127.085390547302,4.72837020650508,5.61167634034775,81.4651384284348,51.2244594708559,-2.12109167768504,63.3150132636535,33.1639930229196,86.1499580425298,176.107609253266,72.1954156026354,76.7898206151913,63.3773626919511,73.1857045910646,62.830454668269,56.5290753118819,78.2852911763785,63.3035781492343,71.3014813566308,93.9547530188487,57.4574234501192,52.5864828446086,75.0914583484577,56.939076954077,87.1284831622751,71.556249763655,66.3537831980329,81.3322242492093,70.8083377206955,57.1054074799174
36.0596718700246,38.6028784423457,74.8929290713697,52.1703137081264,41.2189972040866,38.8722888560758,73.8912019296031,69.0593288341215,36.6153436753367,10.0723201557295,2.49086091547439,-12.4981845849552,16.2303635574235,6.62348393621815,27.0699410535479,-21.9633660526277,49.257461958535,71.6049888059678,-10.2330983300003,37.5788431636933,11.7306027304941,21.3123779642543,6.78145550746543,7.60681154965747,73.8239676591034,-5.0379384128601,43.4916270308315,39.3048609522869,-37.1963774728024,62.7343220688032,47.5766754043839,-63.0285444650644,-50.8864283513747,58.2323486400437,115.726988017251,-38.6412427954072,-46.3333287165332,12.7846590381573,38.0588891779221,-11.7761414338967,40.8960641786008,-19.3254847910397,45.9353064673152,129.56928268419,3.1398562603165,48.3712464342746,30.9668919622004,40.7300531648924,24.4138661299596,27.8934938381263,46.9762952061338,26.0255124490813,40.5814665758556,63.1049003047288,26.8340580427695,20.5515988769799,46.7660988194568,16.9262084453091,49.698343284658,36.6104974325909,25.9726914678332,39.5463558527366,41.9358875677579,17.8171652257545
-20.265952724454,-24.3182524194358,10.6194651248181,-7.12918821760905,-26.2145364043766,-15.4935916043097,-1.32877687194579,-12.7398558306035,-23.614084666295,-47.5165728680762,-59.0233453565037,-35.8632964261258,-42.8422535476639,-53.9090095444755,-39.0312675843362,-95.7731684353164,-16.1124863543466,-27.9916079119932,-108.087195431692,-41.7329297028594,-71.5144457885118,-49.9511976898333,-68.6735287656351,-85.9683876169805,-27.2004882913224,-87.1773081482307,-65.4093578540057,-34.6302831445547,-98.4202504464981,-12.9844169017916,-34.1728974207752,-117.238321991034,-116.339789478175,-11.4846877364024,70.0629572660958,-83.5285308403718,-103.280674601214,-66.017425389514,8.2135375939917,-29.5333280991009,11.7327975586164,-67.8133999409232,6.30297419866831,71.3105869300801,-55.3389307534525,2.97797929688871,-10.2334107367835,-4.30317369679705,-26.1996987352492,-20.3661271098228,-8.36803596060975,-26.8716805423047,-10.5011072794039,6.59228934956452,-17.7468202615344,-27.1090354521462,-5.03036148208587,-32.8541530842192,-3.35863235950996,-15.5888047859618,-23.8639616314061,-21.4318707227085,-7.77358231363633,-34.8654941815405
-23.4388744718054,-25.9934525120723,-1.60158060631988,-16.5585283151453,-31.6810861137489,-17.836228399997,-11.0676955797891,-22.92240517374,-26.6213711955352,-47.4897347342574,-58.9132047065358,-25.5862653099156,-46.2790300915613,-53.3625869439796,-50.151706789242,-110.729705400688,-39.0919885761,-56.1693400014326,-130.902382815201,-66.5282361942019,-91.3369195909728,-75.6299026388295,-87.7130073527645,-104.873345367963,-66.6893873370724,-98.8614186064056,-148.999282411667,-52.5306127255388,-85.5883893897392,-53.4700394440746,-46.0504883754948,-85.6901188569862,-103.649262782836,-51.6244827398208,45.7233942605361,-53.246668363236,-73.3128977779873,-67.2642941848054,11.1598703327365,-4.41009725224465,41.6297755676203,-41.7251132646442,35.9121869558602,62.5166795738767,-47.0412171310445,8.12267145087102,0.192223191903959,1.53184772907365,-16.8022192363577,-13.8831132142055,-4.73406762460823,-16.347232935677,-4.2407742009264,3.57902490769843,-10.0784753022538,-16.116053021611,-4.13222126555233,-19.3480148201941,3.66383713379755,-11.5524700584408,-13.9539281848613,-18.206552945875,-6.16806726512164,-21.8439923671355
-3.34023630213076,1.49602893970249,11.9351914613996,0.843913682021519,-3.95690529398282,3.20755595569781,9.69678318739452,2.45104096670651,-4.81944511608237,-18.2074701274462,-24.0274331309313,9.31589725778102,-18.7994476103163,-18.343886589359,-29.5852313336099,-87.1845081121179,-30.7679926923927,-41.3424958726399,-101.592036547021,-55.2110969815624,-64.2862214509364,-78.0533073933343,-68.3550305285896,-70.227652720338,-73.5623968568923,-56.057848051392,-216.198380040044,-40.9229034516412,-13.4082464595158,-89.1763256242218,0.155332679393855,20.9942599753557,-46.70880606583,-87.0770511814728,13.5482418103788,51.0473915243003,13.8584458972169,-41.4212572422864,19.1951599423452,55.6858590660538,108.159058644931,-2.36833845640085,93.3629293385056,67.1278016221185,-41.1670936972715,26.9248316830194,27.8737822817619,23.8671701391703,18.313602734988,23.6086682203237,27.4984120712873,22.9544750842681,27.6059854824923,26.1943844236184,21.7817939339317,28.577350506156,21.1849648766218,20.9392034719265,29.5401974106386,17.9822592283783,18.439949021314,20.1855433657068,20.6086412698574,18.9328025541196
-3.42196514929107,5.27570433852116,6.00463128137125,4.47645548830281,9.7613376912621,0.370965747796411,5.78111765519996,3.13073959018236,-3.51801468473401,-2.09596387749617,-2.14985359868105,33.3989577204302,-7.23576853610502,1.45141241655396,-29.8792665463144,-67.9572539415247,-36.2446929167539,-44.1652196463981,-76.3546266639855,-60.8612725825732,-46.8202797147347,-102.626766621911,-53.4722201849664,-36.7783286979291,-98.6132011017493,-16.7843563256533,-286.097342461205,-62.423646409783,71.6057784946703,-171.645431727211,23.0471649471756,159.028516003116,18.5492351385321,-162.487164763564,-78.3409095396597,187.492789503492,121.501295914272,-39.4387415832856,-8.32826922614479,105.45050772922,195.710825349049,28.050056547965,144.687634919156,79.2150006209239,-61.3604961237222,25.9242043960069,47.4544284702226,33.5503873032738,37.3303076986656,49.8624658686858,35.4748421581007,45.389208122085,34.2562139803842,32.5548243234428,42.5419788256886,59.8901256387258,26.6855301332722,44.6246298468459,27.3509182538373,29.325588948587,36.4972868277261,46.37502240726,28.7241764465932,38.4173445336462
29.0454400261396,32.3345923603141,26.4036311599058,38.1486140065333,52.9074556937602,19.1972619537733,26.1002507547584,28.5084018855447,25.7812301604117,40.4622885419551,46.4052708303803,73.8511151503007,28.8994992145566,43.2970635119968,-9.03718226727391,-14.7118163139788,-16.8853800743835,-18.3999686803576,-18.8751999701204,-39.1008198093438,-3.22222359589312,-93.6508144847963,-4.2619970615637,27.8275655100456,-77.9371022518387,42.8316691956305,-284.009775129309,-67.5020430344615,177.121065043571,-222.606486844912,17.5955163462112,334.995762597099,146.713508415816,-216.936513253989,-168.227329926744,341.057386358907,296.923336372662,22.1504137616755,-24.0618234738236,158.62362675774,339.447001461051,151.834671935438,238.546749694701,172.016031621321,-5.43327550060628,60.6000125027329,104.957782754513,77.7238105684564,86.0018642942638,104.743776782122,63.436360570403,96.2754705040615,59.5944017116671,68.0897074780732,94.2940205635879,109.190886717301,57.5690649741149,95.6656159661917,49.968373133282,67.2972521800441,86.126001050595,95.7253131254306,57.1959562453725,83.0572389487237
105.548903100989,99.6157962078141,84.8273093590393,106.743944667016,129.621766564791,76.9016456985209,86.1981912140294,94.1542622638683,94.8030262704392,115.912933394141,130.485817866295,142.464354474407,101.76534285234,119.328944355491,55.9949141180941,75.5394704688485,45.3054802132777,52.4387640211865,76.0868103709273,37.5879015949731,86.1856420033916,-16.6056979715637,91.4345665584372,125.812328485487,25.9494883765685,135.479964519217,-166.622417430517,3.50310453883249,276.303534003188,-147.969338055569,27.3659957823887,479.422102703324,305.268861066823,-174.93894350376,-160.178753666293,445.52519993288,485.564710357403,152.235011220725,17.2666391640998,227.316124338607,475.091747108625,338.597120118199,350.048208231696,308.450357000488,121.269450527961,130.942036843711,186.663664663836,148.983180008345,169.067339690976,191.016445386451,125.640838139976,177.513595132276,120.01885322011,137.762197666305,173.393798320934,181.466750725533,123.85244461349,175.684355429013,110.35760591494,138.806552383234,163.790931686381,167.963404596037,115.106241556449,159.682452430546
144.199214427806,137.095710060228,112.571955851632,137.291865110314,164.148034502502,106.479495891677,112.250054812056,123.915070574885,130.595350351617,154.691036120592,177.93591723042,184.817086871384,143.732905265015,162.190336292117,101.238994910828,128.163143044559,87.8153795972659,94.587490472061,130.901719081602,104.491480251457,153.64407902201,66.7366555146991,170.896143740541,182.764068145221,140.219971659977,207.930165487854,0.223245452173934,115.71119115021,306.204617772545,17.5997799830219,79.7337284225149,468.405614487519,362.919454650815,-57.9791274454496,-48.056256142841,426.114251353721,533.250960692767,213.853153625951,82.5724573645929,270.8515868081,480.113408351482,409.861824837357,383.993327621807,355.845881281944,173.369339599776,158.435682978853,217.115789519853,174.101970457465,208.04982024218,231.244921545677,153.367543799759,211.432241228615,149.57348452196,167.105577793535,204.072750705219,212.107457849576,153.667281406459,210.630778090772,135.574864135117,169.392758939569,193.244120616108,194.286044652619,142.609877545775,194.858774917392
131.073745182411,132.918291795813,103.314516685597,125.257465969542,153.216216808641,100.035899923996,95.7211842840161,110.145194402084,122.675255481912,148.467793365148,175.899060995731,191.748626036416,146.380497536703,160.086453109575,108.466812366822,135.545258306395,98.3726383986124,97.5378504111625,136.237335915275,137.815345468892,175.903970093676,128.550002626394,214.791252315998,192.013072584537,217.9422312412,245.727050485741,155.108691353361,221.567827234659,293.012452192834,180.026024940997,184.083100575796,346.69026516821,313.726716068782,65.7500178025371,102.065964257849,351.662272901,450.829986614344,158.281530146205,127.10560087572,279.056932232238,395.06034580553,337.335368993252,353.271692603487,315.007916164215,120.330179235703,144.978791166754,201.204979696584,156.955744559068,189.728209097138,215.281712924224,140.99554854084,193.835978439755,138.31838444279,149.123980606787,186.479899163742,196.865992226223,139.122385875367,196.483538748358,119.985358658141,153.289945627993,174.737485944451,174.593824141767,137.910148530127,183.09566779249
123.299183821414,132.380565030026,105.097431452004,122.263022766729,149.720309051785,107.011937657172,91.4510731787057,106.086983620326,121.447428344575,147.545227439654,172.081899207606,205.422734628484,154.403109346026,159.530800189809,120.402788636882,147.039363431386,118.243447337151,109.29800153959,142.154359842541,168.409806221984,186.707799022128,187.918980486872,243.311360141223,199.26056704453,259.891861907478,263.948438131567,271.888174529167,288.157921771529,287.328350717916,270.815480407701,281.875694727637,267.638082444116,247.126007600107,142.256469004794,200.372526079859,324.707804074771,374.699373742676,45.8115869007924,125.461431683598,267.087270314949,347.237431911507,232.572209208977,320.439132353437,277.856997479157,59.6087628623078,141.105420563499,185.912491961819,147.138653030175,168.86037793295,197.777454093839,136.850119840775,179.647726427428,134.030119197107,134.513991439409,175.405221734325,186.565938988882,130.998420983334,185.657312150003,117.934915308533,144.19173860295,163.085602847353,160.476807904088,140.767368041437,173.124955234118
113.844539119073,118.663578022642,96.8714307079229,110.802851852927,130.990777103797,103.477925565821,80.426433570023,90.0868523257893,112.343279578266,137.674291375937,154.39526354163,208.579914608842,146.721363133126,146.352309419974,123.292845893816,142.447158968105,124.083842467226,103.133283087339,129.947138194736,169.691475195962,165.105879618404,209.938041156831,224.765791077881,173.183767997793,233.257041431123,228.090346442157,304.151149848788,267.243545558334,240.442398074607,255.342073964119,270.550163682764,235.426674076266,173.232130802031,144.581653017685,185.53050694182,296.837312026216,321.116001701464,-100.18080831477,65.3513311102363,206.055395586296,327.025856824826,128.320067646647,252.175089636896,239.250137263495,22.7452303709453,121.5213495898,151.343274344694,125.267430625868,140.363026676426,168.79650040372,118.552470789525,153.110798059873,122.028050032068,109.642774230109,151.339558871228,165.038673365577,113.558120985196,160.901335172398,108.880899054702,124.751440655282,138.29878620864,135.125165637024,125.300197370486,146.610060280636
72.7880999897088,66.5267353102953,49.4687592248301,61.7401430070482,67.3548011608871,55.6177081643975,25.6021960695673,29.7003998574095,65.5052778062597,88.6264269290206,98.45178921167,169.538962304005,97.0651236617604,94.2026567468517,88.3312835043758,95.146878839042,85.0904578129037,44.4961027647012,76.3334314649534,116.514391593989,93.153644205224,168.223819802886,145.873405940168,86.7081505744795,141.561565439221,134.730588905626,252.423418419249,179.450233864717,124.2011237517,180.350224378426,168.051705586008,165.221253207977,88.36493575329,109.701054152642,110.711100891045,205.203567441483,243.381304772999,-226.779458915523,-2.59243856730704,108.57374632086,268.442416107152,18.8804480721577,128.472380872608,163.349373285274,-10.6382391040738,66.1791346810769,83.7862996323192,70.5067129384302,80.8763470530114,101.921510298529,58.2335062434022,87.5883488836811,73.8078726443175,50.5197064131503,87.2393149780457,102.178461670318,61.140829162531,93.250582646777,55.2554152599818,67.0139579004023,71.5291533180076,70.6968658043051,68.8406056125488,82.5058425590416
32.3267885946688,18.6245466730432,8.50397096249756,15.5384319955207,10.8285985645619,14.9341552198192,-26.483204155601,-26.6111060293104,22.7026153687584,39.9484174457403,46.6012261163952,128.566624192931,50.2641611156871,44.265056402309,52.8136342980223,54.6453285020112,47.7919279562414,-14.3449724155977,31.5459843814322,61.4739066715615,30.9777540881285,115.645335587287,71.7352335959874,9.2199553801029,54.0601438611753,57.8948796744352,190.092701788166,110.171909978594,25.6170558882766,130.694487299762,99.2576478335859,85.8048450146404,51.1872893617804,99.5721567571079,79.217019395079,111.950935929482,178.660429456079,-221.139029427752,-9.04895717791432,54.9429253961056,204.27033765486,-40.8768975585737,28.1190702215958,89.5143949251701,-6.20328605461195,25.5729953152575,34.5400679783249,28.0636780444419,31.1791660333871,40.0664361239529,4.66582035665169,28.8893579489924,28.7961265143493,-2.43091946215706,30.4463374949695,40.0369572124528,16.712205165603,29.9534775856884,1.41665998221316,16.819068342012,10.9342261215885,7.80435952668303,22.7328430573695,31.7754019948842
17.853189990876,1.50252543347075,-2.42015186509252,-3.013054619202,-6.58862279928732,11.664658365946,-38.3304771439214,-46.9434834433235,13.2670820668191,22.2133884970475,26.9606214493097,116.636273550053,31.7687476182847,24.9126814882393,40.6749888726076,46.2605370295065,37.3512230822486,-38.8587615182438,18.6544462936311,31.6688792231267,7.19332319087393,80.3415572734785,25.6483321925581,-23.0147895276647,-21.4358298748727,14.8973902131995,133.446325085322,48.830514912215,-14.7618836729061,81.4428228980295,64.509668016905,41.8439130622719,69.1573645118757,87.8868507163942,60.87732202147,30.9195834502851,131.392804384006,-81.2180337613227,1.44253209720489,22.1602276751376,152.27293521242,-30.8791494292214,-39.7412701833432,24.0472098496141,67.6010150936563,12.5840232115349,18.2414622248787,14.3167039363608,13.4156360605855,12.1840216403327,-13.1659423029683,3.3348012935047,12.8055631763561,-26.5035797154613,4.84230044163046,6.89976534745173,1.96235290365914,3.32667114011569,-15.2532149395963,0.811159860300971,-13.9826991271503,-24.961442146739,10.0140232417963,16.2790319610774
7.70896537025009,-12.0866480362057,-19.5480313387834,-20.9127888033664,-19.5979593837165,2.38393145162229,-46.1953999812927,-65.1899123271904,6.44484194304402,12.0171090812206,12.2708754094689,105.949172109824,14.3823334718308,12.4812488841355,25.7901492551604,35.5311185074758,17.2661607356035,-64.5712625996718,1.1764952993496,-6.58303846878438,-24.107278518659,33.1024632239845,-37.9225142203317,-61.4432355414619,-125.694673222259,-61.8287345860332,42.1927463773559,-84.6475206051657,-79.594714097428,-41.884900340998,-66.4290207312711,-53.1288119971689,58.4271943507297,11.9770589187496,-53.2315195747755,-143.828092164686,-26.8472253635672,64.4768054615664,-65.2094858506465,-102.934003935798,3.74515582618435,-32.082546040016,-180.318572866824,-112.326316207754,151.447009229863,-14.8373280102301,-10.6883301381406,-12.1308507891637,-9.58717278600488,-13.5689996786123,-28.980703125301,-23.7016421357407,-3.98062645242084,-49.9047916777734,-23.3461399893185,-25.8314176557388,-16.5467555084986,-21.5412266642696,-25.9611809238228,-14.5411127035805,-35.1946507494237,-51.2745032476249,-7.13373156377744,-5.51498284973772
-7.9051412348947,-30.5707860600567,-45.1274711855193,-40.9799212309418,-41.5797192631528,-24.9990679100189,-71.4162000088807,-91.8153136947132,-11.6429359226565,-2.69829292161215,-9.22954628919418,87.2122363119898,-4.93083426499014,-2.33918649588513,5.78167946262637,19.248211221593,-13.6562238681599,-102.136231256695,-27.6545605266873,-51.7558369194457,-77.0971332079196,-17.6163624196958,-115.106028244984,-127.780313403947,-227.482552555715,-188.68524567211,-49.6595325596848,-265.247409460323,-224.579223802236,-189.726802715536,-312.875262668839,-281.515200598497,-63.6916616424882,-84.2780399672109,-244.285809482622,-426.107800770812,-384.389844666596,100.392622845566,-182.173574701282,-317.573887490587,-320.967268250541,-136.118896870662,-412.846276800201,-342.128139526501,125.070454719448,-61.7327432514369,-63.2917609887734,-60.9256874141653,-52.3444847497516,-55.1892209835307,-58.6587215086778,-64.8074823779147,-34.3679744283283,-79.6832750279482,-59.5225253140549,-67.5148554179359,-48.7770387087006,-62.4191017253458,-50.8465590340954,-41.9095815990814,-62.3420241704956,-83.7149755209139,-35.2017897444771,-43.7715107512119
-32.3261901485189,-53.2963269574382,-62.9919051859034,-60.080725618421,-70.07520577243,-50.9643829006763,-104.029659030259,-115.549523601288,-37.5592060698242,-28.5894703258443,-38.6096722482587,64.9907859373514,-24.402420705315,-25.9748094952273,-14.8992822976215,3.1705342860841,-36.617531079703,-136.727675722412,-61.4779469443603,-83.1958687624649,-130.95948783506,-48.7889818254525,-171.399504887628,-202.942401506804,-278.314127140159,-309.70749790824,-82.8690158892989,-392.914350555172,-404.864789451959,-260.033491166884,-539.183409156613,-565.613739660443,-318.720500316029,-116.972409845211,-396.301691084493,-674.7189008371,-807.723707736267,-36.768036631685,-260.897957909241,-514.11953000755,-706.785991998368,-351.222694511531,-630.96131528967,-575.900816929866,-84.6545150591068,-115.35299809202,-125.093957707636,-115.631446537229,-108.752262221531,-112.381286379906,-99.7854712264414,-116.177015419801,-75.8354945420071,-113.885520660561,-100.369856994155,-115.347121289758,-89.4688896538306,-111.778960111093,-85.8804518877928,-78.0665143928096,-92.2648985570803,-128.289018344445,-65.8451006428622,-86.6612336801735
-84.6411248324967,-106.070866893976,-100.599982962317,-109.096197753498,-127.694110067743,-90.5845230289682,-153.774708707037,-157.986522834753,-85.7094732121885,-87.0019013654509,-97.7258347161023,17.5978539223707,-74.0234021741643,-85.4309028007785,-60.6922338580047,-43.7422180496588,-71.5367297339546,-181.751685785171,-120.699734644819,-120.169004045645,-186.935866734647,-83.7489432304149,-214.928961760361,-276.48667259416,-297.29772955964,-374.925585715657,-83.0860885417196,-423.537931432727,-528.005816355137,-247.613710099086,-619.487574271578,-725.728706973232,-609.725318261895,-90.6245954051376,-443.374439010657,-755.227362805713,-1021.53900115522,-325.230569911856,-282.300246340973,-611.565555803116,-925.315019264528,-585.552707087472,-750.993359391261,-718.975170955444,-397.506179294203,-188.441832010384,-205.649968728596,-184.116416500929,-187.457702742617,-195.256412337445,-164.233701059879,-193.96302879625,-139.312819319762,-174.213717029145,-172.250477815128,-187.270372744627,-150.538991173978,-179.521611995034,-143.819877282549,-140.646951487975,-150.972258741249,-202.451652021565,-123.58620190102,-150.229418381054
-160.512392874496,-189.985719998676,-174.639235604114,-191.854013587279,-213.460738490717,-155.491618606529,-226.237629480052,-232.07029905359,-155.442290721897,-168.889514315352,-184.581393167661,-57.6247713356206,-153.922886634742,-174.363339110848,-132.439959143078,-123.759065852779,-127.25782929697,-244.186146953949,-200.198198834065,-177.851254265094,-242.420131194539,-139.797323105121,-255.045834023285,-327.707181918539,-318.029874159733,-370.717147444333,-105.654877521009,-383.905849701412,-524.294107289532,-215.195761927984,-544.992070412685,-670.116775218683,-766.211964826345,-58.9595908884171,-399.082957916673,-657.092081670515,-906.803732583505,-615.223551227134,-269.035497403614,-584.484243899634,-876.237373514356,-732.474567129272,-770.037868783027,-760.376904764005,-649.545873101779,-272.747807423688,-299.538565929531,-265.750968636125,-273.604077606981,-291.263230176371,-243.333905654292,-285.899460661892,-213.556594137953,-256.502560145846,-266.562564063654,-276.54316603844,-224.302572259968,-261.283823887716,-222.365484729226,-224.24975255754,-237.588500612026,-292.563411087484,-208.139473872533,-232.770656770417
-237.611563070398,-272.279899207688,-259.457337464416,-274.965975069185,-298.377255490697,-228.267560205378,-304.926445958892,-314.690253345349,-231.104229251864,-248.306606364064,-268.813851225329,-139.875737521703,-231.415566245414,-259.199744346359,-205.94487958346,-202.241573027784,-186.093945024736,-307.829322156214,-270.654597998748,-243.152024008454,-287.432752552259,-205.016859627083,-286.924175245588,-347.886345178625,-349.189874427238,-331.599167624658,-163.774998096167,-333.154137640569,-429.353754965209,-211.494520984349,-417.698416265724,-507.376013835817,-754.224148277278,-59.2937827438554,-334.20280206449,-497.205684203764,-657.241805388647,-753.259029704395,-249.661989524225,-490.318299803687,-702.887334899491,-767.641181760761,-734.169372995477,-762.211812168845,-783.864350071607,-336.503265045435,-377.661395718694,-336.188184498087,-339.388712728304,-370.290794544893,-313.060061379631,-358.835098590652,-276.227430094232,-331.498877245064,-342.417547258254,-354.337926417206,-291.835232682862,-334.211954852803,-296.414772849378,-299.458270824921,-316.044219912719,-367.063035760403,-285.379357781135,-307.793857143427
-303.231298213203,-332.509276177204,-327.964473729572,-338.881178008044,-363.485218051868,-290.119651409911,-366.791436601276,-376.903720196721,-300.305234862566,-314.197311061494,-331.267685512784,-216.206117900211,-294.275807450776,-324.288820248517,-269.076804776038,-260.423954315063,-239.953995122604,-354.99284136603,-316.944210364858,-296.271918520928,-319.888036185115,-265.062623100727,-309.010985221553,-353.889664360955,-372.669141365486,-294.522600966842,-225.663232673906,-293.101151780921,-330.470662856544,-221.100637232121,-318.233235511456,-373.396703601297,-671.283250698677,-86.4926875753484,-290.7571268617,-381.580880842515,-483.369299922323,-693.792281442926,-240.650918191639,-412.826112099545,-584.59966456484,-691.281606907778,-669.332801435392,-745.522380204174,-816.420115926377,-368.775668009418,-422.728391608808,-375.591829621266,-382.859473326648,-417.034770197168,-362.96183334375,-405.909489937708,-325.140783886004,-384.578226581108,-388.745411406243,-407.148372450518,-348.086432969201,-386.034301073407,-350.81572130041,-353.975352078053,-367.040287757947,-414.311085584194,-338.866198109003,-363.749904842788
-332.27881963458,-355.66278751586,-355.599354886976,-365.37801960829,-383.903449373023,-316.450377404171,-381.704882446667,-392.640845702861,-333.666425729254,-341.040477384403,-353.438068742179,-259.927547805297,-327.037972794406,-348.668656990047,-302.053673980865,-282.350313927405,-272.922809696612,-363.282821917212,-317.588100891305,-310.952433905435,-316.311099934434,-292.548746802057,-293.854033761944,-328.905643757178,-337.868176661981,-227.328549145552,-234.898906580281,-203.094004602828,-224.927166486185,-168.624724844492,-197.846908333591,-232.553565531999,-520.758844531191,-85.8432562883645,-205.52078128427,-265.692911507572,-322.989951913886,-452.173349631861,-202.376598591365,-319.913374199179,-492.483801307737,-474.947065565037,-538.341291632662,-631.20791870222,-691.982863237808,-361.137141096157,-417.689487786822,-367.387263184969,-392.741556024309,-415.368092096238,-372.561008816476,-413.4170272702,-344.086617857754,-394.011600580926,-398.249406648435,-414.604563416305,-367.94443501144,-394.213649407078,-365.328063659675,-371.212863975023,-374.76871510647,-417.509584998773,-354.570602689953,-380.841657753452
-289.190515716858,-314.569348604709,-314.985190279011,-322.406874517101,-330.104942711104,-278.094835994962,-327.940867941837,-342.625224786393,-296.333259664896,-292.072505965522,-304.047047293901,-234.14525840208,-291.128670585328,-298.363011400883,-273.11781390365,-239.784718005032,-249.967309199789,-312.347719240086,-245.34444983298,-265.315417736259,-241.451281743672,-258.626728934233,-204.001989252881,-229.09205486545,-221.382698647044,-82.3043624732974,-176.789599287795,-16.356176599812,-62.8079854895591,-27.8626778498396,9.54008151106018,-6.49976869032638,-241.892184551342,-28.3545868098489,-23.4333582623016,-60.970298572541,-62.0037723095737,-84.1580045372172,-92.9785095788806,-129.752360347558,-298.688658006967,-155.893421003859,-322.942215459235,-371.794146154775,-379.708597590414,-292.927136787254,-340.736450739355,-297.133805613568,-329.61715688303,-340.247031719717,-313.091693157195,-344.287445577561,-295.772406560363,-328.852727253744,-336.753718037597,-343.303241394704,-310.122948512018,-324.772008488535,-309.600574189357,-317.023797629502,-311.496337802274,-346.290137757007,-303.616348217566,-320.110321763896
-191.219517257217,-216.951727997908,-222.358905011116,-223.153077252723,-223.910412582887,-188.600826146972,-230.086981621843,-245.389710775494,-206.315516119354,-185.805136421271,-192.105842711989,-156.275068313972,-193.866754340506,-190.518767725249,-192.901340431148,-143.479851590972,-174.762778139719,-215.813775432139,-121.688388740057,-175.499362308673,-113.336180555941,-181.802011466919,-66.196485593275,-73.6313101971041,-85.9092853136723,97.0918675570878,-112.389556905107,185.279038225125,117.467181380138,106.61300248285,233.384216754165,235.325315449494,75.3187970357739,24.8295251448312,169.254596597208,177.753031749057,198.047151584049,271.002200008432,32.8268495346263,98.5664521408152,-32.1491111294999,130.283839941584,-99.6724467836836,-69.3347113228558,-13.8082905293428,-187.947772725335,-215.910933509277,-190.942268474537,-203.226491348149,-211.06157309249,-207.137424839692,-213.153288958105,-195.322379920831,-213.435548985287,-211.603860816159,-211.854633886501,-196.498046267457,-199.701402809753,-203.905327285267,-207.133577722781,-196.490081416131,-219.631918829132,-201.522950655941,-197.51765652772
-117.211670478585,-131.489971013313,-147.654044221591,-141.974191534291,-139.408466414116,-114.48287534018,-151.136167814712,-160.021439558217,-134.436889993061,-102.760107951192,-94.6256820634751,-100.291306761342,-110.076604950723,-101.271836626483,-121.983653637134,-59.9507504805597,-108.404160939004,-123.518696640769,-19.9893765047884,-90.7510175699127,-6.74624929077972,-112.413186542112,37.4062944007886,49.429113301089,-8.10109199755506,203.185878891522,-96.5799166852211,270.108936312621,220.720269035374,128.22818354288,333.108829401491,358.164246208133,245.180651135113,-0.62938789992281,242.490122311853,303.429734923005,293.400250659788,456.4184289826,75.6177833528285,217.923724278008,147.415834966945,268.652383521768,39.0002156096214,123.989673313403,222.114498241793,-115.657932350883,-116.881645554118,-113.838466238188,-103.512889582784,-111.050124335092,-129.837486948721,-108.749366944182,-122.964959892164,-130.475916414014,-108.337369475828,-108.326302645576,-115.521809955138,-106.250807004218,-126.769569563958,-124.912601605029,-110.622973975735,-121.436536168754,-123.579181481542,-103.351374760932
-94.3530554243232,-94.0245291570504,-116.595631285681,-105.754321733237,-102.644189526027,-84.1899918676162,-111.343145832521,-112.438220673894,-102.782490149431,-71.0592205524085,-51.9719591517412,-82.2607710801052,-70.2662710342751,-57.8081993812999,-77.3813201204413,-15.8279738944606,-71.357676307973,-59.8469294539968,29.1601445308752,-29.0466147831649,45.3904076371815,-58.0030160356331,77.5623261445063,101.743862985365,18.382102685086,199.61486267929,-116.317007279316,227.563724775078,239.461749864601,42.8554129737552,289.554912759396,366.081451889437,250.138760070633,-93.8430869386163,199.230009283783,290.022900894863,244.897567267098,465.318644081623,34.6497924100865,221.363806312736,197.889235176771,277.617121148982,98.1464427833912,183.703703328596,296.425697706949,-88.7583993851068,-72.4713623461525,-81.7102784328872,-72.6294977738386,-75.6322988245043,-104.38911099308,-71.927329305348,-103.851128140284,-106.49834336384,-74.4706013807729,-73.9728591365081,-93.3329557738548,-75.616995351933,-102.734558001839,-101.215716429326,-83.6754313400008,-86.7059528425633,-96.4065320642015,-75.3225198894779
-59.4806150811876,-55.0665000058194,-78.0615749099939,-59.963049321793,-59.6681838832158,-49.8392686875825,-71.1992701272854,-67.8950665224476,-57.5828819699243,-26.9849962879218,-6.39691273228442,-30.978194915551,-18.8959362248553,-5.04717071247059,-14.7039900475142,37.8189196185346,-18.5353489318534,-8.04640525790497,72.8139717624621,28.1498249154935,82.6384743818837,3.30468265857252,93.5986305661922,130.719569782879,22.6036708787016,148.70550986362,-154.884500949837,144.023373353833,248.477870464708,-83.7474924307372,201.483387199409,383.71837401251,254.260251220712,-212.033743824897,133.50742396417,254.438469078121,203.832567192135,446.912059326074,-8.81677568070114,237.633332301606,243.13913540609,272.702245426078,147.757400880711,216.991977116961,317.456056659805,-53.0451192090037,-32.6327620439226,-44.08473835651,-41.3833820030821,-35.8599340158068,-72.3976174736733,-37.9534436685139,-71.43092383085,-76.9169483306451,-46.2159887603816,-42.3388141160233,-64.5966495837046,-39.5536880483652,-70.6678458442626,-69.3886951613296,-50.8107983189172,-53.8293786566825,-60.1436813557192,-43.0469429307816
15.7890273082338,13.4010832605872,-17.2301854370623,11.5050679156481,14.6596225753877,8.68714154094644,-21.5678206800658,-14.6815338322819,18.0878045018609,54.994146299669,79.5100712298246,75.4882873076821,66.2542045213553,79.7119686342963,60.8717369029368,117.060392294225,45.6029448869241,25.0692526464987,136.890383862781,70.2384866803438,122.236681246931,51.0118211627834,104.329154249624,160.906007774685,-14.3374910196281,103.830471446903,-217.543915902329,62.5757006712894,256.727686921542,-204.251097217368,107.4459481115,425.091462053852,354.507985303301,-353.563583548572,69.4379589665817,246.841913907959,228.558827223085,500.667282941415,-28.0252939604463,301.860423594642,339.395265792827,324.806002941012,198.16969852868,296.457173542721,362.31460663484,4.27356430822301,38.8595846760869,17.3671247125633,38.060822153892,51.7657946474149,-6.68491441493442,38.2082121485901,1.3879668160472,-10.433130899609,29.9650522627085,37.6647425400555,-2.49098450595973,39.3975026702121,-7.34419168559747,5.03310465164642,23.2876281689142,14.5341511840303,11.6074662802288,39.031340876503
80.3996918407528,70.7655774882139,19.8278363739998,62.8886063922226,79.9195297016859,50.5119378369238,6.46398238507113,19.7851537461956,77.2207158968505,122.401135894399,161.088369340527,167.404154520656,135.075367013978,151.217999832844,95.8353148920272,181.029181866103,64.6288000976503,23.0548991247598,193.154730693655,75.5260763732488,141.902551396656,55.5118111402638,104.518951818798,168.266776412688,-80.6454802905849,73.3895172537092,-267.212277756827,-10.2228412001277,209.571606975937,-265.883098864877,-13.8169030287552,352.784313116973,491.950164041925,-484.740898328045,-11.738731394903,183.722200288731,243.277712218164,572.916345609524,-43.209065512124,323.76511374546,374.583982124762,404.717305063099,193.675236347653,376.756361952493,421.441378551988,48.2863427568608,121.691133861867,72.8418588416647,125.305707976941,141.842036867494,54.5252835204614,119.55591702794,64.8169827411507,49.5547814332235,116.725643523766,128.660674223824,54.5912332288591,119.450140311962,41.3457390843283,75.8638614400464,96.9154290653193,83.4967601603284,71.8686023780449,124.117910249292
107.555319653526,104.254290997794,32.4794485714488,91.3813227375188,122.058206902113,69.2069270665334,22.437502615316,47.6831003207297,106.757814969157,157.702662675403,209.976744187492,199.370264854309,166.589228623569,192.846944871805,99.0546168328729,222.9818910271,48.2815285487086,23.803279455998,234.618123700035,72.4888550644092,154.777432499321,44.332424525505,112.910024292722,168.749205446621,-105.004096160411,73.7749567544059,-252.313320941326,-41.498993349341,128.178641146627,-232.662740930848,-106.237896629956,117.699839518218,583.098467813522,-506.247997999346,-52.047589318986,32.3086456557797,192.81590690501,572.016786326394,-26.0622442116092,279.220603746947,270.368175090568,445.446872345071,129.28564267091,391.631136779296,483.173584766379,85.0648042891661,197.345705685804,121.57099108736,188.121188326645,202.93349422217,98.1329314470605,181.320824103652,100.674875662149,88.9247984223507,179.020425178098,197.327183882849,97.7382218574722,178.445096492932,66.6153776261475,121.297079647403,149.992622491985,139.620982241291,103.833740478686,175.539143457468
130.088870392973,146.2027515285,65.4208992738177,133.907539475369,167.371436403034,100.504450409703,61.9852217412631,102.375290700974,136.263758562298,191.52050850412,245.33118870977,193.21912390677,189.321915907506,229.77846680023,117.836292888373,262.024223525163,54.9508466506631,66.037265467339,274.337616212621,96.0656819759318,188.948230792734,55.0295304079315,143.442433318353,202.434254481937,-63.1535316871296,121.690699957193,-184.768378158247,-3.80890586315535,95.065794613616,-142.81289782984,-91.7608616802746,-114.264727566733,587.665135610757,-382.641528245845,17.8692955769704,-93.0849209719485,122.542822597425,470.140204804736,60.4136264950512,242.360559103528,125.110612192709,398.325504253318,72.7291542650751,337.580909722633,544.825010033975,145.003284936176,260.725330829511,181.618016409418,239.728615892685,252.527060503689,148.245781886946,240.071960953402,138.935644653139,140.374217404262,230.548686255901,254.133275468404,150.400095283005,234.415479215425,107.322000338882,168.874616296882,202.614082081452,205.093080861924,142.484050440034,214.773981933705
157.390483757251,183.558667900495,106.01955182624,171.389182533567,199.983247365831,133.483625068928,102.330367765116,149.241066415749,154.471964420018,211.286314010256,257.60488332202,167.336986954593,200.046853720927,245.11131372115,134.173681049759,268.640716741062,70.8894812951261,102.963803047874,281.544104499698,112.445927222418,208.646841447714,63.9071976160721,160.169647695296,228.660264186179,-19.4231007823016,173.272918026117,-112.217012861105,70.7575580129667,101.544259829057,-62.4159186120262,-18.8988967232056,-174.789746190516,489.740910904956,-208.503380347714,132.206859867918,-99.3201615333211,93.3179154999871,295.887503706429,162.744217483197,217.906916350277,69.5802641482454,276.637191658087,52.7770132071691,235.481935316298,559.694941337938,196.274145269199,282.162826287459,221.577253428404,268.806635354004,281.19030945487,188.294745873674,278.10655674151,172.556870142848,187.766850632719,260.388463671123,282.446480209917,191.453390352544,269.814692398008,152.420758441514,206.54124259817,236.439242205609,252.895864180518,181.236593343746,241.963899810491
145.876684908227,162.510976278632,95.2559689528704,145.990646470443,169.559908004046,117.426720979671,85.2456978307705,122.373651830301,120.165938658605,172.590741704353,210.659903165895,110.293778284902,160.671438125927,193.581899562124,95.2770135862994,201.286976277432,33.0302948258119,63.7747827733084,213.48674757175,66.4562136080947,153.45022433891,29.0556502993008,114.216885141606,164.648483858475,-35.7094662461741,145.585846822274,-56.9061977509244,97.4114855845826,42.396428725868,-17.0118057352216,-10.8136492209685,-146.546459492762,311.889223776082,-88.1942722488395,141.24566936559,-72.2362353668936,73.8532469765377,100.515461819073,178.158828924944,111.576492738422,77.2724213737932,159.621034694389,14.7988400293407,80.6831967546353,478.691808102449,176.498123025347,233.476295225111,191.884885104459,233.454928588929,245.64913967085,166.524378358576,245.981383202457,155.900047873424,167.98927391533,225.463372659887,239.573196435989,166.444963539927,235.497291588248,141.212271466201,181.597263867443,204.428730531218,220.904435439024,164.640887225458,212.665314979213
88.1884741702309,92.2755429082519,40.5447055409178,71.346789410533,91.3402703629152,61.8765628313045,23.3708452441434,42.3671052120843,55.66403184061,94.7152304895759,122.605289760958,38.2133708388161,84.2038175993302,100.00176423646,26.1872869263859,98.8186801161552,-32.9105919133478,-17.9394128247715,103.565736922948,-8.99473581741264,49.2869345426422,-19.3458397059137,26.1256372390325,31.8060592003502,-84.4294146580825,28.2482789767035,-2.50743378021733,29.113145249898,-109.171797708891,5.40506858163499,-93.872137407289,-223.143749078243,77.7412735601541,-12.7022306111459,17.8982660796369,-122.554144065725,-25.2974290516097,-120.455889445564,95.6279432173485,-78.0625775097003,20.1365789980113,66.5087672441717,-75.1146743502788,-130.097091806878,290.44707003891,100.809272852414,141.085977598341,111.140588913702,143.604714881409,149.403727406977,90.8577790947186,152.361516946398,90.9418964814461,85.5686916267553,136.103662718854,140.890147773287,87.2206572804133,140.908151045407,76.0895023507491,102.008539261351,119.565680360952,124.181510302131,94.2013032014631,127.776995163121
39.2749760806269,36.7051197243594,8.15822258797984,17.8765827517066,29.5548139040153,30.1191304322555,-16.4931924947228,-13.6075264398339,23.845566739286,39.311507358352,49.8468078174345,-3.43894110014967,30.5495351415274,32.5919547838651,4.24511239663935,39.3740997503483,-34.6100278417826,-46.505877872864,27.0486475101286,-27.6843538819114,-16.8676519666847,-10.4097146205082,-28.4251756799631,-67.0693764865402,-87.8403935904367,-92.0371228336176,83.4289541501721,-63.9952507819281,-247.236263255437,34.7740297131565,-166.91615432342,-381.566236925371,-233.139443284503,84.9599812599303,-94.1361479252811,-172.55893678475,-196.730371360769,-444.3723491859,12.566809956385,-190.327397014337,-118.487560014413,-102.46077285342,-145.007216566717,-344.411578864418,-25.2689580716381,34.2800199861717,47.8436602705193,34.7448676661865,52.7653377280652,42.2864326981525,23.3876188656543,53.7471514004026,28.735365107057,9.56837523317536,48.7375369078043,43.2500162307212,23.4658601250778,45.6043056384903,23.8795785827567,30.6022927080585,39.2393369877697,36.0975667456467,33.2032632416454,43.2256008268052
7.66829836277378,-6.37049437748509,-3.5076934409596,-14.89778112733,-21.8869320227988,22.4501812301948,-37.4203031267473,-45.8499424962228,12.8369187763842,-2.22650213524957,-10.4833984985205,-22.8613685305136,0.567816387413323,-15.0336927245646,24.4123185403617,17.1959296531743,22.2990177520427,-22.7492133580132,-13.7651620249922,11.2747632193862,-29.1856016923777,49.7774596232424,-25.8323565234305,-101.082770954957,-27.8278688592683,-139.485618033928,196.512583295777,-71.6373514256961,-287.537201253701,98.7409164943022,-136.893311824817,-442.192556455361,-556.098187489642,197.371225383551,-75.9162934520654,-101.691709197615,-311.230086383359,-814.102866493786,-9.47033127239495,-127.814347068389,-209.994940201547,-360.172616174267,-111.18525455129,-474.972402554797,-443.82505783171,-29.3351080127652,-58.5404644371268,-43.6231720499464,-44.9426062814317,-71.9799802470246,-34.9053733017612,-48.7533779681906,-27.3721741026569,-54.2246116097818,-37.8940306761702,-58.5451935826429,-24.8464956072044,-48.7594033287922,-13.5321920501593,-29.8559873500802,-39.7755985320948,-45.9756761662202,-14.004616625491,-36.9495586083542
-45.8456733965969,-79.3315009138221,-45.6321208105571,-73.0087294116272,-100.822663389269,-8.87095621540926,-84.5430409858133,-100.928156838044,-26.9374834163151,-70.3050804000241,-91.8275742935952,-61.4687305755029,-47.4675358010495,-83.6113127175414,21.9294098719721,-24.3101916188572,52.4507194257391,-15.9610673410011,-59.9720297625559,43.3253020510547,-34.9285532181154,97.1149629090419,-2.22877471503162,-107.690719456929,48.7165684904798,-111.664990805796,290.978086325939,19.1466610412201,-253.69942813262,193.836813448061,-24.1616928722506,-369.961866883628,-695.998071954394,269.934160265181,33.9033003348107,20.5083393481721,-295.43024882174,-957.203868979767,2.01906796386003,-1.22105705164587,-183.303545014176,-521.090953706371,-18.3878690969974,-486.349451056074,-781.043703923999,-129.535041680173,-193.344767379312,-150.893849085573,-176.769106183377,-212.080502769659,-125.051817985858,-178.624333384475,-107.348445039699,-141.773141483006,-155.65896605573,-193.663377835279,-105.165118105148,-169.130522739982,-81.8331841858525,-115.294161833964,-149.66729139574,-163.003190872926,-88.9284779170147,-143.737782189425
-98.3445372978032,-143.232005836871,-93.8297036285007,-126.744734746962,-164.086341581186,-47.4930847018747,-125.641960856321,-149.701424814761,-69.8305557939794,-127.419522070444,-158.23159487943,-101.060861959414,-91.0293402446856,-138.348754963341,2.34087588809549,-71.0459710005655,46.0863317009764,-21.5516115894674,-92.0712407482741,58.5820276672755,-37.2416541936766,121.530089166108,25.7686815319376,-92.6009737216564,110.649881983351,-45.857941068121,343.956609555488,128.723171924721,-199.124917657499,288.48399472425,85.6584053248149,-279.56272422333,-592.884694389498,311.659189236426,143.582048043109,49.0103948349792,-226.13227014882,-732.270934778322,29.435036426468,53.2778512104079,-131.922549940557,-470.063391316725,15.6729018316269,-430.432011287367,-837.965857987374,-220.090935208233,-297.429797439137,-239.765029156924,-283.088173326029,-322.692870880638,-208.975008091059,-282.947995315977,-177.475804804028,-214.69276410695,-258.426095858495,-303.195690579209,-182.030277891191,-265.719822549265,-147.369285511925,-189.50515080719,-242.478409116825,-263.926218936087,-160.566959568343,-234.689652548268
-101.009199210454,-135.764099842075,-88.947968810079,-120.923157844921,-157.435185590073,-45.4406821666309,-104.618037934473,-135.461708837253,-67.5345635291858,-120.984116652078,-154.994285839502,-103.488116892578,-81.6872353878089,-129.582330413749,11.980986842781,-74.1716233625239,52.8126536263274,4.11216795940346,-74.7144287690423,82.9264928928802,-11.4445522193312,149.474649041527,61.4794081481488,-47.0684700001432,154.600488269601,20.0314281992002,366.683212873652,196.728961720281,-135.798043495425,353.66912922685,149.951640945526,-219.715076999505,-418.870200375625,360.557061041272,227.024974764372,-10.9428780835897,-187.560898022658,-345.85856158103,85.031207457788,43.8089092186262,-148.669143370186,-337.073875700539,-33.2895373969712,-374.639927649186,-661.780326508454,-228.401995425509,-308.525179751479,-246.192097699507,-292.1223458109,-333.402298899528,-212.093557603708,-293.26620928516,-180.087214457302,-212.758302749461,-274.773615695685,-309.594421088117,-185.732057173952,-273.341372780398,-145.030294562286,-191.467175900705,-250.235334880344,-272.583506221798,-165.676576747497,-241.997141612359
-79.859690217917,-94.2586508332645,-56.0450992580186,-84.6825733302458,-119.722257698623,-23.6593711008236,-55.8307320077281,-87.9571978350186,-46.625935861327,-85.5053269734558,-114.440565563825,-95.6731022918473,-50.259601916732,-92.0334893590835,30.2961567450923,-58.4950989917796,65.5014447857651,35.8151149246812,-45.4454113828159,94.603630670117,17.3077291657471,158.366669356507,79.9748613904955,-4.13050479391091,160.868643932381,57.6692489242845,341.199488140419,211.536459938195,-60.9612831019676,357.277884131678,174.851010935887,-144.032249762087,-294.71196525775,378.782450711466,275.154548290461,-53.0454487110888,-154.249793648243,-59.2738948471016,129.76438789334,29.3350688200076,-181.301620102828,-261.308363489849,-89.2552209956071,-322.584959394611,-464.368403325436,-176.613160000873,-255.992417660693,-193.202454828214,-236.876718641654,-272.985881648322,-153.84885083478,-235.626418672927,-134.654694419492,-162.604623723624,-225.051381856733,-246.243613759538,-138.478069102925,-222.516576853474,-100.588912883611,-146.042256805918,-202.465215269625,-216.85281639542,-124.126687664565,-191.016915490472
-90.7699430660566,-95.5266947207196,-62.9783094025326,-81.7203389317025,-114.420879114285,-38.7104642642806,-50.5471729397691,-77.1738800350928,-60.0165827969786,-85.2287711571091,-107.525292371866,-126.09619869789,-64.1220975664269,-90.229374276988,3.74548929072144,-85.648366984735,34.8709569673684,20.9990811610081,-61.8831032175713,50.6551879329474,0.403454945426673,98.5258577852483,43.8783784738771,-3.59388295565317,99.1997155200773,48.2546441105674,218.503591922517,156.220315848118,-0.532410999640517,256.119829880785,144.599606343492,-47.9167600886655,-168.512742453485,285.497345331241,232.761916355096,-58.6124373563963,-84.6249306024361,85.0429784340299,92.9644863086167,2.29087127650785,-147.085977824036,-205.637377971136,-103.682164442207,-243.921201161987,-325.326088277612,-132.918936708235,-208.149416981518,-150.368291015437,-195.141532595939,-223.326053897972,-115.10994949035,-186.976260312978,-107.04867248787,-132.644414350346,-182.491061395007,-199.556284845555,-113.515712462507,-188.792418016875,-84.0656434181991,-120.414993970929,-173.239010722787,-175.953321131317,-107.005630797454,-161.071818473903
-114.34140143828,-118.580693625993,-93.2193316990308,-96.2924110189077,-118.848566629974,-74.2272207045259,-71.3128391031125,-87.9929248860644,-87.1318050088146,-103.035750773459,-121.376390339579,-170.297258358344,-102.667220844151,-108.573345842478,-43.5766663431259,-136.157643379012,-25.5760672362961,-14.6956986138695,-98.6454681989235,-20.7633354049346,-42.7603722408246,-6.13455897435696,-24.4894477752422,-21.3828651363124,-5.39670051650135,9.30936580756837,24.4863283141335,37.609551343839,32.900607010581,72.449677486743,47.9041985375752,21.4098463643158,-0.410859880690781,100.672823069576,87.8461772228206,-91.71820867904,-7.31741190805938,175.257855942813,-8.71854854993841,-56.0410395074129,-73.2219620892152,-94.6656210367844,-93.2297934448245,-140.589305354063,-166.92003957046,-97.5421697984137,-166.577305393037,-119.134346450411,-167.682855146417,-191.617508996368,-100.157631550497,-156.874067345409,-98.7796981375674,-118.182868028021,-153.280047165257,-171.60299221964,-109.903784600086,-170.368083945931,-86.0802894864181,-108.887796984384,-158.225026360825,-151.713025103744,-115.914113719372,-152.300182573037
-86.9067217710462,-84.8304143203598,-73.1172935445484,-62.2107850301903,-72.28776427974,-63.1311490875461,-44.8165703322022,-50.7871931174738,-67.1970349422369,-75.4385612814631,-88.2467748105981,-164.536215638617,-87.9602551087052,-81.8592785607096,-41.0639437852841,-135.163216873792,-45.9060087676804,-1.69295673693211,-86.2167291329306,-43.4145313402525,-42.6444092922856,-64.6280836034632,-54.9155991410613,-2.82469933499618,-71.6690367594885,-13.8678539843671,-118.153851873249,-72.1182111178161,67.6803471780085,-76.7832002278646,-55.3069990299984,51.2130789888097,137.937217377685,-43.9074856888794,-57.0206624885086,-159.145587058889,26.2649097957101,247.689272647793,-75.0450687364082,-109.08955826822,-38.318767407261,39.4987237859012,-79.422922265662,-41.6442145770311,29.281120369054,-36.022549883068,-93.1176010758423,-53.812905214243,-104.00054081701,-124.757104477635,-50.4467787272515,-97.5828969977199,-58.0587639641539,-61.8887720474975,-90.7659870230112,-108.285053314543,-69.397256972046,-110.84937294062,-48.8394370280419,-60.5571408937773,-102.355960956038,-91.0159364092365,-87.8257116287766,-102.659484683691
-20.3586086264611,-7.51706555813847,-10.8297839488001,11.1797537259083,4.8049782842013,-10.4444158351091,22.3201283719315,24.3884692951832,-9.06378153935441,-14.6922921734823,-15.7400187750512,-116.744525005132,-25.9326954694163,-18.2931447847335,0.113894730490982,-84.1509503350288,-16.5743737655597,50.6134025378455,-33.9065056589608,-12.2123835676985,1.23251008260205,-48.2855126313328,-37.6153940550918,36.2815267060319,-63.9668087411222,-20.4478705047999,-132.64633011475,-117.300133642553,99.5976520393956,-109.086122688671,-93.5843528503142,56.0875046115569,153.662723314759,-71.8167572733574,-102.1459305105,-199.897176034532,-12.5707816794279,250.983762056861,-62.3933951106868,-116.734649209717,-63.6367348776011,114.599878641102,-60.2376712064019,31.0461127213234,173.58773924888,26.3421346589072,-7.88991285975373,25.501910128715,-16.9261054548843,-30.9352267237731,24.6001322639711,-14.9150234683536,5.97243234919576,24.1363210172323,-6.74901988845113,-20.2014758847404,3.15963288957083,-20.6314516680486,14.8011955976218,9.89297362109554,-15.7474037550146,-4.62487153567357,-19.7747187463192,-19.6275221691278
12.8251943189442,32.0034206616084,19.052373188025,47.6921549474562,42.5268376421757,15.4512460724997,55.795201753153,63.8539980932662,24.0110640386961,12.7012454811243,24.2729871525687,-89.1821271675438,7.40620643770171,13.0680273357515,9.57706677795752,-55.3458572907984,2.08357315989359,70.438453866842,-14.074503348119,10.4273454867418,19.7130881545533,-18.1539771054517,-28.1825141115139,34.5354886388749,-27.0119815156288,-45.6175721049915,-71.2890293951217,-117.377634196977,79.8558258437586,-70.5661231717514,-79.4364533472856,29.5195572641262,43.9815139670824,-48.1865605105907,-74.39773503571,-191.233681809825,-123.343421162977,149.380852328855,-34.2205776172053,-95.4339711705615,-128.063006429465,103.477800774597,-35.0365218326753,66.6747000830452,214.480971738753,43.6356214220478,35.968267151428,55.5224612966878,33.0610366427062,28.1464391155226,62.3689306310156,35.4406243542759,33.4449661659736,69.8983931078728,39.2701960119996,34.5836908108068,44.627638443102,35.4665635785132,46.532902896095,45.5211565849806,39.1199756462797,47.05689804396,22.5569231537585,30.5982641070574
-1.09968364131449,21.046147806673,4.65098009308424,30.2755872836139,32.8221651262982,-1.19583873581681,38.1935932011715,52.0657996178488,12.3226283691544,-2.22429022660295,10.8303158544811,-96.7349317818267,-7.59234458377454,-4.36600658519091,-20.113466740859,-74.2305641826228,-16.0065323138737,43.2252390057735,-46.6138720927324,-1.12380202385645,-10.3058513692744,-17.0041232334498,-43.9015047594351,-9.51035388729148,-0.756586299128325,-77.7138965124595,-22.9156876344526,-105.161703332085,13.5339920201988,-46.954578749755,-72.2534963077283,-29.4925715888616,-102.833922591323,-60.3586169502409,-60.6572102384783,-166.042863273146,-262.778953952859,-14.6012467262721,-52.2608242964265,-86.3237800024598,-213.750126093407,28.468003905073,-16.7671090044688,65.2453796345119,178.736340119164,34.3038841471171,41.8686579459887,39.5487829406531,40.6627530500601,43.4202859927859,60.7630357632502,44.7687713787759,22.3450484607713,69.0744326843464,42.4596401985619,46.9195458734598,41.2815472751212,45.2089697929911,44.5106051768383,43.8100840591191,48.9358200284005,57.108087004099,21.0057731062468,35.3548938156779
-16.9108270329939,6.80462868235205,-7.44680118266662,10.8305444384738,16.7512431860151,-18.4064045589281,14.5843109741436,32.4437986672268,-12.5210505331321,-22.2854346959193,-16.6948263250947,-107.912315258565,-29.310037175663,-32.5836981290043,-43.5921974434628,-105.522773165438,-40.37320590536,15.9962686011775,-90.9080580246898,-21.3314027860347,-46.7179084939243,-26.6617623264096,-49.3270274017188,-48.403834036925,23.5343300765625,-71.2129874297738,-4.97439268016184,-73.2774374485426,-27.6281713785632,-38.725843819227,-67.5672815419281,-70.2502347232929,-204.654210299336,-83.1896979067275,-66.6511250433053,-123.663462780865,-339.582713119779,-191.880278665539,-75.5510637384879,-87.8720409381931,-271.537918109171,-85.1893383620136,-4.39716099216018,54.9643404464308,90.342996163827,44.5027769209562,48.478324179232,33.4756089806744,46.2452488566606,52.3195251038835,64.535490670465,48.5340147964552,20.1257874580951,73.193468134503,45.6736732328967,50.4397388383931,35.2176453892645,45.3726955288059,44.8042216094464,41.4060856559241,50.8862919253512,62.5780968489209,17.7529566155337,30.9892737786567
-23.2107135297297,-1.17954189191717,-8.00488923637529,6.07503649033257,2.64491092497665,-24.4638817516455,0.762838268526576,18.9358375752023,-31.5079497853709,-41.2197928463547,-39.6967830636694,-114.321064323317,-44.6591347724608,-57.5073270215613,-55.3468464601777,-132.319410329948,-53.7540131703694,4.59545339766483,-124.432064371007,-36.6811891519049,-65.928754391292,-34.3203849652255,-37.1651291537359,-68.1038303888855,46.9865300847432,-28.633410296936,9.68304827105511,-11.0353915680457,-9.66009839010978,1.80301307523162,-9.88633101747894,-30.7012139807569,-232.471845432321,-42.8666289425904,-32.2296883551979,-23.5259134117243,-258.020551829245,-356.600102006908,-29.8711428179002,-68.3381813830043,-216.670370124125,-190.533420963107,23.1020684029557,82.6904666934493,-28.2218170703992,67.7276038811784,58.3256418730514,48.8899468081408,55.0824757835516,59.5368650358155,75.655161125243,53.2030885329852,32.6323296443001,86.3271191666988,54.0923270062139,52.9599742336262,39.3591260754074,46.7411235903737,46.9338618352378,40.9138522763735,53.854777775995,66.9809081048635,23.7235403067544,25.9137821565576
-35.9019362986923,-17.4978123895526,-15.3316112330641,-5.89217822507736,-19.3542087201588,-35.7430231100142,-13.9860857485879,2.04995632832515,-46.7551622027748,-63.5702239218255,-63.7582042067918,-123.856522869096,-67.9715458188744,-83.4429964728982,-75.9103158108043,-158.054591375334,-66.7605589508984,-11.0880503386694,-147.255313360783,-54.0746950177601,-77.1520087437412,-55.478934095845,-35.3521479879034,-76.0397284317676,46.7074726526858,13.8957870814004,19.5553235379286,56.0222685239349,48.239241247557,63.3975163764166,105.200693094752,101.356198989909,-163.365426168025,43.0059416419189,50.8477623977352,135.780406274022,1.18149611034678,-427.298696834289,66.7493119667065,-16.3374064895345,-8.79170151343524,-192.863888299775,89.7039863715402,180.57887962751,-95.2379340351726,77.1174975603285,63.7134733270333,60.9098834666205,54.4795285711747,55.0193454537788,72.8383954524457,52.4747440769787,37.0153210233666,81.7991125261049,50.7396850121408,47.3123906952058,37.0197917667944,44.4247944904073,38.4866520502814,30.3179288982725,42.7524745089567,59.075749325273,19.8889757845345,15.7376791134342
-38.4978192293137,-21.7989728186572,-15.9176047712972,-13.1677092187061,-24.3877705893516,-39.8958584912888,-9.76748032796243,2.0420500556687,-47.3298596766055,-64.8870677705653,-68.3152726273787,-121.72239465524,-80.5653608819487,-89.2320930703964,-88.5562055146389,-162.74752084025,-75.8606047803963,-22.199117008918,-143.236378879904,-65.213328331104,-72.9738197126031,-82.3378743080831,-41.6217013500847,-52.8507793496276,29.0390234934449,51.9317614359412,10.7084131363692,96.1234698150298,138.314594925662,95.9247192598868,222.022887447606,284.155584782382,14.4651241003678,95.2994065607464,130.191900551789,301.72614480277,333.605502629304,-304.364639644274,135.858878967259,58.5213933749579,285.429646342042,-28.1781080876011,211.28800075788,341.298512604821,-23.8813529402004,90.9016973264028,87.9554476088564,76.9238166309601,67.3227070820086,65.9693085583823,76.5053271031976,72.3501151045009,45.7337232664031,81.2438644168802,56.9472111738214,57.5289006673645,41.0940806550656,57.9910528949203,42.2861643682907,31.6021544209255,36.5316000879427,64.7051187550005,19.0426378576798,24.5333774441929
-6.29154751555691,10.4040224860019,10.7349134608764,11.5981744750942,12.5534673024824,-14.285989261212,34.6198318837197,39.4803975183366,-17.4511266372213,-30.8845305556017,-33.1870532326471,-91.6639657135435,-52.6582941734818,-55.1169763208921,-65.6145875618043,-128.445998197704,-61.2242425971592,-0.0958257287703992,-97.9316221600876,-50.5827619906676,-38.6755039197178,-78.2958263786358,-24.5461827086787,10.6317806355831,33.3221879378517,95.330167531608,4.08835787109282,111.094047302239,239.761448069534,95.3908432069845,287.487333921631,430.162385630557,234.210320202282,95.8909904926223,168.44776272915,406.916373483361,565.055390022686,-18.7319803162715,152.203393713879,134.001330978948,514.350976502421,232.69026216316,371.368560799481,504.029959120013,161.000204169305,133.887080182942,141.150712128873,117.664339022433,113.051291134617,114.663847533404,112.644661555792,125.985661224612,79.4536165396851,116.226947362691,96.9598939366963,104.340087385721,75.3426533638575,99.4512013030283,78.8137613286075,65.8872692601964,65.7063564387735,106.440549529376,45.6078084212618,65.1612194167648
51.3595021868789,63.7055187992492,55.6088363802734,62.1373024487174,70.505137810545,34.6755586358211,97.1179566606481,97.8013338542542,36.7062617999978,19.0142956176658,21.4169243066217,-38.2384230921356,5.15016183954418,4.55534604926451,-16.8519221390272,-68.6354785933895,-18.5976548992672,51.4421076152373,-27.1781263363762,-7.80512512314564,13.4143025763783,-34.6562997712541,19.5625225741196,74.6858127628602,77.7426456338752,128.875154183701,30.3808968328015,120.233270401452,286.769891199545,97.1600624816965,283.68121467917,448.091446855661,379.464996844539,90.9079684183518,167.909239152876,407.890016476908,586.483963979274,272.362976547752,150.49434762738,181.567129260558,562.255548066926,432.769059105645,511.489090926196,589.139412500775,343.601103945316,184.562362626728,191.208544556237,166.236420343169,165.988527775086,172.535371222158,161.402715893877,179.349213664931,124.132044824077,167.950446563883,150.123913025499,160.713959691648,128.636210870883,143.9154669842,131.430674152003,115.588666456193,118.564618998704,159.561448015567,93.0164065906944,113.091972692078
97.4079166495313,99.6259422142425,94.6852711151814,104.097670424187,108.321220416172,74.2651647865831,134.807462993154,139.377830985736,82.968411937194,56.8332773193673,58.2498835389835,16.9732204485134,52.7088586531923,53.5912294955335,22.3294953761284,-16.3611295858779,23.1365335856768,93.6409236772883,26.8116156708938,34.6616496329721,48.253523206166,7.14327284578638,51.4459118882184,90.9920297991405,122.25800676599,123.129824789922,66.7939181439719,111.513768502576,234.308458490622,97.6987208944709,218.495926018369,328.334891491458,386.320905167328,93.7341893447866,135.776074620848,314.94918418249,436.394617752703,426.31248641033,144.859852261335,185.00766494975,455.950426297884,475.83946625861,559.711002154963,568.923678033187,437.757286792368,199.284834650808,200.941997780921,181.34790999657,184.141925870721,193.296705134757,182.459843307283,193.902367968935,146.721798382082,192.804322059639,172.07108216629,181.349603098378,159.983328949063,158.433195349003,163.66407332253,143.528550268219,148.575420267109,182.387348638373,127.46030939888,136.679385212491
108.923203176192,104.982931237876,117.989141141251,115.847472864525,115.791239799821,86.203836996611,137.050491018563,147.274984005151,98.356942492875,73.6832885311828,68.2289807208465,53.220712327179,72.5937678092816,72.7228387857123,39.2571807045278,9.57146307767597,40.061613469885,104.435652127099,40.4008443119655,50.6772063486288,49.1635078753617,19.9008022093684,44.4540270181319,64.1445891681502,119.517374271894,73.2447594197682,66.6302230887694,60.4426028907984,121.96417307278,62.6062493623891,119.814817390263,165.525094115515,291.210148573311,76.1253145751441,76.3478834663217,192.456224736121,250.180778042385,409.700952879987,118.624466992228,152.21132438713,319.177973536991,387.206431745703,495.472678715425,486.559733011943,437.632913842553,169.011859838189,173.605919453612,155.133664544371,159.874680675335,170.445146724914,166.265331031451,172.680930423358,136.905988652219,179.599880578317,150.716926527827,161.48099211034,150.597493898918,145.802574381558,159.637754402506,136.685656443792,136.255329672711,167.95857899776,128.508328500611,130.267419760193
102.467581005402,100.887482318545,128.96612813437,111.544112282027,111.691062628175,86.5063054524956,129.875926312661,140.019950830118,97.35594552671,79.4018613691931,71.0680908473087,70.3117273277909,79.5913211447997,74.5674828484417,50.3560980045284,20.7624290789053,47.2570957252133,99.5166394513324,33.7052371451871,49.1460214640562,35.4326165070613,24.8764250726653,16.3320453425487,31.5477423101155,80.8339862688832,5.73116848044396,33.8543478269971,-21.002490050204,20.9389063692759,-6.12225499502794,21.5171700760593,47.011606849835,176.512968773562,35.4589645687603,1.00669735875845,94.4565114832019,119.385548992744,279.78693980212,71.4598991455637,96.2313114546755,225.991202988735,240.939993602079,374.242654190343,383.354762723192,365.039621612383,126.371913941366,142.078640342275,120.017815762664,126.828532606428,137.032872020708,137.519189958385,145.82356997624,116.750747409761,153.788710218849,119.493179119911,132.995689697532,129.283409090457,130.672778066273,138.898499425202,117.105549605838,109.072841362182,141.874135634819,112.445370329379,114.664519856646
89.3162996339115,88.8089621873715,115.382013477073,98.4839446646796,95.5256104686279,77.8152356884672,116.126386120035,122.664696721977,89.2112768323521,69.1109281488262,64.3934540184206,68.4512271712301,71.3934588947412,60.8398747255391,48.2683842979122,19.3548757744447,48.4249546362125,80.7252709862238,15.3013218768777,33.6699536398413,10.570240402177,22.3325385015438,-23.6346569938495,-10.7562458682435,30.063295766221,-67.424448094267,-9.67249758624337,-116.489168849356,-61.9828505681507,-91.2979711290386,-77.4058408202478,-51.0921239229138,66.8436012659211,-14.5970923349123,-93.1468696498237,-0.104098788091992,12.6230973101154,101.289749707654,7.32895212787136,8.22300597493821,136.755528113571,74.1049577133861,247.80157782439,242.862927038686,221.283166248351,86.4969565259296,109.576492812239,84.8412748682159,99.5786440500709,104.074422865629,104.790045583188,113.952419492105,91.7792504855516,119.674291681018,91.4143207910802,99.8435184860746,107.832611323591,102.792188365588,109.43666551121,90.4814150598812,78.587099566863,109.394281119057,86.698981108569,92.8663819739746
55.7606324885841,51.2945014332302,69.9450178346252,61.0600017382164,56.1862783598388,44.2817358235976,76.3162725139915,82.0204972053473,59.5370141807455,31.7581328680278,29.0285422391213,41.8260903983816,33.1867102649041,20.9058397144142,12.5645116230873,-7.79465502793353,20.6776654435153,32.7224460295339,-27.9747118821395,-9.55815756194606,-44.1986938648071,-15.3381599543606,-86.6899626699036,-81.9768458701625,-35.8288571360139,-149.51613313498,-65.2117995155046,-216.822483277002,-150.998924878573,-179.841262129766,-186.236911900838,-170.381747688737,-56.5984428057781,-64.3365982835272,-200.587788641336,-118.169294128003,-110.643514355551,-74.8375791946755,-67.3918691352431,-104.444288977121,8.59697437514792,-84.9032481871898,125.464270689582,64.6895191194174,33.2490921308205,38.5043257500055,59.5053528637757,35.006139713114,57.5149553240086,56.6230268192738,56.4675989545012,59.0091296248716,48.3393128542893,62.944625445002,45.5324518601133,46.7298252482439,61.2135350777362,46.2589894151339,59.6758738269377,41.5311158056859,31.6314811273408,61.3218505854753,38.0956816684421,48.4751492941615
13.0425861171377,8.40860639806515,26.2011812541965,12.8685598121899,16.2711412632768,2.59654869349769,31.5920529850155,41.6491567490858,19.0621084851532,-11.5149680914626,-17.9691743853893,8.18154201315095,-13.6178729142809,-22.5763638180549,-31.1329086003926,-44.1896725524962,-24.5914320858694,-20.4363076468859,-74.6065431978866,-62.4828191837669,-107.053227079675,-69.1118814426557,-149.531626469896,-149.225406707545,-96.5513803765911,-214.085193972763,-112.873995690806,-274.730643109875,-221.913544699914,-224.607662332618,-262.224437065875,-258.699632430369,-154.416014306973,-82.3527163654542,-269.075545695684,-208.303879444276,-187.4373838932,-183.904130022095,-111.646570175881,-184.8694931979,-105.531066731462,-175.027996961667,28.48967715419,-76.8321510270094,-116.230062858917,-2.94727533660122,10.414806390903,-10.7023467422131,7.59121418114791,8.90653083850369,8.29193974802478,2.52677735820088,4.40635999867374,8.48435926416226,-5.48180067059765,-1.55476988270343,2.68336299193735,-1.70513908480634,9.04542264713708,-10.235154416408,-13.5922847982006,19.1364866723109,-13.9857851565042,-2.11594884213947
-7.60408857855195,-8.586859318749,11.7655288896973,-11.7897539376875,0.20418616225398,-18.5826583790127,16.5721714192051,30.6078150098978,-4.02376040265323,-32.3366345335468,-45.8439495260088,-8.5958217758925,-38.2131617638239,-41.3067251504064,-47.62241701993,-61.3916618670308,-49.6194709111092,-41.531229141061,-95.269003662275,-90.6936624058612,-135.32817980795,-95.7440301840085,-170.317436274373,-174.637182792841,-113.348449650965,-226.182123123961,-114.272377356519,-245.799176663765,-248.701545857504,-183.414461410649,-256.563502259859,-275.483320378844,-169.20586125578,-43.4133008414499,-256.722909087266,-222.257421661633,-163.538526550556,-192.575776117981,-95.0685408237593,-198.976180029199,-150.380534493227,-174.080433590183,-22.197272942577,-128.452774569145,-173.807823297458,-20.4247217167344,-14.0281619044404,-31.0215300469032,-16.8369706645021,-13.3881042817472,-13.5918213888646,-22.8144377752734,-15.9449505597439,-10.9548023875996,-26.656764559598,-14.7616157243372,-23.7774026491064,-10.4516396313865,-12.6446392501415,-33.3930750086262,-30.2631575459407,4.18683519319706,-36.161860292625,-28.0815504855517
-20.651836939354,-26.1353449647608,-6.33186594786965,-29.0595137849842,-20.7312995983071,-37.1253578558141,-0.551750366993867,11.7123974971752,-26.4127263915329,-49.1852062153613,-69.6770291307537,-19.9277500274324,-59.8045780925235,-59.3313144566448,-65.0927767726173,-77.4077655378077,-61.8000457064712,-57.52973810133,-117.633467440074,-107.482637785825,-146.954412895833,-109.299071547685,-163.535909717288,-186.864521734923,-105.163795433058,-202.499785440917,-88.5957594768503,-172.639853728649,-264.527760262304,-100.285014051534,-197.504977361502,-289.845816757211,-154.886155355526,17.7027986026347,-201.52104082678,-205.486850307083,-120.148726063913,-171.371232469073,-61.8738388945654,-196.573085662492,-171.371625251833,-155.472502577401,-64.4905390569542,-141.908243575938,-189.108489491278,-45.0162323499358,-38.454461136768,-56.979548414124,-31.1290724517725,-33.6783404387479,-33.7840640690574,-41.8930547906804,-39.5446878047614,-26.5833038103757,-37.8847068655291,-24.6661610924778,-34.0282013198767,-25.009929192755,-31.913481943944,-52.7132815997779,-44.7493933557394,-15.228339007567,-51.8883725934957,-49.1668497239984
-57.0976183435409,-79.1431032148158,-58.2831555497474,-74.4504424539491,-74.1002611269167,-75.9218325241232,-62.2851429941348,-53.7644205455054,-74.6510121793412,-89.7886837324407,-113.266723126829,-32.7395601644541,-103.866540944177,-102.808741845504,-114.883931161232,-119.097666880561,-91.1342565401791,-112.495430502163,-170.513332555412,-140.564533844134,-180.900856115979,-140.671517236732,-171.744403922556,-221.948161836411,-119.800440210015,-185.747360983211,-85.9997130027349,-131.832380394323,-287.291806377032,-53.1594708696443,-146.824623881473,-330.380116984152,-214.080646922172,55.2755593073629,-162.09547614073,-199.956690121709,-139.882685616194,-220.476592484753,-64.4193857846909,-221.382773577537,-206.878706742597,-192.592695265138,-127.042982282289,-179.419452890859,-236.897887630978,-94.4905476848219,-84.0598812491421,-107.131001873549,-72.4847538503208,-80.5734771394399,-85.166934046177,-87.2109369886708,-90.499215651256,-77.0524687644766,-77.8872207539437,-68.4883638064318,-70.0310496605373,-81.8067096850029,-82.2802575413351,-100.034222319937,-87.2379003312231,-69.3683655672729,-95.8123716938551,-93.8433754785242
-79.8667984358157,-119.722557448402,-93.0166527127035,-111.134714262372,-114.27834712508,-93.7458073691337,-116.881392413604,-110.215856170017,-106.716577531055,-116.681482247935,-139.905814866373,-10.2265104541497,-131.14213794411,-129.215054125947,-144.176850251704,-151.481382222612,-110.330581494153,-164.482752818934,-211.240441728685,-157.495316943174,-206.227727915028,-154.68526594194,-183.388085041357,-246.582246611056,-140.687140078867,-183.466859515771,-89.4532254852509,-129.728449837189,-270.237072599717,-45.3526540610587,-116.730134302746,-278.576917737017,-311.728831742402,84.847344698015,-130.802185024597,-152.867042453596,-139.164042424433,-308.25959905657,-74.9291874992148,-226.775382316708,-183.407082848006,-247.063898056098,-151.549558387887,-208.678539737522,-306.476586518348,-117.560556685893,-112.04602120772,-130.078131343408,-106.14763248621,-111.157259455834,-122.086409302552,-117.209236442998,-117.63837144198,-113.749373940296,-111.778942048871,-103.029489993544,-97.8755319762393,-121.160269648308,-114.75612749162,-130.763329390816,-115.487000010258,-110.923606544265,-122.54049157688,-120.39753283771
-56.6339716164365,-104.118044792554,-73.6440909656877,-99.8578052998364,-109.189483962509,-68.0536180778643,-110.374522880681,-108.056152502479,-91.9207793622067,-101.598183041931,-127.139813909249,36.6967087045122,-117.157536770541,-117.040671538754,-118.996755129717,-149.459586658114,-94.6441816358637,-162.555708181643,-212.019638789465,-138.339383694072,-197.621612670385,-127.247079966798,-185.650915565702,-244.74090486058,-142.897965231658,-210.184357728404,-73.9619846005777,-154.803281363342,-232.140547652785,-53.8705366646797,-127.470084462688,-91.3591289063909,-328.478370048615,110.215599785962,-106.799874045147,-60.2455906315089,-30.3349548705561,-316.616638423269,-70.8526740506557,-191.493952355632,-64.1787665134365,-234.876065426279,-106.906680892672,-192.426329685974,-349.904681962323,-95.6983227947074,-105.126259386336,-106.656031660051,-96.8985301658788,-95.2514730274519,-105.18224146234,-104.173755281937,-90.5382955890919,-93.8865634568367,-104.246509371215,-93.3054035260296,-83.0003794368549,-104.075890309842,-91.5376837688371,-112.501060169557,-100.5149646926,-102.977394330304,-95.2506694330172,-99.6357694439056
-37.8331666023416,-83.1801242790836,-54.0551335266972,-83.1833151237501,-102.503510860096,-51.1712642446932,-83.4925955344928,-92.4320622192778,-79.1532784446561,-92.4752034167576,-123.183909680112,38.8726572578745,-108.439752626534,-118.999318931239,-95.6873863452512,-146.964296195475,-82.7054255722796,-141.790847110029,-208.762431961079,-128.429787673749,-196.951935250228,-103.243963879165,-202.275780565799,-258.767502315365,-148.662026120478,-282.188717665739,-69.5463755712688,-215.375867336052,-256.190517393983,-84.0982944693464,-207.240117316938,75.1399818937552,-254.786931794967,90.9758063173968,-138.481899769879,-24.9877419435995,90.9484866985098,-219.827147320587,-89.5899888614585,-172.04259310808,44.1664277323155,-147.153132541435,-55.8516580872454,-166.746591949611,-359.184981603838,-83.6957648431406,-106.328920229014,-93.9670042136698,-92.7612736072325,-86.5538328019239,-86.3965536938279,-100.133615483483,-71.1341985670881,-71.6854932189196,-98.2009783851263,-89.3127623224639,-71.724590181268,-92.8912477946776,-71.073636421078,-98.3731497103934,-91.7965352723958,-93.4836734359121,-70.5583846193611,-85.209374841628
-53.3188357713447,-94.335459767306,-64.9608348640152,-91.5188298369835,-114.268313660645,-61.6251022819402,-72.6709584419729,-94.0135367885642,-89.2563206917065,-108.964842636154,-142.580292607996,4.62018107376923,-120.164058145058,-143.495183673889,-97.1862234744348,-145.761565130599,-83.508005187018,-133.6607697511,-205.223914477547,-135.604347188101,-209.018713619308,-96.4593662274335,-216.200327953993,-273.359772826767,-153.181094699709,-328.687858408119,-75.7915522066728,-263.647734428398,-289.394913442095,-109.276247741713,-270.592277498142,119.070564079033,-171.82948869454,46.7801511991055,-201.435544839733,-50.0753633685506,114.329114915643,-94.8555464375634,-119.0730646291,-158.931458016497,50.1000553205156,-47.5166169175933,-32.6983483639521,-151.524209042234,-343.811326880402,-100.246911799802,-127.374733163886,-114.254885566473,-121.561432540939,-114.655231913862,-99.5271486463339,-127.396552729397,-92.7776182246296,-87.2606075760364,-118.793002941549,-117.399557986207,-89.8558299649153,-119.857630427587,-87.9339438774884,-116.428944220228,-111.653423063221,-111.831400662945,-82.8428769039333,-106.179297578618
-67.023219554272,-104.192654969026,-71.4253324273458,-97.5030995288312,-115.64201034977,-64.79559988917,-62.6925589458908,-87.7507066630793,-85.5380412964236,-111.324776134386,-143.533991679524,-3.1610789637199,-116.193666670911,-141.425819310491,-87.0909867567095,-114.918506928166,-62.3096135379774,-117.709613440215,-171.762691771739,-123.999029075263,-190.527211035549,-77.4517087763493,-193.486947406349,-232.112185224743,-135.337023256664,-276.250423311764,-69.3182415638587,-245.370731519199,-206.37949061911,-101.40166286092,-213.836761238881,119.492203061199,-110.917058338404,25.6219482229046,-208.006152099392,-23.1689995875116,89.5722611903999,-1.84332840846244,-108.529946967788,-86.7933384572739,-1.92407182862999,5.2047832417962,-10.4859178258524,-111.518488117941,-310.454354295427,-115.284278198734,-140.158298328888,-131.316452826236,-144.638212322055,-141.112527228082,-111.481428977719,-148.462721028776,-113.442096580174,-108.146446725694,-135.205245946041,-137.031805362586,-103.158730125057,-137.998653144413,-101.484448857147,-127.632561224628,-122.401812344153,-125.724117984005,-94.3706428482776,-123.419123190591
-42.8459018290822,-74.3607448611592,-43.7674597830659,-70.2717327943069,-80.6052446788902,-38.982237833942,-30.8267759614801,-49.708487657881,-47.0994665364367,-71.7037953126428,-99.0200690893164,27.563642151415,-75.1491317356873,-90.0728763399127,-47.1596547980073,-47.0096806173984,-13.3561702879374,-69.2363561245833,-96.554450844852,-81.160096274887,-125.633389324309,-38.3121803197458,-136.222269189806,-130.684579115578,-97.825051722408,-153.541929910035,-57.5133475468734,-171.44947509658,-22.4485329455383,-79.384655699671,-73.3728711687239,169.207612151557,-14.795448527455,18.2429446263683,-138.366409876847,77.0939561445668,125.401298945836,101.556868064646,-61.4411350443975,31.2001278901258,-6.67954272454565,35.8525310512299,29.0088312406681,-14.2253617829879,-232.110240324921,-102.963667639477,-120.666817609077,-108.342027240867,-122.815458352309,-120.769543315989,-88.1807681370229,-126.176764024018,-90.6160994368712,-89.3536239941556,-113.543443885256,-107.289735598501,-78.0339017587158,-104.116774633699,-73.4122481012838,-93.5641347659834,-88.4756398933241,-96.5121749555639,-67.9440325195018,-93.6445153008353
24.4509858406012,3.34901076771285,20.0693072866081,1.43230964800731,2.67616317732485,17.5428711243745,37.5951809363445,30.565369002941,18.6073979885448,9.26748807876174,-10.8026450990327,75.1545052521894,-1.34154191357153,0.457416081093761,13.2661778523248,53.4668429546858,39.656624062428,15.7369444100266,22.8506556818443,-14.4924489029819,-26.0610476506876,5.35979321816291,-51.7098568581117,7.43211620177351,-37.4306231468905,-13.3880301387215,-38.9546110417345,-67.4605443248606,161.465140355303,-56.0821496522274,61.4255530206846,272.290070181114,168.157393910169,7.60232317243043,-48.8635859171503,166.821371138199,232.597229986311,293.47550762535,-8.96491258935591,117.831243523775,67.913890134686,120.495199079214,72.4420302386452,124.814291821594,-48.5692790293301,-45.0005197048641,-47.5387267031231,-31.7070961913412,-41.2687776114006,-31.6627952238129,-18.3652489876317,-39.6453666387818,-14.4611830072825,-11.6372045135395,-34.9742401473692,-16.0134290173494,-6.26282780805781,-13.4818054575524,-1.43880037719555,-8.8563637605701,-1.0141082982642,-6.23007032016669,4.55286514759086,-4.50012225266373
106.820568216591,102.840010072022,95.452170856726,96.0017715362349,110.585210078776,82.359612355178,123.781922860683,131.966783327603,88.6553991587069,104.289917616922,96.051866597248,118.706575667158,80.4460498986147,100.793667467482,65.6075373554227,163.239348532814,66.1242816323543,101.475585677369,159.816178366063,44.2505067523358,78.8016031521096,23.6418923462872,40.9710203215647,150.073542299533,33.7164534543998,118.916230485159,-9.26579906601634,35.8568586119353,299.374033341794,-31.0009546090257,155.763348825475,381.662274916541,390.333236969165,4.14067916988054,4.22409122245411,195.042892965914,325.660723186182,527.932892969143,32.9572950797781,128.35678986002,148.980561321113,253.171246167631,88.7832937561071,241.094441805309,232.762857462613,53.79971858779,78.2393687315497,79.4874257936955,83.179830096428,107.749040545851,82.1366804256966,93.798600344241,87.9989968378575,100.527499812123,84.6946387736361,113.290894837502,89.6121663741119,106.937987550394,86.2290723242053,97.5572051395309,115.040326421118,123.161303832362,99.2432408085363,115.272102345531
171.111404741727,183.038486557309,149.110030490148,172.108213130047,194.399406898232,123.067920581797,185.508971883733,207.681119936657,138.53394121453,173.776449500171,184.743372562502,145.376765270978,140.954374151985,176.762854485388,86.6386415650968,239.965722589696,55.4771425559386,139.377643365913,256.367137632213,58.5927368313479,146.589088066085,3.43688519733293,97.5254004881242,238.782725674193,70.991671582535,199.67392736933,9.6868738540698,87.6888359770566,366.222862006715,-18.6642006936431,193.290746404663,423.522335583202,540.653891887861,16.8770108273674,17.7053025358356,170.223728549857,331.467085820222,640.812208550112,64.0336985475552,90.2366462468026,161.770137686696,325.16183890045,66.0911829547623,278.405210273984,483.933221621535,161.701163984875,214.508919815261,189.950868505018,205.656778763884,244.300687445801,177.782436250056,218.632005386693,173.444174148768,199.673043347071,199.937951596499,233.971982072104,177.916391101821,215.914429286308,159.299091342588,189.113718927558,219.66016420466,239.941733206061,177.496695993788,217.591433805467
195.018295790383,210.772253615855,164.390162555691,196.528679693502,218.037182591862,126.69768235165,197.800850027888,225.189084214239,148.55838027682,189.208103923987,214.175280613957,144.561710905594,157.228756254084,198.975616841842,79.5493350082625,250.017791426418,28.5498543956882,119.683771569608,261.802352732738,34.1787632083659,142.644324095119,-27.8950706306729,85.0550870767262,213.460944294535,47.7997546912208,169.178682752269,4.33198697704261,63.0204912294707,291.059966787498,-28.6558019934751,148.973972260693,302.189321858099,513.28571896978,36.3244754274191,23.8073170977951,87.7913573776823,211.845225596239,508.261810043058,85.122168015789,52.0203844045515,87.9585251963636,227.697994388028,16.3404098103309,217.746635312874,529.591893323019,235.112107420281,292.451060970173,257.74455252871,270.221441892758,313.022832398098,227.559815527996,276.566361805433,209.196084723488,245.751096368378,261.429349748976,292.480612185594,228.034348130142,266.76997642894,196.579341803697,234.58125535899,271.032514351262,290.511449935404,211.855310743988,260.231513924736
164.299607757332,176.223570624136,144.406679507235,159.999889318632,172.321484783684,103.569386674086,161.783128036521,183.859410309621,114.308996011389,147.160884608825,160.591559098878,110.713432069492,119.730536781502,151.853931323401,59.7304555715925,195.281772257198,12.7958002898652,72.8296943068722,175.388516748102,10.3458438335338,74.7637616431072,-29.667469134462,24.5684843494057,83.4294234164937,1.54114918966075,42.1809418145379,3.01697525409732,5.24256834685156,68.1290184993013,-34.9024394369544,52.8993776719321,14.764890550954,272.061475033838,51.5351236726049,44.0016154356966,-51.1720187806743,-48.3662820408471,159.528386027638,90.1667007842033,24.9625772254075,-59.1846181055889,-53.1436618342725,-52.2018038209699,53.2266227319107,302.874392266052,236.043825874473,265.486689402614,244.775741506429,241.458741179522,274.250159111591,205.166263333558,240.461072024984,185.622252019333,218.655498430494,236.51687634753,253.2023366536,211.639059626933,229.042389255142,179.980778106742,210.524925884411,239.36569675444,247.390898399714,193.254246243459,223.097896370324
99.3652108847127,109.769252519519,107.416074326649,92.72788796936,88.4673713848086,76.3741430033176,103.125041642347,114.868795556598,64.208805019889,79.2765418182475,61.8990357748398,68.5856711724807,56.3104144968711,64.814193925856,44.532322191339,123.233205656595,21.9681433777152,36.0055819294962,65.7764789229177,14.1316577424688,0.618691756286752,14.2486784236172,-22.2401133315114,-52.2868370025055,-3.89425366247066,-75.9974499245271,40.0917833661133,-20.2918851977196,-153.357751788393,-9.8088039158251,-13.4587386251338,-272.239243653392,-75.7133714644085,64.9826782193266,68.3025913254422,-179.717612692029,-381.64237886164,-228.611777045507,77.8421522757504,-8.72811797535521,-243.356251934384,-414.274911945792,-140.401575379921,-201.285930134924,-47.6990786494231,166.792905846106,157.506419216333,160.742489135819,144.582610070049,161.287365904027,130.566931604375,140.671181549971,125.85775530718,140.31766862911,144.39992825428,145.028371841267,141.270195541109,130.639776612539,122.128185848451,134.383702297186,149.744864044584,144.627809686067,139.215613864884,131.185070170237
43.6874917491809,54.7652088062017,71.5536048079135,38.6132851744143,19.2199144225606,53.9125861256789,54.1509825134694,55.9366271182846,29.588902635202,24.691115881482,-13.1243526436985,44.1242969735151,11.9395160095334,-4.70021490095386,39.2837409997962,78.0495977097626,43.7061484412059,19.3496544046123,2.92287657978969,31.4280815803222,-38.1654726310636,73.715954496565,-31.0311253962363,-113.389175117484,30.2761541005979,-127.567672656997,94.8002398325802,-20.341696021709,-252.159042137437,16.7054862931278,-44.0319215872655,-407.290142552218,-345.831881095268,71.2854122284121,57.1089197613062,-240.010957760149,-658.599997103043,-477.718952538239,51.0331935119059,-65.6470887018237,-424.725298959068,-717.734003165734,-249.982057768665,-487.491847240625,-297.438306706845,71.8591917597477,39.6503166603426,61.8677806718288,42.8315145622367,51.4886998312172,51.548896234939,40.8665495037103,63.0154185893773,60.2595671680698,46.5730647024507,40.4149155393138,67.4309365039708,37.0716900104767,63.2687940453889,57.8183583403469,63.9347847855997,50.9539039325647,83.0020986521783,38.3542949818616
19.6974216936704,27.2675166480152,49.6585307725549,14.8823587562496,-8.19963330764816,31.844831869844,29.367617557735,24.8185785088417,16.9106738245045,-0.194097764066545,-37.1261167650293,30.1643141655371,2.31160153516136,-28.3632239516211,37.2429640557666,63.3429655665707,57.9127038637632,13.5393970602299,-7.91303708428078,40.0385118205094,-47.336470075729,109.088368696813,-26.3375367354894,-113.870990252347,63.0954602261493,-150.794482590134,118.737296422021,-34.6531068480926,-272.805714820659,12.7743587408571,-101.017435798706,-406.386510952721,-438.365538792807,64.3148595070308,2.87394811982164,-246.718851218827,-791.460233336072,-549.068764382233,26.4362966848798,-126.673749414467,-568.274967612359,-880.879170820487,-351.963938383267,-713.3548784178,-386.263403677824,2.20855446157732,-28.2615071670998,-0.212456654221604,-16.5861285084106,-10.2089848737598,1.77093094895933,-15.6691024951697,18.3256021419517,13.2561218405473,-11.5629349354764,-17.7996518810481,28.4007829144349,-11.7353873020339,29.8121722740914,17.0082285893778,18.0880434734216,4.32876090008953,49.3140582253819,-13.1121970412215
30.4682698560647,29.8970047940745,57.291974518177,20.410439035619,3.31213013009455,26.3986926138713,35.6021003672245,29.0853576784846,28.4644943124965,9.24602765198114,-19.8519096062172,27.0984515440605,19.7578056883789,-10.1836691033801,48.7847784683749,74.0407790719197,75.626611519213,28.0410186881133,14.7310377011725,58.5552144933703,-24.4287893551567,130.725316496005,2.20835222951245,-80.6784355257577,120.796555476453,-143.553331541847,119.633565755258,-10.2676911181385,-261.279088436724,34.9926810924874,-144.224933755751,-328.259999509839,-361.87127682034,75.078008848697,-12.5081833468372,-197.782326419098,-752.048412698491,-476.703351060211,53.8172834542415,-120.927368171069,-619.094826124767,-858.461046710807,-371.24909004547,-793.086257941382,-389.789431075309,-9.77223970130359,-27.1820679055068,-5.09199832250345,-15.3575667738838,-19.6808505857573,-0.811304542904074,-16.8248624937875,13.3782846389263,12.5253541487812,-17.1955671497303,-24.4725088208798,35.8975523748265,-10.8783648509296,30.4960193569405,21.4429276471713,18.0040377090276,7.4298396013659,52.3850634216263,-8.1233899837597
60.0354396027284,57.4311191871148,86.4719996932953,44.5386330236835,34.8871515178025,50.551031403282,68.990020217927,61.8667686233882,55.1981376230001,41.4257044003727,17.3898395362799,41.6304533670021,47.1973687952255,30.6469025009421,78.330128393831,100.246260854465,104.024494184669,69.0486199709461,59.0440207574033,100.419402051354,39.4451036426844,160.01483136036,82.805239901323,-6.6380622422639,238.023840780854,-51.118740647651,138.365203757796,117.37026278277,-169.89610580881,137.094624451845,-64.6376474092614,-186.486011625554,-169.565926046078,126.572640066012,74.0380829480594,-62.1209807763862,-557.233776296425,-276.480875120324,153.041571953379,-5.79437026719799,-540.088794873909,-633.618748140755,-263.655710522862,-698.786872665727,-331.42018127748,27.14099332689,15.1562644630752,29.0492094257156,24.8649897073222,8.98625795732855,34.5552535302167,22.1443950904358,48.4877651198717,44.3286832123891,16.1994253220915,6.56500424764764,70.1099707083212,23.6880401446463,56.115349269983,55.7717249444955,47.9828648391191,41.5752448807234,82.7883889495351,30.6620337019751
81.562321937727,89.1011948312251,105.768273610679,73.0516412795474,69.8367506325694,81.3206697284781,107.952752374581,100.650934575493,74.2695419887934,72.6551042347812,53.425022287613,52.2486261925899,66.5899946862465,70.2413248872855,96.5812278534402,118.101065188531,114.191867279894,109.885045668574,104.094193731874,130.676900295123,111.998022970974,175.366080696996,171.931285088857,92.0483451126084,346.012332808835,88.3921113280051,167.249316175132,246.423270647703,3.23504611931269,233.429728334951,104.913905032292,-5.94911262505176,79.9478858179098,175.626783751145,180.821772222915,120.013241325078,-253.303148312094,0.960851758715559,257.387609014936,160.871475521025,-341.980890878301,-269.332052277843,-66.1378262126786,-463.94030611517,-176.221095014681,80.930018917191,66.6968537216962,74.6751273902108,67.5114909378077,57.9637423048495,75.5003874576907,74.2656498343512,92.128783198129,81.4684340133644,62.5258102919339,53.0174084362759,98.5696102964544,70.3979011575497,85.920571517836,93.9168034601994,84.2991956841168,81.4032176392568,111.969749523157,68.9075281563509
116.928184319858,136.625482310616,133.892634683536,126.970544769019,130.983385699459,120.266035878714,164.06672853586,159.10673888568,107.759450681781,123.010942017888,109.847144556764,68.3324038427477,104.296114837787,125.610554663327,113.695718182301,143.797501060274,121.305062782313,156.056498387407,157.411936672122,154.224753390381,173.783351257122,187.335186805457,222.667946424058,188.242116806047,385.737574198174,176.778607113134,198.611887970614,230.429416714257,176.230701753292,216.999333499823,222.305657637216,200.972106767958,375.437869491919,190.877583264911,202.724920429164,273.490416118233,144.513850739024,304.58995797564,310.518790382526,308.822708715121,-34.9385953971001,148.417040932651,175.522353130461,-121.256960201729,84.2198074599691,156.328842836699,147.14082030606,148.47314005611,135.016151981944,141.027587618444,132.148160887207,152.179168344552,147.694805925637,142.45165744933,134.876356834427,128.831912261996,143.782038398996,144.881976961372,137.362361823565,152.576519518115,146.964796103781,147.980191883405,155.761386785604,127.853126832727
195.769787283743,220.424831735531,207.251959368003,219.490558870139,231.007492285749,189.372467636309,255.32905761238,255.988521929082,184.742038652238,214.747844677076,208.365596177734,122.524548162852,187.969617321185,219.009525506767,173.449428394269,201.694041423707,174.107204273742,235.830280608547,233.652742673306,217.445451249177,235.921476022034,249.237729179024,249.772626982678,257.316172843728,401.902630830039,168.552735913711,269.660896244913,80.1219512269662,246.58723598943,128.897037368527,183.520157635502,400.480254249562,701.822623495009,198.176367606837,140.965117640865,333.343611975657,585.548956883821,641.09758802437,317.627529616892,403.566425552144,312.077082272834,573.41694380246,414.577563117672,276.588484624364,399.039026934814,251.141328498148,260.706351296635,253.212993157331,247.712415449159,260.917217188122,223.753277938487,265.377786487527,229.890498047943,243.512214970231,246.406985723613,245.999645086406,232.985268131723,257.630484681127,224.813332309197,247.00655733074,251.717636351142,261.302603123003,237.279325405641,230.523023893199
254.697138112296,282.041760520799,268.451937659917,282.307604157713,300.098920285247,241.823998533799,320.322114703474,328.629101179619,244.638563993745,279.337236992777,281.787700023761,167.742698387756,253.092095137802,287.147700533763,234.600775875832,231.710004032023,230.88515532566,295.928679533169,270.537732287448,276.231955287382,254.299736604728,327.365747753602,233.473881423065,236.177148428086,400.734399982577,42.6096896168133,351.436912815393,-131.548054209447,104.916202778815,47.5929779368151,-75.6806165760604,435.895247035425,925.361574708304,183.426930930302,9.79320682089869,201.322915238874,885.793708006047,952.558423055286,255.549948117715,373.139073804592,516.039883049989,933.527203324236,555.825976429859,605.126946101564,665.328842137395,296.017047146013,327.873775355589,310.61448307572,326.167735752674,341.058439070177,286.659497909513,340.602253726418,277.79718665297,310.032160570114,324.602305704977,332.562995241342,295.618125971478,335.555473758928,278.133453999202,307.333313438458,323.552529302932,343.721585662948,291.47234474189,305.865124089956
228.830689064182,262.553374726312,247.882274489365,261.544700566233,283.622064078284,228.135839993377,302.674334655903,313.682099817596,224.842236441241,254.525568546767,264.048005808423,144.65886442442,234.846185002801,265.903550385044,225.697076811167,179.632934678583,217.974986018775,268.381068685526,212.200129888496,250.654542895665,183.649537586866,328.557761939545,137.455871586257,108.086267454523,314.947637562981,-160.499242522232,327.743086459078,-351.196076261345,-235.532965279114,-55.7161074624908,-475.115897150376,207.56341643397,890.702344243071,84.2165746293366,-183.055528857178,-105.273990623983,913.524487223796,1092.51593914551,96.2370401905609,199.925065182918,496.040190726885,1129.80316387415,559.514751529898,782.652334475013,812.380137752396,263.301253007403,306.321032194114,281.275281756118,310.305004049033,326.251717095489,265.273342348853,322.818612977798,243.806243579289,284.614165645644,308.815811384336,326.502305939875,269.125349191124,319.816632636018,244.755761300707,280.972770337271,302.945095117121,325.059938987242,262.111549275163,292.156014567804
176.610776881606,216.433242655429,199.094020083743,216.874537140052,239.606396261558,199.65564963745,256.676112652141,259.934250855176,179.853643286296,201.996795976824,210.463750367176,103.182650426564,188.959593079278,210.114062676992,184.761143560498,111.305535190494,174.922330298921,206.100818601722,131.332297435009,184.633471197065,102.566683113897,260.436568742494,41.9504050690251,-3.80921423907124,173.044797017563,-254.507622895817,164.923696404618,-434.876146640169,-500.029809383701,-199.968248125475,-664.349804605771,-77.7721569665293,627.066187860476,-89.6113583234986,-313.352722246895,-302.13886065954,791.554918522713,1036.40418726086,-88.3988491073552,56.7642305457899,425.433606328758,1138.39199334835,515.672873368326,865.286629819534,867.946749743609,224.854716906416,266.467343752634,240.062978950116,265.272584414982,279.551160003839,219.579026198181,273.857223136765,194.746635649038,232.562073633691,259.98428392271,281.809362302624,216.653418268483,269.085384130421,193.505036778928,233.272254182799,252.839424208258,268.29168125578,213.329799040912,246.513153776547
166.179139621467,207.15561862564,194.17566562533,208.108899932234,228.968373658755,204.364407133296,242.275068623221,235.244592485024,175.793731833332,192.316703634155,197.992888458289,102.237562041904,184.468644813864,195.257432982782,182.007431068838,101.422660150079,175.117443320026,199.177440723635,124.747655757884,170.135824642755,121.378155710849,199.537783999497,65.6956216635766,36.7427704894137,94.2152020398942,-70.3355828319211,-35.4228667735786,-237.192347396103,-366.379299440294,-286.3512045723,-342.649830182999,-89.4134627549084,353.797659270784,-247.503628046913,-224.531616034992,-145.210392655809,741.386041857466,954.230026007422,-197.970438075849,97.1780068834783,501.900204370016,1066.9167769245,496.015445146728,942.844610427383,913.625992666627,212.851914019807,254.276135992249,230.820039413709,247.903005062678,263.934440286919,206.288418777139,251.255542102183,188.493058313002,211.533856668051,241.092518815929,258.509973480064,198.279141460142,245.471305554298,183.544684857971,221.571419119203,233.278660214813,248.280452174628,204.067451936594,227.926277058397
164.016018118683,205.173759096925,200.666667186289,206.733953031267,229.040398457039,202.92512883822,237.059493245366,227.075055136641,182.31026952128,202.179259049716,213.66252683195,107.184446239763,197.514777807339,211.282659111669,199.94652848643,133.339622247619,194.420470700415,239.159853868285,185.416369979675,196.851311238755,225.519819220607,153.268163982215,192.714499539684,220.90669503005,99.1525810026083,316.696471190882,-181.957132065349,151.793580906284,146.674514554008,-240.279273072097,298.311991341335,225.483388597085,262.314449736175,-337.859579027062,41.2850726002209,220.160595514102,829.609726591402,976.204080486036,-233.356951321044,201.126091748771,717.121299326473,1087.0464828294,470.299922050071,1056.37632238554,1002.26727707232,186.371810492682,240.279878007023,214.249061292071,225.30092586205,254.04904220528,189.503149838016,228.375794326543,180.942491183278,186.900767834152,224.655661700833,236.76618710707,177.318213178757,229.457676820224,172.688864447256,210.746110848234,214.620566867319,240.028452156513,195.239597104761,211.195353542791
163.165508182619,209.472903398609,203.340268286094,216.399092754083,244.815729605781,199.590769801744,244.751556042706,239.055040560195,191.547688001977,229.368683591855,249.993345793672,112.675769042972,221.132019948637,253.589763683232,222.318689756246,201.533109231053,204.020490793356,292.131152644438,287.34950397873,226.716486715269,348.100116685504,106.499986625044,332.990368064577,455.042035787282,119.123702068227,687.125954330257,-240.999936118863,496.226437656655,700.066124696232,-110.666532033527,784.170487902823,622.793001029884,327.18229317714,-364.547696885421,282.399731386392,519.980688574355,955.991140500083,1023.10905415896,-234.945968728766,190.484996301989,953.766772568572,1242.30258758126,429.867699325119,1219.40506515433,1092.67227572535,171.367761829602,244.079022631144,209.052112742372,207.264335740788,251.278515187019,174.685943908352,216.79396650116,166.240231888071,169.619655814862,217.123030833498,229.020630624615,161.527172762973,228.547501113182,162.023581493878,204.631601339644,206.927737579758,238.828912475239,186.812722666859,207.01666874444
238.330121362378,291.521429498569,271.1668270254,302.574001055676,337.679129000917,271.715182931152,324.276618212253,326.590160729273,273.22315635634,328.366949132383,351.96823157918,188.858879623358,309.554398083774,362.201316985755,294.260832386618,337.201509918979,248.630845201078,378.545393929598,441.927909629262,284.111730017995,479.522338972995,100.981574291506,451.195040683957,673.261392891991,143.375970638993,912.711694989847,-183.312639154513,676.221925441553,1030.40972470124,37.7031654421511,921.237544682764,877.798905001142,394.584670171403,-318.550741634473,380.840291827098,713.40282487921,999.474769218776,973.335944778911,-193.608267897246,127.086752467368,1137.16206451485,1376.55101696186,417.26053120849,1382.73582637195,1072.49967360466,241.470292143339,319.717148565478,282.398515030927,270.800572515652,315.40245571444,239.433419119452,284.526932665947,226.538867142799,240.91134761769,288.668740224732,300.988511788408,233.603685047969,299.107279204668,233.193786918917,275.443357618172,282.42317200277,309.947855107301,254.859331951412,285.673765759462
365.892758521586,421.875557785756,385.399854008565,427.070282462347,466.756326326165,387.542206536252,439.699427236483,451.238807134832,401.12758006981,453.968481458117,478.454056561842,306.684884782481,427.571768839787,492.4347043482,390.765962828075,474.844721877941,317.103540323394,469.736678842823,586.342927083354,350.095873572748,582.136390956432,130.357624064872,511.827199831956,801.769225059858,173.337689656465,955.930758592821,-51.4681667167428,709.908145793916,1101.68480110497,186.618603383162,855.64244032205,907.148336972553,405.504066728731,-219.856636312992,383.8557474403,826.958493177169,919.453245856118,839.190320273248,-128.857982579146,158.457674654357,1195.37353368863,1346.00007158669,425.48756671054,1417.26626455904,883.284244080032,353.651469407001,418.274811504786,389.877226347902,391.56055804369,417.861881643142,357.873463407895,398.492713283939,348.453957299441,369.696798837439,410.816969990051,418.842673352758,362.523801428303,406.985095618816,360.109674249629,394.154330054084,405.935803922552,429.489195289184,374.794453203289,411.383302101401
410.810948770261,471.187159644198,421.278558740249,466.023693950649,505.828672114868,413.90068398767,472.52905559879,493.442512366517,440.495042638792,483.108053730884,513.906090171814,335.352841288159,458.68853368054,530.789016925734,405.093979976243,498.098061989134,313.049913321506,472.736398417694,614.04565683187,337.358877214732,577.431502441643,103.64938272416,464.325102304795,776.755147685338,152.091091245112,834.722760643045,22.6915282155706,676.785280988026,979.960517561912,325.822877612837,773.380202358128,715.551870288388,407.272709955531,-147.623338597791,417.916988438589,798.788725879053,750.639597938542,673.975314776101,-103.311440015647,288.57667506957,1064.34953975711,1181.28746530547,420.783468501486,1257.1598826467,596.443947676969,392.135677577471,442.186791903654,423.235941642876,446.134367817135,453.378209442694,411.630828348086,445.617904675658,405.966818400789,424.521716952303,465.624235115041,467.378122669958,412.897679835525,446.88587862139,410.219397922096,440.689064620898,454.012571204463,479.869693371468,422.731003672331,457.881278660569
354.826022106556,428.087683272358,363.572237033612,418.57362122955,458.584965409423,342.622846776487,417.835210868244,451.366099332845,376.445273368558,425.167303737227,466.739813552393,266.880766629834,405.762796420613,485.884733989746,331.815654694509,438.017047378683,226.062945105086,400.683993878041,565.473946688586,257.642658782133,511.367418299068,11.2405809861303,381.673166138682,690.441666325128,100.876190862803,716.10265621011,-4.20962833209824,699.011049746587,829.407897932291,457.559369987042,794.559025926079,453.945826156326,419.310230073746,-123.831098008154,578.314356108899,690.340577067718,563.169094446293,501.88459096888,-74.3691438159888,462.747247221794,836.120461146522,988.961662241916,411.892271121447,1020.91158631304,367.916091864862,361.804048750821,405.518227663195,394.824343169639,413.352405750671,420.685117321072,393.666620116076,420.792841278572,377.330219629085,395.336877926397,440.174096910704,439.901814848052,374.799104775737,417.972587125533,371.941404900007,411.11513691368,421.128057325337,447.434216926626,386.155473882718,419.65948102008
318.286849637965,402.954525147322,323.955855826799,395.22412769618,441.967306388634,296.427378314371,383.54540107264,432.780678543638,335.663889808307,400.674971438331,454.16404733464,225.964628419411,383.230637922417,472.269070040482,287.207142114147,430.334397534154,170.918552745239,379.040038282959,580.847865946712,241.497006208802,526.954308967473,-22.5102296012862,425.231515589889,715.610115442959,169.969554121648,793.964851033138,-4.85249281571026,844.655668148185,849.35796897418,613.216256257234,956.082171422037,354.079692701079,422.930257936863,-68.9466199207555,837.437935835329,683.372981153702,427.952387702449,371.447037843315,89.6311209163604,652.861734245621,697.295762457852,826.038895802686,395.492456880163,858.7866227319,304.222839559353,363.91484194794,395.518619214039,399.543301485064,392.02087045025,408.161817694055,396.542313018479,412.158975782789,364.534529105862,389.07524061506,426.584222887059,427.52848103581,363.829582513803,409.700198120179,358.64821361714,407.656702054149,409.53680968395,427.490911545856,368.334294267159,404.66257756775
350.26144476275,430.262928969664,348.595526044712,426.4876540774,475.577762546221,322.475591531092,406.690435150992,464.020486318344,372.128267046714,438.675056084202,499.421534235178,265.026685895611,423.9155046113,512.67542403555,330.656408550211,501.698573169762,220.718600539322,449.287836792853,670.722354023262,344.418032325004,639.223148232502,91.627446703321,608.103966060629,842.577188146228,417.746385104029,1002.80074694784,152.183309460984,1013.98767634673,1007.73547866734,796.94918590992,1113.45823530322,431.097771437547,415.27620174745,76.2175082461544,1033.42221863495,753.088191258103,339.453952188435,290.471606796251,376.880656939288,766.054116275293,645.793407191174,662.699687469606,317.895435592961,705.413628768395,334.664920260559,410.156875759013,416.94422596475,438.043583350613,416.452694140408,424.98987863358,434.780670033774,433.000046513812,401.123547782488,426.195483986057,446.571693655896,444.313431223452,408.789280650685,435.506053853858,397.957555330987,445.439330919775,439.11842801138,444.417508046327,400.812708793161,435.368878031281
362.964346793972,426.194266671328,362.9054109341,427.90329156365,464.613076873676,339.884395460789,405.270681561312,456.450461902129,399.314136254171,450.331334425201,503.547739841432,313.19492311868,443.675826845167,515.792173663489,388.355869225303,549.32268304113,302.42063249956,509.34360489975,706.991434458641,464.723870789973,709.450303635074,272.382325115738,757.210892584907,889.291614466272,672.763731491413,1080.94892984593,410.965017909691,1015.08282211569,1029.09094260595,914.022676927216,1007.93893049482,402.689816155871,346.062711022366,263.313584651308,976.946036354538,634.967447190838,147.496650476619,138.124016011073,582.786178649929,651.071609442834,444.09903660161,371.840353203959,132.547411813904,349.200284012231,254.745211461984,402.033577078674,381.710070009575,413.192987641338,396.599202189293,385.880425834107,424.623323617756,400.006029707341,403.959936786675,410.870769248633,416.495548911642,405.116706458962,411.181640159696,411.567885476369,395.116610012862,433.490863380467,418.846606437418,415.348231464504,402.66974734546,417.993168760489
273.620716729003,323.292952494214,291.359163329612,328.770186886063,349.821351444426,270.922701388742,300.525092414787,339.229259714625,331.097798980105,364.546616657917,395.996277933119,297.185946025513,372.557260156802,418.605375322548,366.343296166811,494.956231019614,303.738941515452,461.540590879292,605.768529116579,488.585409341439,645.450163993802,363.440599928821,754.069480600626,764.582347544395,756.559112393034,927.723607843625,592.341858752059,819.561069439899,751.441219449878,869.695530893608,596.497304863076,40.1497531984413,82.2486812250797,413.193329730161,662.06353412175,207.393218383308,-303.48707386122,-273.261289730096,574.506185529919,299.422025175727,-53.3904350486353,-187.395620210827,-145.758512182246,-246.655074526397,-73.6809092347508,278.88255805383,238.280385810367,275.676849325277,257.184700493086,237.539312360914,304.887577073232,255.744233976684,302.828098686542,280.825200556694,275.468797661709,255.044969445302,298.206365108727,281.013710394368,286.490022284274,316.711666378498,286.423287315398,276.192430738584,305.337213761701,289.372676787953
118.485417526677,159.071608972199,155.823751669237,163.034956755639,174.987973256053,139.513145273748,123.454461554638,150.474467119292,196.593891188834,212.782766903487,221.523054682354,226.477797890526,241.787071575784,258.4776085785,277.789426041222,368.630832801496,236.267406374603,334.771539944026,418.789990314486,431.949661996558,506.319652276881,349.164199703404,667.312329431432,564.304732708539,716.562984321489,697.452505320989,644.323818335038,643.740892698037,336.573874684014,735.791293748323,189.892656539668,-469.36347129921,-387.495070958228,527.783506835146,350.283704517184,-282.54895509864,-877.214065041745,-1001.55348387272,464.864303275955,-59.2546643617318,-628.631471736319,-972.43341477644,-414.340753978215,-843.682430388315,-559.653332040174,94.8666709909331,40.0926803286924,85.4516977132832,49.0031716634134,29.916006838522,116.183147774559,50.5440556869221,132.563324581202,88.0602824056029,70.6801327075194,43.5229613718871,117.286046534205,87.7296321274351,121.338566416074,141.983029829459,89.8778067455072,68.0708465757152,141.082253442219,99.4477659400067
-23.0809843667456,0.951485126009436,19.5775097335355,4.60462867862176,7.15070683242168,13.876782228001,-41.493794539217,-27.7706792824618,68.2258180959283,61.5388043522083,54.1617821840326,142.263259673498,114.517482275635,98.0997599616172,190.996271823432,230.341197348157,187.827550462061,210.543183480277,239.23617866894,369.080789846157,371.476563047301,346.051009466069,575.571731381707,391.319535088314,667.851078343345,513.845837955547,656.668632171254,615.345056164058,30.4187394751278,620.802703124873,52.3000136125945,-714.658379707647,-827.775094741095,621.54915764419,252.293878519242,-515.858135683461,-1214.57534224905,-1784.62833362326,400.205894240555,-210.938599280448,-925.332946608592,-1686.25240546594,-546.191520720517,-1187.97588654962,-935.8820223768,-76.821665401763,-146.579542143524,-89.301016990135,-139.8437330312,-161.240664747502,-61.3006130474129,-134.205812110987,-32.805189512589,-91.9021129754411,-119.888280698432,-153.560667624494,-52.0082941807538,-98.4361364984461,-31.4489916876258,-26.9031005718435,-93.0671438861893,-130.923298178996,-21.1326282348497,-78.7461118009314
-145.857931309503,-146.030463623616,-106.311933329711,-135.064131598911,-146.403608635706,-93.988472813664,-172.436364505615,-173.626105393127,-53.3398798239669,-81.6432775157055,-100.932855541543,40.1768742139342,-10.1029475497387,-55.260019885258,106.150960993939,86.6394526968029,162.129483247085,102.193203246999,87.30274244965,301.569628374779,230.001045365733,380.636410480874,442.130232433177,230.053848737438,593.174009569222,330.375662299424,655.819142490365,571.74262082255,-116.756569110362,483.738605692294,68.4703580681678,-583.730527348971,-1017.59368221532,622.835212193806,238.391605119669,-463.458250582849,-1190.93704555238,-2204.03170724064,338.343835828873,-203.237790980519,-872.822166690446,-1984.62429253107,-520.035356537678,-1236.97804262332,-1023.24767370515,-226.855742315086,-318.459090748804,-245.456470520192,-299.763904137491,-325.320270332886,-208.894642965166,-291.353163915319,-175.29678257907,-249.191202179585,-283.777531636139,-322.801225062676,-200.505286484489,-267.384352213929,-171.338974233563,-184.761339449971,-250.404208350866,-303.121250993312,-167.88667088957,-239.363740492901
-266.949435032266,-283.457770013339,-221.93651055078,-265.597301190143,-288.516875759474,-194.528045512008,-279.70239635545,-292.68128255697,-182.352628608179,-218.530728050429,-247.372123129846,-80.1302237692027,-143.05998402954,-199.250723193713,1.9223263497147,-53.7291172899183,112.004151973245,-4.09473319693006,-45.536710126356,205.138468361626,78.5167081285252,367.516552334673,264.110809064062,70.7896266168324,462.897236050792,143.824631589689,588.508091476378,391.348038526877,-139.219837053775,285.565547881378,50.5010121198266,-293.507257408396,-978.703568906965,481.598200900769,117.543478320514,-267.402032155293,-991.853766102254,-2119.94555179345,203.218758454617,-163.259443613506,-678.006521956775,-1782.66476625429,-419.951604297694,-1096.85645159536,-906.738930066867,-347.100800817331,-461.438243817063,-373.654701815363,-433.74023455246,-460.965657445554,-331.956734381267,-427.891997833412,-292.747077129202,-377.832155458531,-419.413213258517,-460.415791275924,-327.533675577255,-413.737076051794,-295.326478272903,-322.611805752814,-385.364476552786,-445.817688348012,-295.87795632857,-378.443045513338
-359.052309806493,-377.394151542979,-303.487827296476,-360.961100918375,-388.258231361621,-269.090808277866,-350.892056560568,-373.736273410861,-281.787294172531,-315.214167333035,-346.200599799181,-177.592135334821,-248.813804273656,-299.369959280577,-94.4942200416143,-152.273652160831,38.803768714355,-95.4094727948268,-140.444247804369,95.9938467782431,-34.797878221577,268.864158054527,115.459167199541,-29.0946725007603,308.039051023116,41.9364388145227,421.382648567132,189.583245915512,-21.4383495155,91.9108811382175,49.4600603188897,-6.95038478082222,-834.546429483468,246.60158770129,-30.2948285227108,-11.3614007414698,-776.229267290205,-1742.873464231,51.8445959562632,-79.9677846962177,-524.246182540683,-1382.92999388771,-336.719087048017,-934.427708504999,-802.399372388997,-413.213707736214,-533.786217859865,-441.156002133,-507.515985581038,-536.310221718913,-409.970216025881,-509.249775705069,-364.787370307602,-448.046177245709,-496.290141128545,-537.260815816983,-401.042028647529,-501.303875141574,-366.454624924859,-404.903373899326,-470.247149858191,-529.419998991483,-377.003271276607,-459.938975006312
-411.5389517796,-428.575868186854,-360.590175992165,-415.656686324646,-441.595179761644,-319.477100949122,-396.871383353849,-430.865955577916,-338.372623364421,-370.646292933198,-389.834827138009,-243.697370427954,-312.853319194001,-353.976316072173,-173.697205991038,-212.708953288459,-47.6882128614505,-178.441046131647,-201.395977227501,-21.1867504299193,-113.341982772258,113.309327777434,-3.31168289056937,-72.5512827945363,120.907663618781,-0.554885112049815,160.714549437519,55.0951961168918,157.418104159435,-56.7175544605627,126.005431956852,238.050629695409,-593.739605511566,0.209938356668927,-44.7374505830657,194.649345565581,-557.376068531122,-1249.4495892214,-42.6984860324026,59.8999433020181,-447.335584322791,-1157.8384406659,-304.279831009071,-913.527467370206,-799.190586355374,-448.119517305299,-555.389995327704,-467.719243552294,-531.807171389523,-562.81555770439,-453.431384264273,-539.074613774782,-409.51293109075,-480.478952307224,-526.771515673743,-566.397084966055,-437.956665261216,-536.623095948817,-401.058886942928,-446.859415774916,-508.433946534243,-564.314544183698,-422.817348700884,-494.71684781878
-443.087768628025,-462.004054882748,-411.82161294952,-450.868348914808,-471.743717321896,-362.647027122376,-433.853273695664,-476.906847255137,-379.54826521387,-411.522138785932,-411.323704161395,-299.42200138541,-355.709755114002,-391.480226193454,-252.466473889834,-266.898529128906,-147.604167414201,-264.85752476434,-253.112762286197,-147.608493480164,-199.152866742091,-56.0238552243149,-140.518736950118,-126.757404426016,-93.597411671769,-89.4412395873257,-115.108339010602,-68.5355186074837,214.366030546744,-142.136107309107,131.66628510238,368.64560894866,-193.766341527126,-162.766745508911,25.9744960665426,198.455957499856,-303.389136985454,-599.772388994972,-73.5330239625668,150.367030418948,-379.994922287939,-1033.13596556416,-284.05598587127,-979.129213371114,-784.853549437644,-477.666271555411,-572.299022743403,-490.841859535192,-544.596211208334,-576.579009774764,-489.498592621179,-554.079953390819,-450.97125892194,-508.130016247685,-545.538617132091,-579.001286683124,-475.458396407536,-554.07497035792,-438.430207949544,-480.118425551424,-527.414654093271,-582.682040716514,-459.081496002796,-518.698159848021
