-0.144992875838587,14.7892733355359,13.3393445771501,10.2944941845397,-2.68236820301387,20.4439954932408,12.7593730737957,43.5703591894955,-6.59717585065573,-1.73991451006305,-12.5418837600378,-6.16219722313997,-7.75711885736443,-6.74216872649432,-17.8341237281463,-21.7489313757881,2.53737532717528,-6.37968653689785,-0.57997150335435,-35.5232545804539,-10.2219977466204,-53.4298747465195,-38.4231120972257,19.7915275519672,-64.8118154998486,-20.8789741207566,-113.384428905775,-48.0651383404918,18.9215702969357,-106.062288675927,-27.9836250368474,57.0546966424842,71.1915020367465,-95.6952980534678,-28.128617912686,11.2369478774905,45.6727558891551,87.2132148169104,-25.66373902343,10.0045084328625,36.9006869009205,69.0166088991677,68.2916445199747,76.99121707029,48.4276205300882,6.23469366105926,11.2369478774905,3.40733258220681,5.07475065435056,11.2369478774905,9.13455117783101,8.62707611239596,15.296748400971,19.3565489244514,2.53737532717528,6.59717585065573,-7.97460817112231,5.00225421643127,1.1599430067087,2.39238245133669,0.217489313757881,11.8169193808449,5.29223996810844,0.362482189596469
9.53400985845305,80.5417552155312,72.7194226409066,60.301577251132,-0.40338148481648,105.633368343996,71.3449034087037,217.687322520109,-22.0239048579459,2.11113596445052,-47.4765436318751,-22.2073307689419,-26.5853542703341,-21.3344604256467,-76.1404270080296,-97.7609503811591,17.8395030764725,-25.9216808042068,0.800373905375898,-162.177346064109,-46.8357280436561,-242.431581788026,-180.576875854291,87.1681780083522,-299.265992088017,-114.65699004875,-524.087212466382,-251.266845061659,56.3615615250479,-511.310244803476,-192.156245072205,235.127482975488,332.72730243583,-463.061564492459,-182.114760148317,19.5357212625806,195.40223202445,416.072104308174,-135.040704344856,21.7349288221995,149.646667828925,310.155586104959,314.255276207729,371.701255153774,253.856772037108,35.963165728095,64.7734985242199,24.2873164188942,35.3165239633486,67.8183489168303,53.2752489494878,53.7671488576738,80.5573303727803,102.865841634077,25.3066361821598,46.1652186850707,-27.1823574750694,37.5824017843595,14.63845428317,21.9362800909786,13.5738655922889,70.2078182799033,35.188562788891,14.5518392321334
45.2263222201636,181.959570381149,164.510937703666,145.709982250694,33.4172312243694,223.058701824279,164.391710033528,448.138831385468,-18.249778000384,29.8782641220571,-59.6367132592292,-26.622748123676,-25.0581816810118,-13.9757668275601,-124.723745578509,-178.058172875406,47.9269985804494,-43.1420651104779,2.66096110876619,-293.348932704989,-92.5018910168242,-428.137990175201,-343.420364634796,129.767804209429,-537.153621460846,-282.949255054257,-945.223166964364,-557.832806536024,-38.8118134663277,-989.129808494026,-574.29475109669,272.7195831406,578.010426848399,-908.035263620552,-500.12677498948,-105.893771404043,256.920931353308,764.059462418311,-303.955377584317,-53.6967538252703,173.365082100035,506.318842882085,554.491179442566,709.352083151278,559.242079697263,85.3391120952802,157.258566672185,68.3737504183247,99.3537709706695,171.633815885781,128.873202543365,139.754904565422,175.588222667338,227.632198270956,87.1281895928725,131.494825497705,-22.1459870453802,111.367828673452,52.086186581085,70.4711218248662,60.9826073687658,175.336519328462,94.16157990091,63.8229960927545
81.1744047665306,218.366112522867,199.969902724027,186.898736944107,83.7552641015239,247.327534214141,200.815763898271,496.450254609145,13.8072946301507,61.7161241662665,-18.160452680728,-11.017252739739,7.11567131898139,19.1679973572791,-94.7498098682568,-175.437001132408,68.3738753611382,-42.4606987547142,-15.4281936849081,-258.799864651874,-110.89429150951,-346.457111162337,-334.044422574682,28.1969957614359,-425.627689460345,-422.030151193868,-777.184753222672,-683.32662357238,-405.006535024134,-939.540460475701,-972.564844239428,-230.780780684453,346.749370813946,-900.552630606743,-747.603837547684,-460.38081334728,-83.8174512132035,583.191252940653,-384.348501147308,-264.49149706151,-113.527651744296,267.086752078679,424.420580885373,649.08592288616,681.879452452545,109.195696692816,210.988744322163,100.667771419758,148.719731149335,237.482614631171,165.833826001841,196.277540458202,204.618589395947,271.926547021233,148.121993366759,199.176781268163,23.1555117526201,170.863165024149,83.4516727426341,110.0045056896,112.041112073642,238.502371713906,130.281757579413,117.054856656599
60.8972272779934,144.069754628732,142.632060895147,134.821001977464,79.7626655715422,160.104561727888,142.397190898698,344.644315603152,23.5212406481597,47.705571630918,4.28913726536857,-9.40274336660516,14.7717253606689,19.5705611531227,-30.4022273009122,-118.060107948289,75.2438855949534,-27.8432471860711,-49.4842168287152,-94.6624676518794,-92.7286756188703,-71.1620711065091,-158.798875219122,-125.639234522861,-19.5609638564528,-415.861668304707,-142.376860654378,-478.765209007795,-775.122345402866,-352.315319867574,-994.942690714893,-981.363594585279,-280.175408390093,-409.028576805343,-627.325064275319,-797.198063909381,-627.423666590918,-86.8966420343961,-293.860377925454,-446.378046754608,-499.10621064822,-212.454184438784,51.5643151436688,249.56593302021,520.049329880593,86.1111765828627,175.464593665402,83.1465452030381,127.211201879321,195.44522750071,116.952542368193,157.235774541535,135.789543630547,190.255740175915,132.694980123611,169.302501282083,40.436375337835,141.029255364718,58.2208758003728,83.6751605577988,94.5952472928137,187.309655409025,93.1256524522242,100.616749764877
-14.1114574362686,33.0706178002998,60.1849599476942,45.6426072836375,5.65691377923322,75.8927757705278,67.0456562785032,199.359323102895,-12.1148128989501,-4.64611464065614,-43.1378321484025,-29.6429970260009,-19.2604431067477,-28.5989164587054,1.47966259977908,-73.0598969073777,109.717821651974,10.49109776619,-45.7351248154317,45.8852593991182,-32.5781777046379,137.861581426211,25.9408855586508,-115.086101225661,320.502561076325,-234.77121585355,346.348627494006,-99.9029060617226,-715.183945396009,210.925436314214,-535.835367357528,-1177.8917346003,-739.968762024049,105.546026903336,-204.700708808921,-722.077932026946,-833.495421767033,-639.026887603051,-102.137116566165,-403.628758821203,-563.814558359751,-393.842971013048,-121.283167789483,-2.39590638642272,250.163291880021,45.9969853773266,95.7677583453446,26.7956675866931,49.0259827669822,87.2790277166205,25.7970351240226,53.2767265459867,37.381038137173,70.1882052959375,37.1272462282336,58.2884405957502,-19.2836638847732,36.4439945171775,-17.0381335711333,-1.41010236166299,3.43551932145155,63.7432556537572,8.67209527567925,6.45772422487512
-96.9323401580824,-62.5106530199301,-5.85579945841193,-32.08651792784,-85.6169642019865,27.4457095324831,17.8638700453122,109.705501035869,-61.5892439168829,-58.6276417613698,-115.058111338414,-51.4991889949463,-55.4372693317147,-81.0909724228138,11.8989210172565,-43.2457649085334,168.560084397647,66.2692761135436,-3.74982751323753,134.642596741512,56.0303766800295,256.40900354724,161.271762849344,39.6573697261611,490.166888834299,32.8219811584469,582.966076534438,245.847836806655,-265.694834912571,525.886545597045,91.3016409543027,-665.428840262355,-847.071511681122,444.324735788631,205.828966552271,-229.688446227218,-634.185928768847,-862.899033034068,93.6437003853016,-171.11216205308,-325.274796951725,-280.569928648949,-70.0431673683817,-17.8921487794314,-36.4219132047195,-10.1441831937417,5.22261402136778,-52.2366148613024,-50.7352565395075,-34.4973240702084,-66.0454091586836,-64.952415195645,-56.6597853355761,-39.0344461291485,-87.2149508238345,-73.7420444963483,-116.54059815212,-87.2563157639487,-103.201593306709,-105.489409201454,-108.48121410328,-73.2511004144319,-82.1337341080382,-115.349706306056
-186.353832992577,-178.208153742083,-91.4890977532808,-129.476546325291,-184.871964410808,-53.2800446443334,-59.5090464530888,-27.4409107835193,-126.260204437346,-134.975465243589,-196.933036641363,-98.949356495673,-108.640025325442,-148.004050685051,-0.428415685766073,-51.6333284019544,176.96910720383,77.0355803239574,-14.4071326112703,176.442448082921,94.1338309938049,338.579971539073,229.89994243889,120.751858826908,567.103298175073,220.091321570373,741.314120570226,447.706099452227,136.659707626253,697.62456601849,529.669179815522,-50.6170301253018,-790.205252784369,662.15675721526,434.989414640569,276.358879424148,-357.704222524313,-966.361317432133,222.756214189357,54.9020241383999,-106.818766064756,-221.63839175831,-55.4468755930529,-62.1796158023515,-376.710409335886,-134.783562410676,-145.764037619275,-181.531731057556,-193.955112012991,-199.58204622166,-190.164740520981,-221.362275070261,-182.231703154991,-182.141367518626,-239.145925792602,-233.843166631629,-227.246911013767,-239.61094347896,-208.952557012636,-233.916589015838,-240.471284356999,-239.071153574186,-196.507313058099,-258.896724348351
-305.290638068508,-334.254751532367,-213.934487316604,-268.104870777247,-318.830777460499,-175.715706352504,-188.887307817849,-220.31678975042,-224.062343441962,-257.696835541116,-318.641753698238,-190.482470436166,-211.670256540339,-268.672249778052,-61.1084085514876,-132.235564189402,107.591770585514,9.18467102825374,-117.808074286743,136.887606562446,25.3978196302872,330.446329722244,193.998602195614,46.0838235781703,545.118570829327,240.048835520667,757.320883041057,481.963390496106,265.99194712602,716.587350027293,686.572904734938,232.363978948185,-645.327900192621,722.689147583973,498.040112633653,487.555181481855,-149.572367964625,-995.230433316304,236.70610396207,138.630506036264,-33.2911503845143,-291.485060352043,-136.408444775974,-219.063326479448,-743.032745485676,-350.675168765704,-397.33662807248,-382.415465373935,-413.643576809423,-441.883773164398,-376.222647775685,-450.014710046614,-357.680814016236,-383.333132990901,-446.061645726481,-455.284678477881,-375.339384878774,-448.005332371176,-356.119709889704,-402.801141297511,-422.47683102939,-454.613945442765,-352.720045509941,-441.856407418812
-415.172052057959,-468.48963472343,-317.837682821394,-393.035078563197,-449.449438197952,-271.717687615451,-301.244326369873,-379.364946338344,-310.577679379632,-374.685655447334,-441.165160828543,-268.707045182393,-313.68091399572,-395.787783937291,-135.869947980422,-234.561925159838,20.3221672213648,-84.1389067544425,-237.057399166141,42.5673580180296,-90.5294642092813,221.941565769192,87.1321248173088,-74.0821966723824,417.428088688063,171.896299472872,564.34980890025,407.674253599458,249.324527255966,553.195071906074,664.640540206507,286.5702333681,-418.531504850906,597.373131700717,436.535112043589,445.841904101411,21.7369104455301,-856.432084502724,147.311419504787,94.0490834805477,-17.1761009177183,-366.183019607272,-223.46490248087,-371.175141518792,-1036.58215978681,-584.564510537937,-671.979247055737,-592.379085967771,-650.195220090941,-692.399798012578,-563.686938768165,-683.78815430802,-527.681213124135,-576.485920914345,-655.621083859015,-682.443726760743,-527.733389098541,-653.010010631936,-493.717538639999,-561.129646423833,-603.574715417589,-658.292552725682,-496.189190093742,-613.267762960578
-453.755811365847,-514.072816504913,-353.520920113432,-441.127284552652,-500.160101537729,-309.532287082087,-336.750136303535,-455.008822184827,-335.630815926058,-419.825077085444,-484.598128078396,-291.127902093652,-352.70606071459,-444.180133696984,-177.029631051914,-286.720271185996,-52.1344779379308,-152.153633167091,-299.016638112845,-48.8266426291861,-168.331981663766,75.5565672663611,-17.4026632657914,-142.292974052087,239.202288448201,115.32528528115,263.111099101345,287.039448297974,238.269725015006,278.110760637799,547.661550171713,323.868886885338,-180.119368674267,369.063570455586,260.725223578941,327.799768717069,162.684377308228,-556.300881903966,13.2293452462346,8.50687937575292,34.4251645708527,-357.165935463605,-263.830207497278,-403.329386994238,-1127.84314445582,-700.449417311852,-804.124951021369,-686.891572957532,-760.883909930344,-807.486964298727,-647.199611236979,-785.223502269186,-607.607804799682,-662.783461759215,-746.324383499995,-784.725368499483,-591.560546726061,-739.583253731318,-541.953347780026,-623.717016883854,-675.563376743018,-742.02804504275,-551.699437367118,-679.579133105268
-416.939080097711,-472.25626230273,-336.491485936776,-407.191120402147,-444.928367084831,-313.985186841485,-309.371182941684,-451.398538031568,-313.805366419814,-385.482997872229,-426.99636326646,-291.355968608128,-335.011237214289,-398.086843678624,-191.673644433302,-278.640646827027,-131.583873661331,-191.028318795553,-297.057800716187,-123.726172149468,-190.294592533649,-68.6598500107658,-91.7767598444253,-149.333932428194,66.5622593528784,76.5745887509035,-45.493487068595,135.636961805724,251.356457194597,-36.9711698060077,372.597534710813,410.158303823577,82.9354095191969,126.674981415127,11.8464963522966,248.279896422629,327.451275175004,-132.92643087804,-97.9262549437587,-29.9959911498357,199.364072601798,-172.756661330791,-178.222669828615,-244.874285025434,-903.336090933999,-608.214630678036,-683.677458317624,-592.712798050377,-653.439369278654,-698.234147070713,-581.108635882074,-678.487723003742,-563.158980896385,-600.524633358826,-649.12850012395,-685.670684736604,-525.791139124934,-651.480208151607,-486.215814866312,-559.575659073236,-590.477692556511,-651.911508613897,-504.21022617276,-598.430506226304
-322.207100756592,-361.833883833294,-280.795198585153,-306.153896977618,-302.000287571191,-282.275302635297,-236.210129812508,-360.891055838219,-258.091020477144,-285.695373141543,-285.871082622146,-277.001860418337,-267.632529268438,-278.03922107117,-179.974699622201,-213.28576880215,-197.669118221138,-180.27403596205,-225.593808423803,-158.949588376529,-153.498750920985,-162.265928967023,-111.074570369395,-96.1354246788514,-33.1058382860724,52.5519452446598,-276.449352360389,8.24145985232946,258.5596430583,-289.337378772032,200.156485726613,531.077332601899,457.223568268546,-75.1466120104402,-180.460267833164,233.993384460134,592.438143863666,389.842882120639,-125.900031330194,35.2875478073061,499.416024991125,224.515642706486,99.1412027022133,102.983459323937,-395.273705839106,-354.256899735345,-366.162768020492,-356.712872886613,-377.776988582028,-409.692123556944,-396.441979997406,-411.42488139888,-417.831771969565,-418.704880887871,-406.04289106866,-426.62467930882,-361.373834012787,-425.769014176661,-353.839242097662,-392.774342884807,-382.810635616644,-423.778684595233,-374.00213060541,-395.910848830751
-168.402177845467,-189.759893609255,-168.786032829855,-148.736157887162,-103.407139248004,-189.409789082932,-106.944761959505,-190.649531026753,-145.169303140611,-129.602108075088,-84.7868192738872,-203.323817823697,-136.557893234831,-99.5495514927631,-112.236164278853,-86.6726828014073,-194.332380114525,-94.8235454093653,-83.3856767411534,-111.777656948795,-44.1238284305032,-152.139004467504,-37.6320043059929,11.3872607451314,-2.70090522930218,84.6900031875476,-345.406252672862,3.22726345263105,242.351409040618,-329.399731104337,78.644908529698,584.933977912255,844.899357997308,-200.418215644282,-194.036173393058,232.112753678989,853.67196376179,881.612895776938,-57.4018144657044,176.458369145817,797.878899315113,675.940542978087,454.151821110913,512.717852361099,201.53947811843,-96.2332936299442,-31.331772094563,-102.081810630575,-79.6545114197522,-85.9209150414037,-171.451023046874,-112.138645547855,-227.294112275978,-190.974903773088,-128.299532621205,-124.014030476171,-150.75742043964,-153.071997063075,-172.109183378953,-171.644145394819,-126.765522216138,-151.172620275981,-184.879811441894,-140.095589938812
25.4002691244293,11.8126465403237,-9.91349130490415,37.8809273697368,110.53456229625,-51.3449204412315,63.9429567732244,2.4207285318225,23.1867062539476,58.6790375275891,131.995374995709,-64.8662785409566,38.9077167950356,102.622202921708,13.2102254278224,80.4390264928737,-106.991465950041,43.6572093608654,86.9590843264729,18.6737387087931,118.792439722965,-48.0032075455866,116.769793183981,139.797925648749,135.962488244715,201.304946667796,-264.087683702116,148.934446359435,229.559215876054,-110.608801950996,63.4456598644474,452.715287530681,958.90007713205,-220.426194359523,-9.15618084719805,228.527139669511,885.144327933867,1141.24956240174,86.5742971168644,342.908483129797,903.748053746653,932.221600512861,704.97582809361,795.177335813261,671.927042094631,43.5848792045514,181.367517975256,75.984030831593,129.429930705322,149.263143596469,11.9778998820311,114.190053905679,-51.0218164682152,5.22926474049936,92.9420192462285,118.879672372365,54.6741731355969,83.6357950343903,21.0764726435255,42.5184813979894,103.231327070268,82.2758192344187,19.6482682457439,95.1953731187729
199.164690574516,186.798383623245,140.507673927715,205.867467833556,294.361314167895,78.2289908047762,218.522261726319,156.070667849343,188.838119460175,231.869075243886,307.822118844336,79.7317703530689,203.045514544532,273.85322016123,155.48339142463,242.474779988413,21.9088561405624,185.136205448703,223.957651865961,181.461600702533,275.852187841498,93.8546791862142,284.518185143336,249.37502003465,304.842914575285,364.406518332783,-113.484225230329,374.17436570479,263.45405687421,242.909769975849,239.078039614345,186.593512950966,661.357069476863,-128.542466071888,315.765766033188,291.276586416671,627.405438368442,1069.61457370656,268.895694530693,536.731980791714,765.725871889096,864.725775334078,793.4790873977,824.297878319317,877.491573523145,82.9454636301872,261.016588077888,171.229967009621,238.378553770694,270.943089043961,133.720580807029,248.121972555301,90.166940646171,142.211755066601,242.189369790593,271.403707682335,218.530753085151,253.012164576311,185.784832335305,208.431485905533,271.139071846983,249.309874925691,189.850800100957,270.809930265179
301.829075640011,297.636535404311,230.421817054508,310.673285776422,408.065440554006,151.940821962074,303.334266334334,240.756944131558,284.496171493927,338.629043876243,405.617923112365,165.098132222468,302.604292240383,370.663729833104,257.422356106129,339.994269941691,119.949260529989,280.066913361733,279.101729396267,301.364320689542,363.765111874699,212.848293161938,393.691046985991,304.926578899125,426.986067757348,484.487285180081,46.9919823734977,563.530671018738,325.787995306277,538.162003302074,540.349005827651,8.19811598087024,180.727247925287,4.10096336124954,631.674084220557,416.869005458259,287.70199084047,733.503464629426,384.361394094475,703.713875793003,512.698084453952,549.584003382771,734.059824285373,623.623893829194,818.545825838158,125.842072450605,276.536930555337,245.718858340887,298.80365677683,325.6272832913,240.493065775623,327.212313326973,215.744157920944,249.495788733763,352.818116284802,364.835911893542,342.847326368905,368.354593804956,309.571189325937,329.756621389475,388.593998474155,361.892822252489,309.542646032781,389.112164419204
357.746829412898,367.865109701573,273.924932589358,366.277770943121,466.841658569577,179.513487900889,337.518144039185,278.308500695048,318.828615078451,384.735733096807,451.374294877954,193.297068027298,342.640865127588,410.498960447621,302.34540096315,361.867168909778,155.429586471727,317.232623939402,268.95777042616,346.022806227851,380.132577560878,281.301013545893,429.210751828336,312.368039736451,466.087950043294,517.60928203402,195.77679897472,627.1193838841,377.830954986599,661.743483382401,729.011386901452,91.9544398097181,-84.2816976452127,101.495274946722,741.035217413608,508.433733889123,145.584672984346,354.717022975537,336.509116079927,715.062164176496,338.761426231926,222.113244607622,547.896122203418,365.912963041195,649.095882328702,253.248745378319,316.591727249543,371.865002425723,382.465788932913,388.813075414993,390.769095973911,415.288964341296,359.882017407587,380.762165113347,473.781225503355,462.069342069338,474.397160066911,475.761562180059,425.640357322675,447.22774274395,500.570040109,460.839348214857,413.81507806618,492.245219983816
418.578515667978,441.434810481462,317.463103646618,420.804350562053,524.522543825497,202.830010962223,372.542257683742,311.704250729155,349.681822500559,421.710011295709,502.532709593359,214.206340515408,371.049194202794,447.713477933495,320.583175307781,366.800917447765,156.46056510113,326.851028205209,269.762126614146,347.481395176831,376.192618900232,309.912253571911,425.972214154291,321.540025917478,438.232113566443,501.373807463964,327.260830508531,556.328441287418,429.768152474675,633.359284060341,685.673324919763,367.379936590131,20.7402558693086,181.913055761774,599.799254053069,507.333117332777,265.020394104192,173.972573863396,188.569918693285,542.303286694831,305.630286670542,68.3269409857369,278.407307567439,185.991391292674,490.184049599315,462.72059585928,411.41924353038,559.33735779885,521.349537414506,497.969576588701,589.751551009042,550.325496962775,533.177062262166,550.992725160291,626.69625238669,594.547536537461,636.082891511127,607.343365020866,561.696810812552,585.215388578275,630.685424638333,581.185457047417,532.822084223537,615.443517091807
462.788018508355,497.800034460687,345.711414168113,461.199813748974,573.198557124545,214.188237562868,392.947326277242,334.404915100583,371.603321206777,448.650293593971,549.429984018994,226.675572980761,388.568723859821,479.271079967593,314.278475032697,378.043197117402,133.77800626318,316.737531235159,300.089893603184,323.798359773992,366.850745718762,296.848344173951,395.809882951375,346.222108052206,368.452355149369,466.58324009484,416.71849416783,411.93751051689,490.706309062294,529.941486121695,518.693752509543,598.857376822545,287.337001044136,264.545975048419,378.426504182168,425.434437302462,445.515452721308,194.835895691368,89.7185823487158,302.910696756628,285.456894340537,52.7186626445473,-20.2914891075871,36.018240823271,308.152754440506,675.140236136081,497.19969675877,732.801129744537,656.890439780058,597.89142340323,762.631587911277,678.106475465522,682.277632717116,694.197034518685,756.727523234998,707.362901133436,766.146804038147,716.406111314339,671.544423700349,698.952502886588,731.95175063076,684.060455256439,624.288733108436,716.029010069555
442.502318658522,488.283439780897,315.723239396242,441.646505792918,561.086751123122,180.900797411785,358.593196672832,309.18287720111,342.66258120942,423.929799305563,539.120837148535,196.932869676156,360.979187195666,463.228080964654,263.570989204425,358.610062296705,75.2616936298732,270.810871891749,303.924516620601,266.673957365315,328.529299502164,236.829909713354,328.462731832468,344.52502055915,268.90112623528,404.075044098489,432.712760632263,266.892371200908,507.835048268988,411.574631276313,357.141545745319,628.502107295775,457.297379725758,304.26705499484,240.460384890133,269.690243425964,475.031138915779,190.881034258877,86.5068956571007,106.047660228932,136.895190320861,34.6173999960239,-294.718793316888,-162.668608233123,89.2138301140131,796.334409370238,523.894342461624,810.864196035207,710.528424466528,624.158176987606,824.190676570487,716.109729387281,732.156487589407,732.724645211666,791.607023624342,731.673915672423,792.833322772624,735.167385520809,688.806617250345,722.82971998309,747.064172276608,701.229930177436,629.531467074878,726.63758531218
380.140742140027,421.987848233865,247.429472361439,373.530934120414,493.422308156676,117.383772248699,289.218010728477,234.920957559294,281.202964631373,354.80209526059,475.602616792734,147.190963454458,299.533701737175,404.905065002089,193.295463945323,303.952751641465,5.49707256355181,200.972036545793,257.748957426899,198.489247248559,262.127411806504,166.920132648155,242.710275167842,280.605158895656,165.847064225247,313.498117104282,395.610007795258,161.280423122988,409.505841251951,319.323595982103,228.022512927064,414.281678684231,444.074319705972,293.258346396712,175.118415229861,11.7198767311604,298.335034932176,4.77219579286447,111.43291754431,-60.9112084643933,-161.117464718628,-73.697418570035,-535.478445842361,-391.520847510917,-81.0684676016014,783.405363010206,513.274414299376,778.109009527939,675.546160462943,586.573311462963,764.79743441263,662.156963707511,671.217402974859,666.412657704233,731.530294953216,672.893776325337,725.025770936544,670.283161771469,619.30313495958,657.415746696902,683.72503928848,633.695502021329,561.635196812682,655.457286450691
325.509139349822,344.439849412485,191.009408312339,302.308285298283,413.858179880967,61.2725022554102,219.537317292066,139.551591754423,232.12885007306,284.548809104487,399.493398145707,120.208226062951,241.178214151447,336.721702931138,141.580065928822,242.135536288989,-40.9783556189648,129.13306464931,183.565059575625,143.918733971597,179.940382616298,121.368870513292,161.193347546135,153.484317775321,82.4681737859002,200.006541299425,353.989726695157,84.0636524328792,196.194464269987,267.582104301533,107.631301611345,1.3441548182799,229.339742965195,281.41399078901,98.0427858265819,-308.094653108174,-44.7832139348556,-303.540799858922,100.204539258806,-249.420093252547,-528.067418492847,-321.390855440114,-798.76074472092,-655.681633588905,-182.252450456364,670.630404695662,480.4638712993,672.639804943109,592.670409685316,517.963383791681,641.075383210788,570.147165463534,554.070244634512,551.437028281053,624.075782051148,575.063882007999,619.823991451564,572.422023157966,520.948397201555,558.456903834177,585.901555919879,532.617175115821,475.387026769268,557.895234493397
278.936576141312,273.99930199632,155.00330749056,240.937235892292,331.29954361845,27.3501941742405,147.574177728758,45.4298542924289,195.76927372277,224.51589290753,317.024207103085,107.592020075953,190.290783370849,259.479770080971,104.074399188564,173.22509170147,-68.3794645629549,53.0708991382876,90.7669736798065,87.3957517474917,75.6252613080086,81.8787767703891,71.3725550561904,-12.1165456012927,-2.25808430705135,53.523730553959,306.835162568343,1.09428117015758,-51.174904174079,220.786749633873,-28.3468279589651,-405.16883571335,-166.778930352109,272.816478090009,-5.13406378578538,-543.127629189276,-457.415935634399,-574.028265671311,48.4295582393073,-419.136223912025,-826.133390307637,-683.859232129381,-1067.90168133532,-1001.54772670586,-320.459723082257,527.385821049822,409.087209382958,539.089128131653,484.400763790355,422.229621641283,506.113298651439,467.006889948254,434.011579599868,427.75206636867,498.796384042961,458.719225251402,509.097131120037,462.578086342628,427.919289255493,460.321257092504,477.301091930338,424.101928001116,395.358595549119,456.336811171559
218.064469578072,198.120445955681,117.387947924562,172.002228699047,232.620734896574,10.5231639318295,71.7582431834702,-39.4082609458236,153.302919862221,156.2411659576,217.307189278569,85.9933719202169,133.418165540124,164.468602007947,64.5289530421873,92.5610694608577,-87.2523014032529,-24.262519248877,-8.33764834439135,20.1794170930257,-41.344216153964,28.9578401726847,-36.7933049948745,-169.945803784773,-113.294734198243,-110.948469650631,226.473701968485,-98.1909681594549,-236.857484107521,133.749969324913,-155.85947754235,-564.6462448682,-550.637354795615,228.497393285051,-92.1103756838322,-598.274208856059,-767.522950091002,-683.72725409274,-7.54479819299774,-485.412172529605,-943.933562620497,-974.554082645154,-1189.15472584257,-1336.4687749268,-596.351949148381,373.898854573417,284.933388378368,383.349964066934,340.200795779778,288.295424582184,362.384084480932,335.403443027538,312.339854206189,291.040979552414,353.357284662371,319.26212180767,382.355302444216,328.329429502696,328.908747889398,349.954575399976,350.256047635549,296.839782333441,307.303870508635,335.315558348442
137.149707493328,99.1793647959571,56.4904238997761,79.8728084138542,114.738061964526,-12.9419148867268,-1.41796453334494,-128.161251037229,99.3262092839464,68.1352014883011,105.337652988808,52.0068993522129,64.565163560138,62.9982163347702,21.910156774122,15.566711709951,-98.2880017837247,-87.2591522205294,-84.9266783771353,-42.9070600115358,-138.318665530277,-27.1472420121688,-143.408714066245,-280.685194552288,-231.375187068369,-247.031167738111,118.413344540525,-208.896752732325,-311.259897575107,2.65501248817348,-210.811160517034,-467.378274385743,-663.607223975718,151.165583988679,-142.119946167965,-513.979892948294,-844.216368372082,-593.781736200298,-37.5252457123525,-449.356496241138,-889.725600580151,-985.432241484975,-1092.92215313402,-1444.13883980259,-920.250127496375,181.378707951001,104.14800773507,183.950402525676,148.170360692587,110.246911399438,182.570034522374,153.441767170457,155.377788493294,118.231395899819,172.38919271491,146.798317011439,218.559839194725,157.651142834331,196.448793266569,202.212615400599,186.464030153045,133.66816438662,185.627988414076,179.871540086468
48.9730186682902,-12.1863884020749,-25.3726759314937,-22.862919505565,-5.17893167044333,-58.3379075233582,-71.5817489338458,-225.694539007967,38.8866507544064,-23.6800379213896,1.87490634706703,7.44981047243116,-7.49583520955911,-25.3366380535646,-21.060011076505,-44.4345508743989,-111.149079898676,-134.02577640821,-129.616893911117,-97.1259311510866,-201.558703517475,-81.55956928803,-226.937855477447,-343.759244626875,-326.273861655597,-334.953837384022,6.11629127166749,-328.479619535103,-306.581211016609,-138.839101053861,-202.893117115512,-309.668663703682,-489.058814243505,80.1437952111179,-163.933315917295,-375.668424400616,-721.274396050406,-365.638308517374,-36.2445240422868,-375.45068105191,-752.11988306844,-709.840137778211,-906.407160009774,-1217.96256637111,-992.407124697196,-12.0588013735346,-79.4903468840306,-15.6230905857567,-43.1561525443412,-69.0750732726889,-6.62381871681319,-39.628004642302,-20.4986603745899,-65.3633444769576,-16.7961559433443,-31.9210839092603,45.9761361104931,-17.0901719126378,43.1081366015896,39.9172486726447,11.8217940725662,-38.7239136565629,40.8655095049209,19.1135590772939
-2.27497681668745,-76.3147386163008,-74.2406623653788,-81.5604383317503,-74.5608140764762,-83.6498876639453,-106.711291907254,-280.433808220862,4.57504108354784,-68.9199456896046,-52.5111131710166,-18.8213418331249,-42.2457111216371,-68.623032645148,-41.8395808216025,-67.7931513089775,-115.22185463269,-153.256525176539,-139.247681249974,-129.489082603458,-227.48625342343,-124.789418471764,-275.030349672773,-368.140977784835,-382.172911074407,-390.660508929613,-86.6028665458995,-439.1243850479,-301.949925539409,-240.347130971229,-241.517173399461,-232.542125778305,-219.751063013583,37.3219305294025,-176.61861337954,-249.629398262897,-487.781206408327,-111.080102243159,-5.3570104549503,-293.027822151648,-580.712494739146,-304.144332750884,-727.454869787921,-758.304088326291,-626.3242305401,-96.3338380325067,-153.499606230701,-109.277414706154,-131.858630269654,-152.462427894113,-111.322740304567,-138.68944232475,-122.659693508988,-167.745058535323,-121.162885333222,-131.612973728707,-51.1648950526285,-110.688138843267,-53.5941914886468,-52.2461734957481,-87.0674420433781,-133.945850224835,-52.9376219057866,-69.5575997139719
24.1984334903761,-48.6638671550738,-43.1593819549329,-55.255357962339,-52.467679968903,-42.5551848545651,-70.371541260465,-240.49073640864,31.9565411481623,-33.3988602714111,-28.4310976165852,14.9846321961647,-4.5098284318058,-37.8426299754625,-11.2246303124078,-33.9793516941961,-84.5714411559431,-120.050439960793,-94.0958840991775,-115.77827286123,-199.411383730298,-128.785658281905,-273.247503240829,-340.139982227637,-383.393165794519,-415.934363301144,-128.29364943768,-509.979990772898,-323.417999591992,-274.010568330599,-379.171399216758,-216.918167220836,34.0652406806066,19.1283386207286,-211.42838115289,-170.141645163837,-189.511719643813,132.2383726827,34.8743971593239,-205.562736949894,-363.15028167496,79.6061369888917,-514.429163846354,-261.325134291608,-28.6296445560441,-52.0900280985929,-84.9830165446387,-74.0264504208866,-85.9392293089252,-102.433938672259,-95.1459720286884,-95.7602411007822,-103.092592057979,-142.196950137076,-89.5980949283186,-100.660219686459,-35.342810165825,-79.7685588184118,-40.3906292706947,-29.3972257776633,-63.3315822031703,-101.795396386591,-41.0567979068551,-47.8305732533765
94.842579310789,23.6572492678782,24.6440321802408,13.886960177992,19.4951070269189,26.9827637800764,-3.26884907289754,-150.826080868054,94.290524569404,41.594950485884,43.7066181646859,89.1318809180295,71.1989540457791,39.9006117030748,48.697436890367,37.6310418568037,-35.7582825144172,-50.44318722138,-1.49302131360907,-64.9790983231751,-123.723640370895,-89.9685500154331,-214.718510220669,-255.977114909148,-325.752843793215,-380.545839722751,-103.4471881875,-511.863025904387,-309.971057359331,-256.268846132581,-488.925995674346,-201.327688125639,228.624320645967,23.7878448608239,-255.241848365181,-117.432498188073,44.8942479707059,376.491598712084,55.7113170378812,-125.315972473008,-132.495284589192,332.654939988954,-277.093758404251,110.484381013202,418.690762316712,15.4492833251511,25.069228196296,-4.71945172040811,6.17401691007764,-3.45346574397499,-38.5683738210551,2.57533133844756,-39.2919758598345,-67.2256201673181,1.12429372679446,-8.17725897609628,24.9902561132996,4.23595648304922,23.8475679595672,37.0865335218858,14.2715346011415,-13.2670184874044,21.347922329966,23.6574623757931
130.936518949233,55.5315255183614,52.3866718520491,47.7560764904581,58.5012321015797,56.3545194486952,20.2770154388993,-103.903288427304,128.649153270925,82.3389568600265,94.660750972291,139.022516022792,115.018955074414,93.4771772109042,84.6234358751902,95.5332214725688,-5.31728260900617,3.53698575577035,80.1232792892782,-14.5094477160254,-48.3797494504224,-42.796247593951,-128.328062253293,-156.705713943628,-243.468238607736,-280.655803445742,-47.5858192915246,-437.234505966763,-213.663551132737,-214.830212444915,-418.528735304834,-177.266015321915,240.942116918561,52.7767227986768,-227.681035104873,-51.6667063179735,41.6575151465937,512.515288073539,69.829125111013,-51.8471943088065,-2.3167684445901,370.054288622586,-130.050293618385,270.639400098248,535.918143847052,23.9097773280551,73.0720446373998,12.6437659279646,43.920087878697,41.7247642097526,-29.6948838329497,41.9865750180698,-30.0254737730285,-45.8566583602455,38.9268802613221,34.4917466292209,41.6338050956066,37.7739328196916,41.4967406067208,50.3385477767633,42.994023895838,22.3614693609032,39.1193742941454,56.1943873048705
105.374446156828,26.1829594106588,30.6441515977195,24.7338313455784,33.2281327947056,46.7197041512345,-9.25113004080987,-118.27913969322,117.560292746294,66.0682690833337,83.6111607276602,143.858621796338,105.069469554849,86.0475833752787,85.9816202182373,104.971408893078,13.5764609913736,19.0622372306059,98.5956987631378,11.8578964670261,-12.8616378198518,-17.566095058604,-68.3891454442702,-93.2940901689668,-189.646156721454,-173.438562283581,-22.2530548222528,-327.178387113911,-81.6744879461298,-174.748719900748,-225.593802986468,-140.381920224581,58.8152372473922,78.7694222725199,-120.304854286173,23.5597353539005,-127.44584475581,373.195884248234,94.4739684337676,12.0024803642599,-5.87416259529305,182.513744288101,-100.957143471782,224.040677478739,386.853859167135,-21.1619797966179,44.3391975015192,-30.5334730390894,4.35470193011427,9.34607087454654,-78.3214319736158,-1.3680247183979,-83.042478019759,-90.37644872742,-6.37985356507857,-6.05073028439855,-6.12774703842416,-6.03543563899064,-6.76142810680439,-3.58183702397296,-4.24881218614544,-21.0211799639857,-6.24402892528577,19.0541382832074
47.396807059328,-33.5363559200676,-8.37908872661555,-31.3211304574173,-34.0566049414725,26.7582591842065,-61.4129808886592,-161.285454385214,81.980165766436,16.5520842752135,22.6834891951704,127.205744074411,63.8021877150815,34.1686497522579,73.4242854656171,71.1596716116559,36.2152618575276,8.40735648121864,58.4797873668223,13.947856154616,-15.9043770354616,-12.3013751598913,-51.4125733179122,-79.4637122345033,-172.959264391483,-105.751892160353,-31.2637608592809,-232.144276669749,-2.43158430763189,-150.539173291697,-96.0814754232184,-87.8801672294197,-121.124495018163,71.6807013654663,-54.9149370794308,58.9787836015075,-212.652912193421,-0.336708169906563,90.3410351549212,22.6067945305718,-40.5286237736259,-122.030553515905,-110.702214804712,62.3841764545379,96.4805310178944,-93.9075732073208,-31.9250446336538,-108.824322900205,-82.5392768211723,-71.0125377547162,-156.311080107507,-88.5059565112937,-156.519038050753,-162.352912819346,-98.5490666528962,-94.6875278512307,-89.7161062940917,-90.1426798024514,-80.9202175337094,-83.7907160053424,-90.1444897753046,-105.189262042898,-77.2914426994938,-64.6934115532036
-14.7410421286476,-102.794007223665,-57.120713039852,-99.7073083726152,-107.443088252708,-16.0898514428625,-124.848249066709,-235.685519252885,41.15128082469,-37.4273549630111,-41.9263772097957,107.701300381542,17.7353922064208,-26.0800582884036,59.3045648881956,37.0736802763872,38.2188257508236,-11.9801787433576,6.60979236973436,15.1377306212989,-29.8207782520537,3.0202144356842,-28.1225907975867,-96.9737873030433,-137.448248005484,-52.9694298689412,8.21459371265332,-124.419208992341,-15.3015178226747,-83.0060006147847,-69.4536151378687,-95.5946731583753,-203.772642026788,86.4357102122199,-78.8529967002539,15.6085958104032,-185.971864089295,-367.448860222277,39.5840832870156,-43.4133627313731,-51.2037655136897,-398.92808845709,-145.009340596609,-119.574553510311,-240.50487026083,-176.835600047006,-124.780312635768,-192.10536350026,-174.082034664203,-165.599511082131,-239.054890670103,-179.579074521901,-229.944807359567,-242.575403236271,-190.466082420669,-186.915009489751,-167.628811514734,-173.952252999881,-149.82563254431,-156.956274518063,-171.928009658753,-194.032872118887,-146.190874906895,-152.816705806137
-50.8140699688015,-158.489565256662,-105.831028042368,-150.196672654669,-142.847834215051,-75.7291159080403,-179.553637893174,-337.650411506909,27.4000599142012,-59.6527383952268,-56.1236720501376,104.312325210288,2.6450705932596,-49.4702248592607,69.0162889418178,58.8084225158129,16.0942672499442,-14.5294411910855,-4.09504364920421,57.0962582898285,-11.2205817243608,59.305889664506,57.3619497205974,-102.36667655721,-36.5090631285422,51.3059305870577,159.755852251702,82.5028002888436,-45.7444649398268,125.278945917718,14.9658819800972,-183.723443595811,-263.935351703611,225.453464154744,-39.223881608805,-43.3429108031753,-193.393264152078,-541.599456236766,25.6400873251263,-99.3849617292339,-67.2225469572526,-546.843433850958,-229.138521464364,-274.884000285132,-515.629504875954,-230.242813695643,-194.435861898177,-237.742309667284,-224.882447989933,-235.510095999264,-291.532153395332,-235.005305319047,-282.581738119835,-307.233381576147,-236.115300331428,-240.081374807048,-191.003586164951,-221.834013185103,-183.559276064226,-192.787849944651,-210.526559440353,-250.339823330818,-184.04394309919,-196.256819419823
-44.306305123698,-178.22193964767,-127.435598779541,-161.542794500278,-130.398721642458,-107.217426868666,-198.690777246795,-414.687587000445,50.6156243552508,-39.1463393161304,-19.379083953803,123.798591906053,28.3324969477577,-24.8620182869865,109.680978985028,128.430452402451,2.81213929281021,13.7671958229766,33.2078331487941,128.311301005685,51.3969412029613,124.310527695941,169.182963492841,-53.7087364552018,60.4180965835208,219.419437474131,321.975118756758,354.6339782999,59.1358492201609,395.378599902494,277.351553666503,-148.660264766169,-261.833261329462,440.022346891363,171.20564509836,39.0785842179808,-188.07932652087,-490.569784967959,106.69933649697,-29.9983176525167,-48.7971031665713,-513.059003716486,-283.882679576898,-354.716300025496,-604.862882019964,-230.140870880567,-221.45452830557,-232.244840393865,-228.522421591452,-259.985478363872,-294.330677543349,-242.402502904556,-291.660268764739,-328.977974279218,-228.630048365852,-246.947965553747,-158.389441438545,-224.048526592288,-170.210388206788,-182.660417404008,-198.832692009676,-258.869369291869,-176.599810381061,-184.864583801743
-32.5835666875059,-175.248341382299,-124.401933325353,-157.085079670153,-119.043177494784,-103.217250207462,-193.354052348976,-427.736633405773,58.1326652905555,-22.4602481633458,2.29115825425592,133.252381554886,43.1237075808296,-5.2768398381707,122.159999155407,157.893243613677,-7.75067895932334,30.3943566732561,64.7720501185593,135.002759211861,89.9875968239725,102.381877501056,182.230513306208,21.0103524288073,0.235240690452418,332.678699475639,284.014776653139,468.614169949856,318.870030499553,448.451635821301,574.549648684022,201.521528281721,-53.1671063580595,504.050093701217,385.404887865812,312.039440878401,11.9228200832247,-253.987475653747,189.024804999519,141.2006387177,99.9756121410975,-310.862319422478,-187.878329514688,-286.840439245682,-470.483265667225,-204.726452426623,-218.390664102691,-208.92589579987,-218.920269277245,-254.457094755962,-269.864912613389,-230.211284127082,-267.902705420519,-314.201073812083,-211.921095814846,-241.154513466039,-133.889447117268,-212.672664727272,-147.321351150978,-162.278323354456,-179.27123719539,-249.62997763796,-155.798951600931,-165.612319223785
-29.2251726852855,-149.108146744098,-101.417892959532,-140.452884368842,-117.598769229229,-74.6266774432036,-170.40015748477,-366.767816084399,37.5881742073882,-23.7050368523306,-4.95260873878013,123.439243334963,28.1210152753262,-8.88229301374757,78.3432131817457,117.712948210952,-33.7049548097767,7.3444508400783,64.6012083356655,40.6761242063226,49.7704585798901,-26.5817673182188,50.1064962390281,51.955085206809,-237.899396163351,258.47886943315,5.53103444199189,282.855858223162,527.005510491255,166.932473513174,636.637064261478,716.589697804275,354.950536472536,301.927499778194,382.48031439676,602.770123963324,401.443800232829,130.975089424903,168.01919498581,286.011983891391,369.635537555181,-1.55027509087481,56.9887398047729,-54.7202852774807,-176.779338090195,-158.108632614863,-169.342448077074,-166.813042582175,-180.70801031536,-205.982473385907,-217.86610380049,-187.069387018632,-211.733355390202,-258.115277639105,-183.303684031655,-207.388519142456,-124.262912305768,-182.464788632078,-123.38021863366,-132.800281170325,-155.427363836648,-212.638162731493,-127.862223666683,-144.050497114222
9.29054639204026,-76.7331411544865,-44.660042391292,-83.4481602553181,-76.817812837979,-15.6561537146262,-116.777020244958,-249.840631950856,47.5218006261059,2.08945892446622,16.0547137479014,131.201004759225,31.4960970433104,10.9323748607371,38.2741682093679,79.216659781548,-54.2826989973438,-22.025512145736,60.8370272136033,-66.8343265850885,-24.6765075753618,-160.883256541639,-114.777792102582,17.8092440602273,-476.975937492399,45.3702608747563,-302.292347081191,-42.5576762782592,486.928291326954,-218.391697856097,392.972274066383,996.449351704416,745.819205566028,-14.9602011160578,178.542641230296,677.908770276574,732.494965111145,566.49798902807,74.2682960176779,323.785550549415,590.468855627204,316.491771743407,299.000053036876,200.412682824349,175.920545763744,-70.187736368711,-61.9153390885233,-83.2505283645514,-79.9882709094422,-93.4086940481919,-119.662923681172,-81.2732445906471,-111.767030067655,-148.151765551107,-98.7343583632507,-106.579023301426,-68.8286819124466,-93.9037921336423,-62.5769364648522,-58.3193840341164,-85.2297901246307,-108.259042469012,-61.7077445964661,-73.861308600515
72.1748805054789,7.01363174173067,16.5243910983642,-15.120778089956,-11.2898665747346,45.5000622315568,-63.3781419887729,-146.78916794622,86.2328059247887,46.7922322899307,58.9932121989169,153.705236360119,57.2375520614739,47.6612224127921,36.0281532983455,71.56835286663,-58.4492497364436,-38.8227192787801,53.7884778691817,-115.037223772434,-75.6449611583149,-222.942564410455,-195.158098153073,-51.7759863587374,-572.232193785406,-128.190762643762,-457.949385037003,-261.346613803005,237.961908971326,-446.503957689825,26.2001597273973,802.295143791978,880.457029555553,-250.338951723557,-59.7791145558318,467.596733666574,762.941042209275,845.167688906537,-21.7753449952807,253.507731903201,595.250361512754,491.784469072558,392.468074706495,282.748998140546,468.660157975988,11.7064254967723,36.0651149236036,-5.55545428958328,22.90602784503,19.2396723935182,-25.1992095403038,28.7617661651033,-16.9633889949221,-41.2808231659068,1.37128275558922,5.88042969007887,11.9668741283028,10.4731577793601,10.8038348917249,25.2913989414625,1.99864401913276,9.91660820365513,13.9996373339476,19.6444832408605
101.751333870178,50.1809755956341,41.3997747422759,14.6430863804451,19.1158044445251,73.6633668576771,-46.3289203757763,-98.7203550574999,98.0429465375672,62.3326438956754,69.6121338495244,157.180798957024,65.0376053004152,53.9552587915784,44.4146100036715,58.944178678994,-51.8712123939609,-49.3837541403508,30.2848740970865,-113.044392724278,-92.2934144087428,-226.653368871539,-182.522259302857,-101.369418398344,-544.696522413404,-160.031861784806,-486.282081075008,-306.546752909775,-11.3924751774652,-496.7768858036,-242.115828251459,324.714409640879,733.596353140159,-360.525278934638,-211.486223983224,136.613768677711,527.569666707338,855.160502702879,-89.6905326629932,139.653117287569,429.287885778385,467.348373500917,369.224377292515,216.571231493472,635.976526458979,42.1324695694809,76.6325979510848,20.1987002700997,62.9525782526405,70.8647179004463,11.0777441074965,76.8143887424428,25.1807286898867,7.88098807506353,49.9159182115662,60.7194627984831,48.0547196397578,60.9759667995976,45.5334206893109,61.7171319240555,43.7621726519037,68.1321716813524,50.0960927290128,71.3715238057301
100.507695653657,68.8601758225302,49.0989368756388,24.2360366548949,22.8112581864349,86.9859840280158,-40.3339164225066,-60.3751429766904,85.8172178331257,59.5774239078566,59.8659199741597,149.715156505147,58.6308990904093,45.2300299574418,52.6748923409542,42.5315146959323,-25.628041144142,-38.2161672784172,22.4423986488557,-79.0404540426997,-66.2786716796773,-197.53961807695,-116.659177024047,-77.4355943756742,-457.506234879747,-87.2198386913217,-465.635170920852,-238.406666407633,-107.928251945445,-458.261278825461,-326.647751211969,-29.6535978634016,489.930605032727,-383.738390957693,-239.910849406175,-73.7767195771181,277.238771439501,726.159316264508,-98.3660826470662,85.4375032838668,279.759979494354,388.638454554701,367.984527690212,215.412752697905,731.501084049841,71.9028288280399,121.237378123652,40.9725870390846,91.7573691282189,113.871088360891,32.7046975527245,110.736732662195,53.7329436412067,44.1490698641393,80.9391888841012,99.0270849777994,55.553928555599,90.4778572557173,61.5982961475955,81.6092607471056,64.718569267491,103.199260434643,68.7686791671507,96.5476658300548
101.663036090724,90.372486108828,61.3999284730537,43.5990016337389,36.8766283294313,103.460887704233,-24.0664129121238,-3.26119314692492,81.5534866371371,67.3697111088633,62.9863087426911,145.30996256819,59.5665577436545,53.2881803924512,62.189993117357,45.5612674819082,14.0698198635399,-4.26596626177936,49.9089411785762,-25.6307813787504,-7.6472577506325,-138.894874738886,-34.3119376881626,-1.76188161663854,-334.183369857509,-10.024770712045,-391.994578610643,-126.102409501418,-92.4422960989623,-365.337364936694,-299.506850838681,-110.316453672914,303.230875634152,-342.388840897482,-184.483825486326,-103.487528597331,147.211426698199,602.665536931836,-44.0423428529692,115.542818908374,215.335910201313,383.475420967862,414.82857518103,332.864273468063,810.011582989886,141.842604014055,213.383377759206,99.4121787596201,166.149513015391,198.863331910999,91.4177808082599,183.925001693947,108.567104314581,110.973753903436,143.047441026067,172.220595627651,81.9976406786757,152.12769163718,90.1881730568202,122.2677901951,111.786145438228,165.763787889331,97.294450656029,133.401790121286
96.2466155309428,96.0793912448045,55.7407022078037,49.4702615818858,43.8329208076153,101.114356689704,-26.1131626778015,30.2730757969681,73.0958798902716,64.5241899742737,56.1025839758586,124.945419325617,53.1140368853607,52.4696298547587,52.4328790206973,47.7294941869106,37.2175307201003,13.255092916227,69.9463927006078,13.5933600786476,23.1234701642703,-67.5674736864201,18.6468646462418,31.9232032628418,-212.809401257367,-9.21150111303608,-253.235211584254,-44.5226559704571,-120.215217953505,-233.714387978417,-283.277494278598,-120.288551712582,172.787917805538,-259.134138718171,-123.598168246126,-100.554800368863,45.9637205486082,449.275605848266,10.5217758968491,136.229974964888,146.80798986744,382.242074837295,411.783479102649,394.919338949915,817.300459975388,195.952469172824,284.070063838519,146.527419562023,229.785219166225,265.261457601451,144.441308140824,241.253971075555,154.421013863723,160.160611590945,191.225665823597,232.046523189549,104.366098750507,202.115235394051,104.708025273443,144.3574736919,149.331379134343,211.817800305643,106.561567186513,152.343745710904
68.3851097109045,72.3123665742964,29.8902578934238,22.9822706230561,14.4462255945884,78.4710628271521,-54.619824516918,19.7985127066793,41.9881543514473,30.6332737917463,14.7851814721421,92.1785040128013,26.7137594441176,16.7264137023978,21.1640031222939,24.0893377864481,42.9893550611606,-3.22600109410812,47.7056095038546,21.2647729111994,-9.98185176401351,-7.40380823561392,15.1867760088779,-13.9837841045966,-145.582203364482,-83.9815529441685,-101.09183640049,-35.2537336930844,-242.644106186274,-104.112731796983,-310.884813330047,-243.56597920814,24.85358423475,-169.046147029346,-82.9331980193828,-175.905222349142,-126.42899655412,189.413029706772,17.5570929570419,82.4923339012562,5.14445702665173,273.370002004213,309.656311606826,286.213927609844,676.500579829647,173.966453619446,254.47928553144,124.895219066222,203.126763113256,237.412462165721,132.147047882907,211.676698999976,151.265687501573,144.542860599184,167.527650934589,211.095783881849,82.4371431799922,178.489147608516,81.8457370046512,112.313670413105,123.295163472186,186.25070830678,79.7990509881939,117.328868262504
32.6986074561403,36.3342537207793,15.8493923410657,-12.7168810156536,-40.7379709654073,66.3860803608923,-79.4899819265346,-0.744230458814662,7.0052817538414,-13.1053770874727,-43.1558988110671,80.6155481029847,-1.75085738893485,-34.6699598523371,-3.24878779426674,-9.86539377973605,61.6020807835901,-25.7123225380227,2.40728277171967,18.5781874605963,-66.6258537389686,37.3561958993591,-21.9709267038785,-79.0897507996313,-137.101292002951,-162.469893354946,4.14507319469035,-58.4420555375371,-344.127243724158,-12.4972868067502,-314.510168210439,-408.869798186293,-199.488265160493,-88.0442743901496,-33.632499418743,-263.734557383997,-333.1884373949,-151.625403538385,-0.593357434834402,-0.839718600114636,-184.975233897832,52.2157297620015,147.161193277451,61.0939625443865,392.9723347394,86.7907404594996,130.74603908553,43.5394698200908,93.9266776046502,125.117201620661,67.4304020864747,108.736563900958,111.189506614353,88.2388125646949,83.645697853129,115.10351442193,25.969711189079,94.7177020121348,38.4878455546663,51.21773107046,43.614155479681,104.909986177918,40.8720481932394,44.6721001145855
-14.1429084433335,-14.4081780640341,0.416187593162626,-56.5119735052794,-112.517411684968,53.2877658958881,-108.398415510871,-29.4659056165959,-28.1387939949203,-62.2598423272501,-113.993328793651,73.9902144841059,-38.4561868174344,-95.9353127265416,-25.9712973253464,-51.1822225388528,81.1055619985169,-49.9328182601617,-55.8975253710835,4.99884028973257,-115.13208836578,53.4522577573621,-72.3117626590818,-128.116094211558,-163.297344569876,-211.33500898363,44.0415755912406,-75.4051091420534,-342.562917779051,12.1830988416189,-257.847528993667,-470.438207164731,-484.7003286339,-21.4881702167064,2.35489365430092,-271.028114011892,-491.733146375262,-498.58714908018,-26.9084254576131,-70.0645394759357,-363.253107501362,-223.526078194247,-37.3015454971285,-197.060013163496,38.3046594619825,-25.933666791639,-27.6392184102472,-65.7248739975945,-40.0350107371049,-18.0832347259057,-13.7916282668233,-18.0299635480084,52.1570555029558,16.7812915646977,-27.6563967793887,-11.6677288571817,-49.7923331138164,-13.2790594033715,-21.1349763398534,-23.5702401057884,-59.6185012891067,1.37277118631315,-14.0118711402698,-48.524070606007
-110.66161965771,-112.604761486898,-73.8360815222384,-148.539871862468,-220.503283403283,-15.4509401622055,-188.063618362644,-109.177752456625,-106.959756551882,-152.641048768421,-226.157499549871,8.51134726903892,-126.881339171299,-198.463426158112,-95.1232933209119,-137.817492204201,40.9278030933742,-116.88467223524,-152.039775874825,-59.4284760774544,-188.743286547413,10.1604417862112,-156.307110196916,-202.564134207816,-222.955474434348,-278.932003256383,24.5695020575195,-123.926304059321,-318.413191872221,-60.3519401691017,-215.502171435809,-412.524884843921,-698.08084082176,2.62099124831617,-57.0460293417061,-236.451520815636,-553.052310511195,-767.453839146348,-93.4579792430794,-156.234087530103,-465.959001769333,-457.900992182837,-208.357154989015,-420.167407825123,-288.971344121009,-133.385494509647,-163.677529219182,-180.76260933559,-164.992089156969,-155.841403395419,-110.443992134487,-146.315211539635,-37.5102631315017,-82.8710830640193,-155.124742795788,-144.498431765464,-157.70668100379,-140.876479596542,-119.513923836786,-135.205350187568,-183.273871817269,-122.348210761727,-120.176047728881,-172.051869161764
-245.169996827772,-244.741598707441,-195.932781061738,-276.617052698266,-351.723582851698,-129.779960540788,-304.209665121813,-221.358091983665,-231.025073727033,-276.774431152935,-360.96523011507,-108.793249392445,-255.281074603724,-329.139879405299,-207.823829536957,-263.416900388094,-58.2447604017807,-221.782917454659,-262.910219972644,-167.91623860921,-293.36621056003,-69.1052188158964,-272.796562393205,-308.151030643533,-302.280502336926,-382.826016780329,-24.4868163026129,-226.5913859319,-350.332839194904,-205.748025107242,-268.666803626182,-302.735760526336,-678.577812323954,-24.049685291654,-215.382749838174,-247.786405368585,-487.822640689425,-841.92920752683,-192.299536734765,-279.09463674862,-451.911976349247,-521.213113956029,-304.917493608153,-516.889108186972,-483.894601082087,-201.075764536819,-241.256454530983,-267.04870111043,-260.164267809843,-256.40791307342,-212.154105387401,-253.404213660558,-146.996973509599,-193.220602487017,-272.75018353345,-261.004607989095,-281.909572135416,-266.634126090576,-242.434182379002,-266.378268086459,-309.703838136612,-248.354599536474,-254.29118184177,-303.672270484858
-348.102931384198,-346.296411060932,-286.62929783668,-369.902020055261,-449.541678632194,-209.594006468749,-384.822151451619,-288.641802113515,-330.466033023421,-370.166458914179,-453.083649154478,-194.125251733832,-348.810340493383,-421.316848749187,-297.488071429295,-360.492067691797,-138.827167903236,-302.766054630487,-324.239801744998,-260.025730216898,-375.773701704044,-118.313396279751,-378.972378912624,-397.301029139634,-360.571367542769,-478.979691522654,-63.0141626522076,-331.230668616745,-406.164469825775,-326.946857419188,-396.060984560357,-218.702422187145,-451.284223465246,-54.5347069021342,-355.096974365332,-311.828862382338,-345.890599862084,-681.456182147148,-237.054917183836,-387.428650484442,-374.359537458081,-398.953927573328,-312.703875969652,-475.967683111837,-521.353196132491,-226.132032865344,-269.96230049823,-314.475053557026,-312.869705710311,-305.396201578953,-290.348759114727,-318.143490693832,-232.867890224081,-270.567348904132,-352.566934894771,-337.943053101478,-377.50418723279,-352.747391951903,-338.095882697234,-362.112247436001,-404.867314253692,-338.786348248626,-348.524506205795,-395.982792304543
-409.971716253441,-409.447576819937,-334.615887571978,-421.515788065667,-509.09090595195,-239.50412967831,-423.473949024675,-310.416904674559,-384.419964682833,-423.014509745029,-501.640227103202,-230.016779525516,-395.34843044983,-468.570293816689,-350.819282069834,-417.332111816428,-183.260218973077,-353.408877043646,-357.164843669081,-326.816158008654,-434.318196902504,-152.153526016887,-465.467745912117,-482.100883798066,-404.351881415046,-575.508253423448,-101.763639459352,-409.335413852456,-483.736958646625,-362.355648903983,-530.319776846793,-263.565214195434,-269.91238610219,-60.8001776749362,-385.716128448655,-393.804317056508,-284.025514493801,-456.068632431493,-176.963299121262,-423.804977053695,-356.338797338916,-271.151122896942,-284.861972516379,-434.817791115912,-514.018624884816,-276.066199927198,-310.748718845254,-378.602090365843,-366.293532039473,-353.71602540645,-370.209453022033,-380.684163501646,-305.847351197284,-341.718860270844,-429.9740080375,-406.903486445704,-455.353436530203,-426.225702803892,-406.307875298528,-432.391073555293,-485.390633980541,-414.211955771426,-410.783619082337,-468.307594892678
-463.930226750497,-468.059974461427,-377.66597746638,-469.644755043147,-564.100169297775,-264.033437973628,-458.128418112013,-337.823901120039,-425.590406570553,-471.847498281171,-547.116324185028,-259.603108443509,-435.098222344526,-511.424092898781,-403.272313116431,-471.598458479964,-236.700914074124,-406.668608602274,-416.323000001997,-397.822876407509,-498.458625473876,-239.300319094403,-538.841145258661,-578.797513986966,-463.612237516352,-692.265087420344,-173.40925087795,-463.298734117304,-620.102820468668,-338.504069674754,-609.295697410538,-462.15942626482,-301.740175424506,-64.2429045109661,-317.24906787623,-454.314368896512,-362.013334545672,-357.326782732465,-53.8219854356607,-359.396761033946,-409.790179761585,-267.594913950377,-215.364616521722,-468.34158492098,-558.291371546898,-393.302264743132,-389.901165474939,-489.764328280326,-459.793796097757,-440.576798591607,-484.630610321535,-481.688566673135,-402.031660331455,-446.10188633153,-536.85169334273,-503.85828302237,-543.413315319189,-526.184283690194,-477.200701884398,-512.184161827109,-576.324037672538,-510.693883627596,-481.827933008091,-561.299675878701
-491.504336415662,-503.503105913959,-396.166071779005,-496.214970468138,-598.38522941202,-277.014194186552,-471.637200132869,-353.757835050475,-443.300626000601,-500.915290322341,-575.702494278939,-275.418559499772,-456.960231972267,-538.442915446314,-444.03979495932,-512.866976668449,-291.411766920382,-448.228641862918,-461.925768438041,-455.214336039832,-540.259172598782,-361.463923337189,-566.66398817723,-619.295305626684,-508.287197840461,-759.681471760786,-259.553705527868,-459.29351713528,-753.479228414531,-298.440231699807,-580.352557919686,-666.231256806124,-423.622926536042,-84.5977973594363,-201.631068067354,-438.24650268971,-439.175656354697,-332.912318499737,53.061832001563,-205.435768831039,-407.115906904176,-285.881836662605,-47.4413229433114,-455.737159152981,-591.94389078815,-525.816270554827,-459.525988600888,-596.174783249942,-550.643933525826,-516.655635643979,-589.763505773979,-576.007734020356,-487.514115650678,-533.704258576046,-623.668110146044,-588.372158407309,-607.452314391332,-610.845188472058,-530.5834675869,-568.953135242534,-643.665927558057,-591.977471176334,-528.964982877259,-637.702985739973
-472.270472576096,-486.641447267701,-365.598143784525,-473.916262664302,-583.521156664121,-251.271144703667,-437.795847026121,-320.009067333709,-419.936047404171,-479.011428696025,-561.71514169615,-255.294283239728,-434.741459289073,-523.091833561726,-440.792533778962,-513.131047725452,-300.556864112062,-447.59362699194,-450.234943099365,-450.581948454477,-542.809036305261,-416.272389417715,-524.400704122028,-576.877148042469,-481.606571865962,-721.065123398276,-309.484027593779,-381.913587413368,-785.686544987116,-250.301706339311,-464.113208595177,-707.551898493543,-470.110365407556,-118.69088356128,-97.2926738024527,-330.062832959635,-392.181900776776,-213.772592235743,87.2933884172201,-37.0109937736899,-274.462395978329,-190.998087270141,179.887341432532,-295.049126010992,-516.91975735938,-609.009869635766,-481.797377456215,-647.027986621344,-587.948295463103,-535.098614618454,-630.952633300589,-605.972996919047,-513.091370089351,-549.000853577985,-644.321592351671,-612.226803941192,-615.456827516356,-629.150712827784,-538.154737528359,-567.82381260102,-653.843917476368,-610.503039411991,-516.525641267746,-647.47342723594
-423.118223754411,-428.339984704882,-307.312664513012,-416.180227496293,-523.159809728702,-196.624482934712,-369.023001803456,-243.274308469199,-372.557795330771,-415.458279796769,-509.205941824275,-212.495611554938,-375.841666709152,-467.769369327199,-386.314241738994,-465.175760966814,-250.023317561975,-381.134147867387,-402.586137613515,-361.362544236984,-510.982509761019,-343.074506669587,-421.594431659939,-504.031446834701,-368.266727151882,-608.431754297818,-289.047528524865,-269.769058933472,-702.245139064819,-177.872345430091,-335.126230914989,-549.86825310007,-419.057509022064,-139.914880954498,-27.3866449458185,-156.208071703161,-231.278266856659,34.3405555710869,71.4741127569328,97.6699945399188,-47.9034269790292,10.5963757614544,390.416203996375,-40.0197002094979,-352.703271015411,-615.877641324134,-461.249740992274,-631.353163641834,-565.696137931919,-504.976859939788,-599.471530634238,-568.039231455844,-477.774676641394,-500.477500000975,-604.019348381096,-572.552268455096,-577.358189193579,-583.152611690102,-501.163683497775,-521.70559595922,-606.607012931843,-563.539032726501,-464.649206545986,-593.959837086909
-359.408147738773,-349.534109117337,-243.300649224273,-341.250500017698,-429.70275125914,-135.849305150416,-282.084172204969,-141.051711792907,-312.789433517647,-331.723852177208,-422.632827165817,-162.905283285586,-296.337237170206,-376.948425212572,-300.166275202172,-365.789677486155,-175.217856702245,-239.990205490739,-311.730152716995,-231.165591483328,-397.840259640593,-211.531503726725,-282.698414960228,-392.137913129453,-216.142962339898,-460.345616323003,-228.27215859003,-161.723631539981,-529.119038235347,-96.0289092259943,-210.301905401483,-247.205379203355,-252.506305758388,-137.192430025094,37.584381015176,66.2714722726518,18.3257832367574,326.634941865803,72.4278098728805,239.040616064479,230.047792099628,270.366466589947,604.328400398573,243.032562853176,-188.886048201953,-546.875793387183,-409.598129924252,-556.75004903819,-490.521399533742,-437.37350633236,-508.842682542493,-481.228261711233,-400.172970523928,-412.183195644182,-515.717668654717,-480.532038290388,-502.223705305598,-493.891579507793,-429.569516218728,-447.336967162336,-512.117260197928,-468.244616262221,-396.37454100089,-499.170056923281
-292.052280565417,-262.91730573367,-185.684708161406,-257.733303265021,-319.353419994917,-83.3915715138667,-187.069774969548,-20.3974001443452,-247.131283233699,-240.902268270736,-309.744986799391,-117.843370782707,-211.664851691892,-260.279830332123,-223.996482861097,-237.106652091466,-126.484142269749,-79.5698349874985,-146.343909364606,-143.275216693707,-187.253893830708,-147.942782476129,-142.615238679936,-183.772159279681,-97.289058832291,-282.207975953224,-214.008855267953,-64.6651786614586,-276.058391344784,-66.3347621747439,-45.8691731018103,132.112022951973,86.9285328335747,-147.316661886841,120.382328273443,311.45812000886,360.701226619512,599.019780983173,106.201862780677,410.924600167748,540.040149902317,590.991391500047,862.351243338063,576.388567424961,-26.3513665296902,-432.475198701369,-329.222678067024,-444.729084029684,-375.38138408407,-329.814486808417,-387.082174101183,-364.489333661856,-301.894037287675,-301.812944193424,-395.658178253159,-355.109851313016,-400.110846217931,-380.016302807084,-344.897621259597,-356.744454701498,-396.1011449532,-347.028129644248,-319.752750886779,-384.21348124339
-230.210603711134,-173.061331844376,-143.423676330414,-171.340539118615,-207.738980277773,-44.9207881254241,-95.4032867601303,108.385139574293,-193.363390604644,-151.25699881932,-190.128610927951,-91.063931760549,-138.230255005371,-143.732202065968,-187.301692564718,-135.48027666101,-116.997738748331,11.581489050551,38.8450194661593,-127.465149128677,10.7230972326036,-184.548318029996,-42.5777531590041,72.5753517512756,-43.4807755555007,-99.0854630422551,-292.375037597914,14.5001852799549,14.8143577336663,-133.188155475488,138.634763347692,506.818985656267,536.341419689282,-204.574450184316,178.138000403269,517.874258784504,757.05256859606,828.556346839497,131.432210255599,547.043277471523,847.645436686008,953.859196807669,1107.0442394134,973.989753680484,246.701461463864,-303.400226132251,-207.817703733034,-311.074746074369,-238.316122184798,-187.672885611292,-262.863452525239,-231.394722191715,-202.364138351258,-184.822407694678,-262.755699460433,-217.024070458023,-293.550945382888,-251.746392414675,-265.907656701213,-264.416530663901,-279.063400606153,-215.528468051993,-241.847262963539,-266.693657266337
-162.1575868975,-76.0778419897105,-97.0733879640881,-79.1101045623876,-92.4730525538112,-10.7817122230816,-10.3674582102151,227.682730286063,-151.134192248035,-64.4607465194204,-74.5930604214825,-74.3854900973476,-80.0362506709156,-46.8161485813333,-176.511688220583,-93.660715765745,-118.437608746851,14.62696101503,134.183315921329,-140.14150181168,81.3990147879337,-250.684265791435,-10.644714727321,238.165178797063,-49.26899306829,25.7676715477067,-426.345538853759,23.8218043746974,243.301677767142,-290.753292948158,196.978720310539,780.119361461692,885.511014243484,-303.40042653418,95.1356256646916,619.275328061047,1097.15586214155,967.531199173849,87.8834551330474,551.550793705993,1096.4582601355,1243.18876392567,1231.20841251845,1322.74426253457,638.319437878041,-158.910537979596,-40.3873625078675,-151.256442461362,-81.9083942385657,-22.1565009272923,-135.307555249411,-77.1891310683138,-93.8428337733232,-56.1434819797769,-113.735604264207,-66.4843076191992,-183.743403480892,-105.508095567418,-176.460270580453,-161.760319715658,-147.975449932052,-71.293026654089,-153.370906503737,-142.534620804119
-69.583766960951,31.3952485813155,-17.7437386332082,24.1817604504307,32.5323548463216,37.266706963713,73.810503926458,328.173364524734,-97.522083268757,20.9269005592779,34.8630610560531,-37.9579595684161,-23.8734667510122,33.0805553064309,-156.950318492086,-81.6064088442839,-104.734262620349,-5.98159670063869,125.189421701448,-136.66130268538,58.4801263980511,-288.449871715079,-23.9056905003852,274.078295363215,-103.540513724207,77.041126506102,-565.083374705032,-69.8689856245515,356.430505590878,-500.967019639043,35.3844468980436,892.497096725642,966.986607789221,-434.899846036332,-195.505055523235,580.227632969251,1238.95982470572,945.288260530214,-71.6155595368978,402.325367160513,1214.66110600136,1312.14781393908,1190.34440122045,1443.25424181695,925.218395214168,-1.70772868865419,138.374759904841,27.3478120432601,92.6778389135858,154.096865871207,11.5648427689101,103.724960356311,41.2612419514034,96.5461649648844,58.2563780911808,105.271996409661,-50.8513378540985,58.3240746641709,-53.8012811952822,-28.6512241255683,7.04547373296827,87.5844098185011,-34.2273997112325,0.142770054738602
30.5488784602164,134.550211034685,73.4599646528939,122.594472485231,145.805499297106,94.7724259943184,149.963437898016,411.508983701136,-34.0128120762634,93.871908924497,122.923357933677,19.3836233546251,33.4507975902448,98.1912742224569,-120.273481636686,-55.9582872502122,-84.9997124879702,2.69879664786245,104.208637267352,-118.635098346249,54.0744316078163,-303.836803696783,-25.0106742642976,283.5236138427,-185.931361131004,134.140111810095,-693.14751272629,-196.789956154149,416.049504742057,-712.899438131036,-185.771531341872,828.090455045575,779.891002553562,-612.17701532756,-548.283564369072,375.964859625958,1050.00720545686,718.700057664576,-331.16954164276,182.011427089213,1090.02006523397,1078.273721013,1003.30652639058,1257.09505727364,889.113667357897,125.325492587,268.471228438612,176.609572888799,243.768032853218,307.944449521515,155.925683724762,273.646320002158,172.72631943834,244.688577124333,217.850899302697,278.183351250493,86.3558249952884,211.144422901061,75.2994920988465,111.475836445138,152.553348328063,234.084768306921,100.337116513739,138.597347981812
101.513122267138,207.896656023638,132.977678524956,190.621196962988,218.751346752649,137.163136678743,199.954820279912,470.615690216415,16.6356637992659,139.782557190442,172.902185799135,66.8020139105126,76.10586784881,138.012165986198,-80.1801648745963,-9.34204455134298,-71.2371318628688,35.2610503017595,134.261037124395,-95.2948491433047,103.971214367882,-291.558943652993,12.2233084726043,340.111038833679,-244.40981592148,245.761214488141,-771.576636755765,-267.155103297308,464.122539041432,-858.750212491724,-261.427382212257,550.842647391383,396.033084713707,-814.964336493507,-728.27111159308,-18.6023589351817,463.807227680322,258.976308904756,-602.978202387283,-32.3714328770924,614.346998219357,501.527870808454,682.609685712387,809.354243207082,570.637221879558,181.196561281473,317.008065488089,249.61166482302,318.270858548999,398.551085999931,246.406023013707,374.408406890548,246.765140562881,334.209888576786,313.926706708716,406.12651773786,176.824464460108,315.122296855947,160.133750952246,208.298196722464,248.868531963245,329.45506549458,203.876549150573,230.944898671618
127.102330878599,233.331320971989,150.407023331839,212.829804400812,241.858260154483,143.652624742542,208.062495254295,479.390150412598,39.9605592779929,151.974956204636,180.848780274123,82.9346343683307,87.9188819884784,141.351916566702,-48.0118456277753,32.1613989498553,-52.6436202498185,58.9872968884309,173.813624279951,-56.0365058396184,150.764152698911,-216.010979710581,65.8216225045806,378.006386247552,-214.805614902642,324.027388940112,-714.443554110768,-270.191145618136,399.408370767739,-856.318643097731,-272.651069256277,51.9987009794953,-168.158271264846,-961.445783229091,-715.800399345125,-527.08272476729,-403.546685264227,-461.877123593986,-815.772956352381,-266.823062531203,-131.809185860798,-395.767018533637,254.390372474836,181.924898007036,165.359997815642,169.586619287307,296.626850771316,244.354148265976,310.628008218223,412.190339019408,255.99916022534,387.737482042266,246.088665704046,333.882321434241,329.670166038878,451.396353384476,185.089336637368,350.995868459135,167.176959516113,229.20867616565,284.248496120888,356.287461400392,234.174157440139,260.432018023312
122.743486919292,222.378863363103,145.673624056253,199.913914718855,231.235181874745,122.254675564488,185.112310001012,444.574242171079,39.6335445562663,141.999918470072,165.131242565417,75.1557430411046,79.023800875626,125.323422028972,-23.2188066938776,53.7136980907648,-16.5589617364183,65.091220075461,174.096715638967,2.70466406251786,160.135378473165,-94.0172067114881,121.83753102558,331.803577779659,-86.6465891493941,299.62452022088,-507.543174711597,-197.442818125621,170.062094143146,-687.278726972867,-377.926685060015,-485.954086300295,-872.467310515288,-989.150896326228,-673.365965402291,-891.827915942613,-1185.05576610487,-1336.7985369578,-967.840152638685,-533.310986288489,-781.829539053641,-1326.67642897031,-138.13511121517,-449.366824321022,-185.186372193538,135.51028902687,254.064739146681,203.511281845337,267.114182853089,380.133735124674,212.615400978552,351.898021536236,198.260186186298,260.244473778822,295.364984617875,427.92879843711,108.456409432136,337.583588690449,95.9772340307463,166.377582848334,276.014469020828,340.585059328608,180.888785688491,255.401598337246
138.842140783848,235.657280380841,164.16381207132,212.254188449416,245.462811009464,133.556474331212,199.288235722712,448.336545310147,60.1287680255671,162.167333785633,182.365727155168,84.9827028707573,103.744872075302,151.845128538667,25.0064080162165,99.2391566613585,54.8279196765084,107.564279910959,200.270214342156,83.5884853583976,204.603107816302,16.0678127635886,220.923569605106,312.93060194196,88.3490906228303,303.598295544882,-270.842096601166,9.77669578785321,11.5561916038358,-450.069078609778,-433.931419663543,-724.482082437061,-1472.86907073054,-911.135511121734,-660.499517395935,-853.007018541571,-1459.66151206112,-1997.22456561665,-1052.64724084436,-713.161048968456,-941.657750787577,-1762.18489908384,-285.369222732726,-778.162042032002,-395.410055312195,141.339133005449,251.21093661427,197.225595539423,259.133356558246,373.742358683186,196.107696277138,343.455966637758,175.511057584541,197.543482051577,285.518483693797,417.378778231182,18.4210461614546,342.535011276854,23.0960780714201,71.0153093331111,276.982985888614,355.084589342208,102.903341240326,280.2225030554
194.88969588928,301.614876794018,221.733143733584,280.124437439623,314.584124882601,205.991746805278,287.891853853912,529.530128503967,126.958593487488,237.146392155688,256.123564257675,133.517371597118,183.576331835856,241.852196795753,109.055699102979,196.778425539538,156.863986702025,224.065192336612,325.667005236723,188.500414717289,349.754066814741,92.0562683038725,390.319841466717,464.190891464891,264.001555064905,494.52368987849,-110.514684566089,344.446936777146,196.07577313098,-236.242028806772,-196.607319647294,-502.424838508969,-1644.44260170543,-766.127159805573,-585.480592848827,-432.772724435466,-1135.63454714769,-2036.95480896059,-1017.49572880877,-694.103035766719,-598.54015978222,-1422.63166978898,-165.781021344151,-626.701843112522,-395.922500790618,194.814494001836,290.937322209707,245.703203657068,301.93837359513,414.034660540589,245.867870192897,386.406485558589,222.450328832772,217.448785889494,329.08111903942,457.443369209356,12.5259383003909,389.867377576641,34.2109797641258,22.3553876231038,307.210893638764,418.703987942968,68.3912557295089,343.149474676986
235.944297885055,352.694738270455,261.759767408005,335.559700319656,376.923734523873,263.613675501008,375.705434011179,593.872333916351,184.937986520547,305.106622945006,329.221420471949,179.535033840416,257.515397610566,325.064844834384,186.024170591742,295.752171073027,237.776954702212,355.72976802005,484.488018200843,306.075434399676,532.015417626543,176.65848960758,586.157249281228,710.624457818392,459.784941246475,800.723075734388,56.9434631138647,690.365627391648,602.795425338652,17.2116889572185,266.412111143389,-52.0898441862023,-1335.37394516114,-528.877249086188,-356.243687412043,69.5067452323168,-554.187661908253,-1454.07722960254,-816.875226256152,-510.082530436039,-135.470344565924,-614.241757371967,-4.36721016152817,-191.877655651882,-208.928431091016,236.66676596151,300.788018707282,287.729430806391,325.726166769841,424.269459334893,300.740978725259,403.188097145184,282.10959044081,274.873197870468,352.264806934305,467.907989289767,86.8247906312917,404.653673005272,104.750301237546,35.3659521960477,312.315010554801,441.296717742751,71.8884199609842,365.497936523501
216.474257974484,320.012449066441,232.880273184082,310.92965643264,367.970702735686,231.580068236222,378.858474154487,542.753777893861,184.896310180616,307.71612264988,347.704039690938,183.855185272038,273.97019314728,340.630642366179,227.691728476198,355.980001666018,261.83217155362,429.994077298135,567.35698352257,427.448574501235,645.657469851091,331.482954551816,747.025488113524,845.260048359916,712.30629426402,1005.4771572138,389.422967991647,921.829204692283,836.382236742771,407.409981667774,643.523225394546,225.494004614996,-805.043839209901,-140.679230921606,2.70797894039426,357.708138393736,-113.069578680343,-713.794321939786,-473.908364608139,-281.040158872101,99.8367765823415,80.1147460651422,10.2288414913592,96.191945612621,6.37736955149671,227.593961956048,231.535143484207,271.533485571781,274.141883538912,337.703377081158,292.651970226771,323.136853578882,276.141263997929,272.618989210598,290.879315574237,370.793781568191,156.138081468678,327.52790284116,153.000466660274,68.3030054466341,256.4029344358,353.158547455882,80.9405219898051,302.339239669936
138.50916064157,207.372290564789,140.64747861091,209.483229912683,282.026388045516,122.527629231952,295.248395428417,386.138498571211,136.145324881453,245.49299851713,297.120864204413,144.824461803884,232.021191344423,286.468082369769,234.267388131496,370.663806185411,237.55961585809,428.842629242284,544.910902443618,520.042371086161,644.07926158934,521.060844566025,815.101728347509,775.787651489796,955.981246226752,982.841920495532,810.096552409775,979.45572019816,718.68838778791,829.154410803596,757.334791321561,185.555206067879,-308.396041947327,313.689546777879,350.981173650767,365.682942255185,129.459207323484,-230.829267721067,-98.9334237639059,-101.491748115238,112.755490177332,383.926797886282,-82.8965101067371,20.2539156279689,79.7640118029016,165.665715662049,90.9252740501384,191.258929778976,144.625383861009,157.488318489688,210.849725178369,148.132337020963,190.425155951995,173.684562045145,148.750863345103,163.764663303246,155.761949006337,169.795369528113,134.860247997447,68.7746243716907,151.715969578283,176.474402313383,72.1144340059894,178.267988582523
33.7531295362582,79.4734544416849,32.6315954299073,86.9022319463755,159.33074761394,8.62329622467966,185.916902528311,219.788095442445,66.1168957652988,150.388963809892,192.716843392635,83.4142427294256,154.160983162843,192.853659461059,200.734034968265,331.531687768304,197.227131136172,374.004445257134,461.023509989689,533.053184346895,554.247344934486,621.118078468031,763.739594818102,598.88945036744,1068.69826845347,803.217055269771,1038.6448940417,931.305168529647,459.263127471699,1065.155858038,735.185556597825,81.6912459393864,108.642691329121,608.919878323926,598.47056808368,278.664389685295,366.816055758958,74.8743245328346,199.745689653824,36.6592476206176,134.639617749814,509.273713884556,-131.792717475322,-155.808980332098,35.4404672574254,68.2542511170122,-77.537725156771,70.4354876376088,-25.5387261601329,-70.0644574921392,90.638842592136,-77.3871864348052,73.4383752181257,28.85179379636,-41.1862330674809,-115.590058198963,86.1846380484643,-24.6720591152144,64.7615136734534,13.0639359808454,20.1547832941615,-26.651278413782,28.3507499262167,32.7419581395894
-42.8634671992838,9.5606753220063,-34.0310983412256,9.92515476053406,62.7139174234375,-46.7465683820566,116.61190318788,132.35359672091,0.893012267025513,64.2229694365303,85.156019204943,28.9342415189469,76.6379999608747,105.379371384168,135.569046097248,262.785690329391,175.674169777916,307.510505900541,380.339496040774,468.75313617261,454.008328353194,579.212920728625,653.543656573927,471.643344146924,1027.21794930088,658.104654576727,954.290071489482,923.276282267041,353.192535546321,1063.31515325661,784.461484356629,208.178369219162,470.09623585648,617.204472392281,773.885267501334,313.065870208921,645.822277487278,465.14256970767,398.234269220067,200.767180186624,273.250406438737,697.075088844337,-74.0917100626774,-85.0930529190774,54.6917638054793,-22.9198488826014,-213.349229147901,-39.456874621803,-167.682732593615,-279.331505897418,-8.0660299426025,-288.940219284239,-9.1028432308746,-77.9057308590488,-222.038837381438,-400.799911404795,-2.230177823188,-198.008995916647,-5.13178974528922,-64.8902841064067,-102.800651987561,-197.499110061011,-33.7046981531053,-92.0580150529037
-85.9277676140419,-19.4291051069957,-68.058347995573,-31.4937961358906,-3.90865589410638,-70.8975959623611,71.3757976233148,93.5569227511706,-64.4016805044158,-12.078786395149,-5.88001466027942,-30.5641631330633,2.83545777906271,26.2588645774249,50.9948643223419,182.338344589781,150.998855965648,229.194074702314,294.939384212354,357.878756133133,365.600337356451,448.434973884626,536.901903532334,413.150124165908,882.570258503208,616.690277749742,695.074451409061,945.689875042863,415.931903167338,934.908411934512,858.736935598986,470.762313371525,663.051062806841,404.1248545067,854.099106582282,421.046200995287,754.182005857813,808.670015763716,494.522090226107,346.516985260059,367.52967494297,791.724173738223,-9.19277316556532,124.202294224623,160.270081941778,-98.0360898609579,-309.570268924515,-120.862634995782,-264.688521869993,-443.078391865072,-73.3393356519698,-449.906259711541,-60.008420177871,-135.969634127256,-354.345404097957,-627.229391969713,-81.9604459406076,-328.606746067815,-59.3128097360812,-134.505911987116,-201.028491980756,-323.719181986845,-94.5080572102483,-186.906364218646
-130.024612131793,-68.1139014482836,-111.932203808948,-84.8484175126973,-72.2883096897362,-119.373071769606,3.95357416064056,30.5383895477518,-136.841081656869,-92.1666159413393,-88.4849664158839,-110.196288027123,-75.0548812988672,-61.2064823325611,-34.8481991799853,82.3105430744489,82.2709160096724,114.978129074454,158.012060441174,222.258599212323,249.41858836636,301.904964956464,393.621788536017,332.245324205604,684.114135128125,556.007728317316,449.04557620801,851.040474453943,447.887794835085,799.272297015327,765.63317463576,576.444168700702,604.626204149518,152.258449652159,781.390636281569,407.52077474063,560.075873648801,785.816272609436,495.21255323886,364.133245279633,259.994210755644,585.215761544979,-27.7980308201081,181.408169085517,183.067345503869,-168.858282085194,-386.142124483909,-185.875178967408,-339.00149565977,-553.399242185166,-125.87190728857,-535.475380909151,-113.177295751512,-179.507942671922,-420.139198281272,-730.78500914448,-144.169581201971,-407.531351827809,-106.429322159854,-182.930551395857,-265.978814931606,-399.09916165551,-142.449334308307,-254.639813289896
-138.11774909965,-91.3485273264416,-127.097092510935,-104.954563268344,-91.0203583921063,-145.343037493953,-32.3285767019202,-3.24283567006615,-159.161880210228,-120.98225776851,-110.676320270666,-145.591092518486,-102.313405658616,-97.3580854352528,-73.7671080121807,20.9720542945317,16.0574009447037,21.1462380223543,42.2947216347311,113.800531860568,144.733131344444,194.466088997908,250.358529936628,244.355513883231,508.721359853725,421.996048193613,317.489401914811,661.407518385945,402.692417244567,740.631521365125,558.507559548643,533.293757837433,494.06628169135,56.7915980300834,660.68958524622,308.869811260512,264.020370314357,508.15459031739,484.693693783265,307.241267112157,86.5414998729676,305.074169815465,-35.2621539631133,156.316924318111,112.715464101773,-177.274485138257,-384.687345107308,-182.58283348782,-333.265349368085,-545.675875200267,-120.026103462687,-478.191429031435,-118.224205960093,-167.348701035824,-367.989764415516,-633.968774032865,-134.350110977551,-366.608161027003,-99.4290857735047,-156.539683210739,-237.702043600747,-357.338509729975,-128.106771849336,-237.964969146633
-58.3179897555847,-11.4397566694206,-57.5254983295839,-29.3535131637219,0.0194517881216605,-83.6808012764334,32.7382629153495,76.8278216463317,-90.4345834455181,-49.5316352207473,-28.2058181962087,-86.648832448068,-37.9257842949352,-24.3701152305057,-46.3891687256652,67.4231463325461,13.0490629259183,15.3085914679099,54.8709246270641,71.0086961677729,125.086425233377,138.673264448265,173.729151291931,239.487633699244,408.728279634497,316.516274873824,300.056207045079,533.286991223896,402.000006257405,769.016505554995,452.842734479171,550.888410044624,558.792038541566,175.064397186637,634.413237346955,306.549770003971,158.633729750716,376.096435972087,546.820523175767,317.620882036752,76.0736878020169,311.699009969407,84.5223918502296,276.674784086419,134.696719538369,-59.8855634996252,-244.406414255472,-54.7955901746193,-184.743702178295,-379.123245245841,-6.61931275861901,-261.773899814675,-18.3592225895928,-44.6042139968232,-181.019006499964,-352.364950161748,-19.31266218061,-174.662824247237,-1.05735920433647,-26.7893441330469,-86.4622497998915,-174.032725314443,-21.3782155101303,-99.2409501839528
50.4611833420414,116.311386262437,45.1567851412893,83.9634771022206,130.259144839432,11.8679620606395,141.618131356346,205.529574394105,0.403756713079039,57.7179630715343,89.087378753089,-1.56199602893649,51.875935317242,88.5306014276463,-3.48498269046257,160.681009945981,33.1101828954475,45.353410973586,127.772923703609,54.3110148364642,139.455482027818,107.547830905483,134.564257700937,273.590348634477,336.37341634277,262.979075996449,337.788687064194,459.262868015486,428.94793590638,799.998991194121,440.011113311724,595.410654134071,686.551193645943,386.550555361613,645.153924912413,372.879820633582,251.162351980748,433.985555134236,640.450096372971,381.665566712953,184.751460508828,519.718898580936,231.286330010901,469.595968310346,261.745497338506,117.246002026718,-40.1058700372244,124.060273900325,22.380448632623,-144.809219100994,147.184578444681,-7.81162131283488,121.625257538816,125.867177389096,41.453535507057,-47.4290972903488,127.335930308017,55.6951263247875,124.031561347357,126.91250557525,95.643389605435,39.2662835102166,111.230364121149,75.6075036845069
77.7993156988814,158.928413607747,77.2443364432446,118.613090918275,167.477186883021,33.8567035039092,172.396870871444,239.305164980127,13.6810192154924,87.7154402905273,125.207470898424,11.2468805488127,67.6740844143958,116.491228794786,-8.51588362943988,177.228800012288,3.49484022324273,13.0247856011773,105.216511887519,2.17697525158635,79.5066407567058,74.8462169139316,45.4494650057505,208.805572325944,221.351093319697,148.185772136622,363.764283134015,306.620516424051,324.117880757722,730.511118021781,339.180709966291,450.691086933284,593.77818165684,519.0926757807,548.77320470715,323.852189717115,280.881927700876,351.834735856244,639.766014746316,363.042864278897,176.35633686812,526.618582665544,203.568791650045,474.92356011079,257.081460002351,200.606636201815,72.8367911299724,201.001100609733,126.665614998768,3.92433946591465,211.70251157663,124.223175365167,176.767125855529,208.849832882554,157.022994291803,108.863840488099,189.814045678399,164.031165290064,169.270118468587,189.227938558216,175.202072288,135.809570866815,164.659959586345,151.539342696645
9.42302487384538,87.5408429562518,21.3949443888423,52.6185994886804,87.201359701495,-31.4552464545573,98.1259403152073,150.041696544272,-54.3426006055738,17.8924277387218,55.2120470622822,-49.7126511773549,-0.558418219942893,38.995668817687,-65.2874895291528,102.102493768691,-70.1718298041273,-80.0829679577171,-21.7714220180904,-89.1475948301828,-45.5959734288442,28.9760340484908,-98.0770066304949,32.6860079685839,62.3946276166469,-60.1361938892499,309.655660838424,65.7838762005455,63.4077683042295,513.12309034523,124.469456439427,105.660751413451,257.74292548215,474.964354226298,340.930526654212,115.215783604464,112.823018976353,16.2625278583502,479.071336321699,214.566344362789,-20.2008283110073,226.104949454213,-21.0833824567737,250.119721698104,1.18805078249518,125.428551417458,32.405221873986,126.680279865702,78.9215955566841,6.81566260943902,148.590158077382,93.490777066429,111.780173240252,159.941507171624,119.538730785832,90.300057934001,138.104000952147,114.439971133081,112.547325593535,137.514356523012,121.705060957618,85.8580177260143,115.657023023434,96.895693984601
-61.2572739168078,3.2058155008687,-39.6177071900552,-21.878961505159,-7.81291821431549,-92.9059563338274,9.74260586041498,45.4741450570492,-114.224775772046,-63.0564764881918,-35.666103328858,-100.943486508484,-71.4208893857548,-46.3932819750622,-112.263502147313,30.5387790092926,-120.672363613612,-151.858222693073,-127.989047104338,-170.42403203617,-138.158368466221,-26.0881231254553,-223.269216161281,-129.507487505175,-97.5060364332907,-255.593139457547,157.145676281681,-168.311001384652,-212.361234333037,188.517951649574,-82.8104810295947,-251.39551392942,-74.9752940577403,298.838898862566,116.418268621392,-131.401637201071,-106.315920800391,-293.484064526438,227.935587461868,35.0558910053473,-270.276245467716,-97.1436116250652,-286.569242750924,-10.233111673268,-352.331281214977,-10.8497853758173,-75.3933937054212,9.01951790761917,-21.1128515712379,-55.914389161459,51.1338337041587,2.19768853128225,17.1583774692558,73.2122009074846,22.2667351141083,12.9891552589822,55.9108654990838,18.7475422756908,40.0336489346908,59.0979869958214,31.5088887663874,-8.62405635761707,45.7908188193869,10.8979228314547
-88.8410011507287,-38.336318758343,-59.6741456609512,-55.0925441465255,-57.029768831054,-106.091196571362,-34.8808400328104,-15.2945748470057,-125.860411052663,-99.3315851385459,-90.0627162236953,-108.592186907822,-101.55394695965,-86.2737207157568,-120.196145499392,5.15018092138663,-132.356594057129,-183.232497183601,-171.995937232646,-222.076491873329,-189.393108837507,-84.5301626916855,-313.313188130298,-228.040257725907,-244.011156268415,-395.907875917432,-16.8465026702096,-401.045961009024,-432.742312973684,-154.438798133814,-267.848244887789,-543.722174117693,-286.936027469313,111.145445979283,-107.469972857473,-343.418225011553,-270.439948426882,-404.797721715013,-14.2422435727852,-107.521002056739,-496.112818604568,-288.734806447733,-514.3087285407,-209.869318402558,-670.153932905312,-98.2843730061543,-163.687901020737,-58.1157094144811,-90.8799008851064,-105.17912394999,-5.88020364635539,-63.7158833629678,-36.6034296606732,20.5651309175459,-42.4637334779448,-39.8548023082627,6.27297510060357,-40.193869189084,4.78085768203358,11.4927708245591,-24.1395340716573,-70.5886783352563,8.4979386192954,-39.2355666919546
-132.883605743304,-93.4452636678436,-85.8947975789308,-102.370674362067,-112.879328807081,-127.824100413116,-80.513024870668,-89.4267128274212,-146.983723390904,-137.331296411622,-144.237941888631,-125.942081211571,-134.893417166436,-132.369405243788,-135.565440991403,-28.8065216958433,-161.309561525116,-232.453419937596,-233.136969892507,-280.090486992612,-277.648146519162,-153.123557164432,-420.480708503394,-334.868280662024,-395.415693754154,-553.764481876177,-138.205303758639,-705.195253921881,-633.898864911454,-459.009577695602,-521.377121156004,-791.096077559716,-456.162176104066,-44.9651651936527,-376.44309555371,-553.110902838845,-437.303175827064,-467.529865743037,-237.466402298984,-294.545759911085,-711.851114234701,-466.452332551869,-757.104191381026,-407.016585574847,-947.402689481305,-135.562088089654,-234.50606872682,-97.8060521472169,-148.592310249028,-157.229232836626,-52.2969491163071,-125.63044611807,-85.8887386405028,-34.5934564371926,-90.9319117417778,-98.3197478032227,-45.3418643427434,-99.8749348189199,-41.6164618923045,-43.8164491343576,-81.2300938619174,-132.638453750529,-40.8726757987851,-101.067826865226
-200.474498565157,-168.000505749795,-129.176724234811,-167.9497943226,-187.595899033365,-167.346699836884,-137.908858480072,-180.654769047626,-190.103495624739,-192.211394583786,-203.801340476974,-162.428776441552,-180.347671973555,-193.782493202166,-169.159801363423,-79.5065765358656,-214.680595819764,-299.419510000707,-324.106596683288,-346.48204638038,-393.459710745395,-221.684328064192,-533.254700908783,-455.502862870926,-531.103388238694,-727.234884043874,-218.532093900639,-1005.3751462936,-795.268591685046,-697.240825272623,-827.044224905268,-913.087255448423,-541.806803739218,-193.362133458861,-669.339340181451,-768.107506183464,-566.77991862904,-536.808388402242,-451.404191223571,-606.421950292844,-842.928548770579,-619.893432895457,-995.155825288711,-558.752825795205,-1096.55589193061,-134.275409490726,-272.8978879923,-124.518624720959,-188.582236676577,-205.029550304077,-94.0115165713485,-180.246601480278,-141.96081446791,-94.0435244337234,-136.78617319601,-164.045772384165,-105.154086013852,-171.277794667828,-106.693929576268,-109.219574329506,-147.245327971881,-205.155961352606,-112.959385973109,-183.507342975669
-221.786459833554,-192.529643887921,-138.466033830732,-184.244911680839,-219.990496222201,-168.671808575085,-155.36190878904,-217.880553763706,-199.866649728295,-215.854553243287,-224.51863976058,-171.469223426488,-193.650214613956,-214.164767239358,-181.136496383456,-95.7864520628364,-245.051726648233,-335.294259494556,-374.012428131728,-386.953050494447,-456.629063198117,-274.755923563986,-586.401180038128,-516.220329072311,-604.739788469678,-827.507500953126,-299.504602451727,-1141.00673849329,-887.152222508969,-853.635026314257,-1062.43080513477,-904.50404327341,-461.454711183192,-324.764902425423,-923.911448212957,-982.957340594058,-595.012716258771,-472.505102981968,-619.09129919957,-981.746016152232,-829.374939115458,-636.222799691227,-1138.74453908331,-568.676964404639,-1036.8925385635,-89.6627009832464,-242.605822956616,-111.860182404458,-174.641442170806,-199.011536761046,-93.3809896613785,-178.213729573299,-161.134769510186,-105.508902483106,-149.048067843905,-181.576488932805,-126.286111491536,-200.295034607679,-133.342047816244,-133.319802200199,-170.83390887386,-235.10046830418,-148.876645134328,-220.263647225339
-196.183202875895,-168.916092879088,-114.833939106093,-156.842553509886,-204.210703369748,-143.125549542913,-140.382411492087,-207.661737912419,-173.967067584412,-205.765770914359,-214.798462854506,-157.662486884801,-179.939611606941,-196.07104704769,-174.823362328152,-81.3789551941844,-248.246188163186,-347.919667108366,-372.169677680569,-406.274181775842,-464.264835369008,-323.604937529973,-587.811183835802,-517.173887683639,-630.776858963139,-846.405284481502,-405.798483508769,-1124.81103186912,-967.466002589122,-962.759325073874,-1178.96367369364,-946.549641097569,-379.2921316706,-420.017422939115,-1104.36513510281,-1205.66082677435,-685.506517092723,-334.552981581048,-716.072057816804,-1271.70948038258,-820.115150196856,-684.60561353763,-1198.38448062965,-521.951167664088,-886.342315178289,-61.1590919214491,-185.282778924492,-93.5598876238306,-147.843479987933,-162.958371956397,-86.6242829136321,-147.340545539122,-168.082736667484,-97.2317569199819,-146.264050542371,-161.352615932975,-126.665587310526,-192.315567009673,-130.201356411901,-128.728562920381,-162.040305335388,-221.406250174952,-141.325126796773,-206.56422954035
-175.775143472706,-151.767542892168,-96.9759637096077,-136.934914453462,-178.523911818952,-136.435408453762,-135.621190293769,-201.298713941521,-144.689678484942,-187.111548600305,-199.233907514586,-145.681190503914,-166.752588147033,-175.822084934385,-164.832826416948,-60.329047386438,-232.636753865433,-352.830506287868,-352.599390026995,-413.54625625442,-456.432865252126,-360.627221371229,-591.890668178796,-507.61306975191,-661.444052433284,-841.608754172182,-564.275985549829,-1116.99785044935,-1034.08826405642,-1094.70947409563,-1227.47995744295,-1051.20863670933,-465.668797803193,-508.196315000866,-1179.48907423035,-1327.67796365684,-941.71142850301,-341.137798920982,-756.246787320555,-1348.94736000381,-942.804154211715,-999.182111239621,-1208.11790349145,-560.561302885822,-725.041273931533,-102.439220877942,-156.658877438978,-118.81061260056,-153.234614054323,-144.944987349527,-127.024819114494,-138.886050133239,-211.560939390716,-126.705808736802,-161.267248472842,-150.143295212776,-151.224123979956,-188.171387383589,-143.120251144775,-135.651982424684,-164.416579201559,-206.058235354391,-131.862798476828,-189.247066585472
-168.976792823596,-151.044730611171,-89.2962902108328,-128.83819856732,-155.296665767847,-135.108951587452,-135.548690162439,-195.19773254614,-112.768254387558,-158.076075004454,-170.708813377463,-125.813731262759,-146.82799125192,-150.678135868775,-133.570932409465,-18.0874007457269,-176.917868277764,-322.955371347083,-315.110832959294,-388.603200663291,-426.356070695097,-351.22899363901,-599.581160917257,-487.167129434174,-691.256190924529,-811.070568022198,-763.630940545488,-1154.38331636703,-979.545314134958,-1238.60566603382,-1218.52212809191,-998.072527965322,-588.233493529811,-623.907136845376,-1131.50626261958,-1180.05908117998,-1104.44288456634,-435.876055391787,-754.675700672728,-1183.24217950826,-1024.82528307384,-1360.11063342642,-1091.28477447596,-634.514611559985,-429.309887993573,-176.33127643774,-144.562155663656,-167.981235249394,-162.457301984533,-136.306491576852,-187.434770277778,-142.015773667434,-263.778548405822,-175.689872965765,-178.682722991888,-148.450319897432,-184.99742643392,-185.259765879184,-165.463754086893,-149.104569503833,-176.535928717112,-200.53233413951,-136.024189583321,-181.006902454176
-153.429745519206,-143.192278856104,-70.597658258061,-113.955587593332,-131.929912153729,-101.598726639422,-110.932791269731,-169.579515739968,-71.2546313149857,-116.207127954557,-132.507320032307,-88.2010314424036,-109.146946131427,-110.891280401977,-72.6326934155521,51.3596078168114,-75.4400310368168,-244.187453800948,-244.653997218829,-317.385799633527,-338.5263429219,-283.152143072443,-548.858401241196,-419.447257358328,-633.80860606976,-687.477662612645,-860.049549412465,-1057.71315010899,-756.484036047038,-1205.1554673126,-1036.01884463406,-728.551886595523,-567.799339972268,-685.515906573811,-937.904868747226,-746.505286968004,-918.521354521757,-354.323839735585,-659.881135738134,-810.729691290071,-823.412648205984,-1300.2154619525,-769.006321311774,-573.898127257601,26.8728378215655,-215.782987175354,-118.324994961499,-190.521103330942,-148.768941645486,-114.680415960966,-209.857864213641,-134.764096663546,-269.310489232417,-197.084915392196,-173.321004455538,-133.990990257155,-189.901311077043,-166.049560770805,-162.542261377133,-146.973770506143,-176.385320059436,-190.984178670937,-135.47360063881,-163.945894838326
-125.577482608118,-119.298966102211,-35.9656009872449,-88.3204537174346,-110.393508345057,-42.3489554912125,-63.2380236481397,-138.51794125652,-31.607337858887,-73.5968738041563,-100.531863171726,-42.0911693131058,-62.7241707904084,-70.7495833331531,2.92999081183219,116.752871832031,43.5219962779348,-143.296704267013,-156.975889311561,-207.967052705064,-191.447645894673,-169.251680280222,-395.688905926007,-287.738978935891,-424.048362891757,-439.152846325305,-670.662488313162,-690.977136465356,-412.161627279569,-817.546886794586,-569.653074831677,-379.540984431123,-452.329322291718,-500.831564558541,-554.865968104417,-170.06963607724,-519.806300756061,-94.6562879881256,-381.723049315189,-289.023475783087,-395.885442166539,-797.470336338663,-316.537686187347,-341.945346508177,374.947883905687,-202.370676652525,-83.3667652432798,-172.222450486459,-129.070951742788,-84.7448717158491,-183.152742153167,-120.447012308652,-224.030855395496,-183.244790436486,-145.951922088595,-105.079261264011,-161.632927446041,-134.529347826342,-127.96980099038,-122.905874893323,-160.031275461001,-169.480648562935,-110.97177721092,-133.561821846735
-119.780338378205,-116.22218795079,-26.3044356369255,-81.9859318032252,-119.027315750859,-15.7095726206691,-46.5006075390528,-147.72309499993,-23.9625905006606,-62.9377646463424,-100.590582189783,-21.2441872794626,-43.0494577096048,-67.1247044115947,56.2033572585002,126.445581416012,133.694851371518,-79.585543778824,-115.657329704602,-103.717868623087,-69.561378455892,-42.1935819637505,-211.287311356567,-149.041718123847,-144.342688157177,-164.536441024061,-239.108396994485,-230.356666948883,-47.4073217334305,-245.248262151705,32.4869016336642,-32.8184835359326,-339.701286769235,-40.2899389032516,-72.2167473292004,348.766677473131,-184.408259751913,72.5495602509733,7.73968466600051,212.426771229291,-15.8516443210083,-312.703729607803,62.5422920412362,-92.6925665284319,339.32061923204,-183.947792361824,-90.077587187027,-162.208001105642,-143.539642321759,-89.5713291067934,-165.158767794505,-134.999759274095,-183.800091911914,-179.925803378605,-139.531458330282,-108.666196264922,-144.833306969589,-130.58598005487,-106.630984958352,-112.050574807611,-165.023210540389,-169.633795695454,-92.3102661350527,-131.961456881912
-179.314759428648,-193.444405932361,-91.5764743478916,-150.750786362317,-206.604134944604,-75.9565010900576,-121.629853996946,-243.04891212554,-83.4345003744637,-133.595449879827,-181.056843755683,-72.863809677461,-103.069809055747,-144.996697077433,35.985154213857,41.0812175341213,147.122518235146,-113.954296631845,-193.702142300627,-72.7756885016844,-89.2283459186221,39.5776109324142,-138.175598388952,-125.030537554494,29.7646282557836,-38.6561524933203,144.289467592446,11.1950173681061,162.401703336101,134.147153458133,406.528906687911,215.280471222803,-238.648840980066,401.733398146436,260.82454054652,599.735894741529,-7.31674092346994,26.0831045215709,263.2311656618,440.187816537306,143.235736439534,-140.867195067207,215.064196784881,32.7751171341196,-37.7514702279854,-221.503084795258,-190.995872010284,-223.568293588548,-233.583313342207,-184.322051482145,-224.492266960132,-234.094913430642,-211.178421328535,-245.544588297231,-215.713119792474,-207.415031782096,-198.292573854872,-211.579395192898,-155.872580219864,-173.94852072861,-250.048443484496,-254.452394324515,-142.575046858743,-213.966259248048
-280.587155153964,-327.837838822904,-202.723708352036,-281.527060518529,-349.230764126335,-192.474775093811,-254.902459127968,-392.621067654356,-192.396424299845,-269.141890578299,-330.690213960794,-180.830874430212,-229.284342765703,-282.499102214945,-49.0988274035298,-103.396740793453,84.2704413886878,-219.546424015868,-365.220189153146,-121.451570227579,-229.903819118341,45.0076731157777,-198.063029840847,-245.436631382418,41.7603997760699,-95.6464764096796,276.241460039265,1.42084116289821,113.69486984448,235.987444491096,418.375684213771,194.016754306238,-177.929992427798,549.206054506328,363.909277970589,496.590850139381,12.3694421014001,-103.557783561442,293.893972681765,353.359784178857,80.3647844063296,-149.355111548055,175.288305661025,68.2500514948705,-450.661553104762,-292.937701428278,-335.445613312634,-323.410386311172,-365.937173808165,-330.158743081778,-327.148052574119,-385.406582020408,-283.349308539456,-351.031566897763,-345.578687219055,-356.970753869303,-299.838431990219,-347.597743390354,-251.107671331696,-285.861798008181,-385.303952305078,-396.596567855922,-244.650311726517,-342.100334721935
-318.858438179428,-388.031111274508,-253.219892339958,-349.92098861267,-416.244092365174,-254.744538326532,-319.33207474465,-471.618652683925,-251.174583471253,-345.000842111517,-417.683099750731,-239.777569664584,-300.035846707497,-354.338895207031,-98.9253581667261,-184.667857596295,23.4916356949749,-266.197316211204,-471.658736824655,-155.446733274177,-304.169296656068,27.4812972413131,-234.983108467733,-346.183102909034,22.2059418364055,-144.453229826443,245.319285954937,15.3969507066596,-29.6433210460309,315.58844846712,375.185347472151,-72.2943794302019,-180.815705926287,490.956235084717,477.674299082244,224.334200051115,-102.358996022034,-176.332606949984,287.991936720899,241.709580491744,-112.814161726178,-149.963666195013,104.946539863274,122.585220398137,-606.255278838249,-294.854218730085,-371.222728204209,-336.023643889068,-406.117664380556,-374.234611455809,-341.179629431099,-435.860858571553,-282.387933231333,-369.010113189012,-382.419242348103,-397.168191347869,-325.486226285892,-390.632123804912,-274.043690742024,-317.776099903139,-425.251068113056,-440.558926276442,-276.589426403986,-377.027201452903
-238.634608350778,-303.304065339128,-196.390462539668,-277.004232669833,-329.740322643197,-208.461004547665,-257.235798689206,-406.106470713812,-194.891894936206,-278.912249480549,-343.579405977051,-191.086877698294,-236.491004143992,-278.774797571003,-52.5661166276483,-129.895307880949,28.2146370099163,-186.139418252429,-400.009151824322,-105.762588010169,-193.755616438057,46.6741663289332,-130.136828209887,-265.902392279862,97.7798155968906,-14.4213181393344,204.97237929389,249.552541340217,-17.9827752579555,536.110314093105,608.931088704323,-294.614097812729,-167.364892867222,443.02238720271,834.834552755695,98.1000637356289,-221.856449034953,-154.539986986551,418.767426013038,391.106878818236,-268.034787907464,-131.957569349307,145.833538159801,214.971968949618,-444.948664077822,-183.460172166375,-238.07745411828,-212.040578642411,-282.353360901371,-242.295037667635,-215.554770643925,-308.808481105953,-151.553695512492,-241.611956217281,-249.275742962819,-259.66262693275,-210.549825815464,-264.389758117816,-167.015664502326,-205.515255384181,-297.057110865584,-304.128985267837,-178.488224488662,-252.419618484533
-112.998253682864,-156.673513470646,-104.698985872419,-137.030099512397,-170.075426319507,-119.184502893864,-145.798045257083,-258.518959607224,-87.9128692487916,-143.125834421267,-176.077346331996,-107.045049893181,-113.138210898944,-126.616635274503,25.7110035117393,-10.9777194756171,65.3815131819995,-60.755085881958,-224.912062062739,-20.723450626793,4.90459926530273,68.1197629538799,52.7766065864076,-47.631542872048,248.629576756584,245.072487656969,145.348896559392,638.647069694148,199.699947905205,818.177225652789,1093.22260150772,-192.827512746681,-26.3365118153038,437.494273745888,1379.81767564374,297.82447853836,-137.573928311471,-23.2198819032302,668.166665843213,785.086900272841,-165.909684846466,-60.1547232158196,377.231850052687,338.222475396212,-136.554808120647,-29.8932537460834,-41.004326223498,-40.9110936285626,-86.0692251695713,-39.2706785870289,-48.7331650810257,-111.013083823468,19.9974051249111,-63.1574735118434,-48.3404513674344,-57.9176103742949,-45.3411522550162,-71.8447122168018,-19.4842191332067,-44.1570434807946,-104.273568237971,-95.8388759888578,-37.1476396803219,-63.355955679159
-11.3508296203932,-30.1563323432464,-34.3014254782025,-12.2449613844798,-27.1834770957874,-42.9269744290976,-44.3642414457343,-106.973021463404,-0.322587470550889,-19.9215636437378,-9.74598925698317,-54.2460828229467,-10.8134817134974,20.3558048545968,75.0385181373471,85.9408772833656,92.3225868989665,41.2413367281024,-66.2370611501049,43.3867438929371,169.272531466428,42.1157026211668,219.301553266476,188.681317031757,406.106929172359,510.475138926503,49.4349056523112,1031.18687041853,543.06292446977,1082.1378909207,1584.6087433594,320.72341628239,319.012823495968,457.785009857251,1858.51333447046,805.59950469535,314.39967546948,289.570818024794,963.278341551316,1226.35946312321,335.299713470995,266.11367648756,809.780698946048,600.405900999254,174.184759507876,112.043584221257,138.011768116549,110.701297024772,91.7162694950081,137.727850372862,83.3564260169429,58.6741960796689,152.368385626307,82.0300445483906,117.077670732237,110.585137749834,83.2570478229593,90.3345926159722,88.0685472405832,78.4666689643596,52.918977168845,78.4204138548962,71.1407028593549,100.139702292389
104.45596284993,106.159418891179,60.678080857694,125.13607027617,125.718980860842,57.4667030579795,88.4937633397374,51.1219097426348,105.181839167724,122.085864918732,169.002075557653,11.0780059531382,106.018532178042,184.92242766542,140.414869075639,179.106921908449,138.30451242283,163.793739327437,70.5321497676365,116.248581098585,313.368603602803,16.4289490663759,371.009369457992,412.04630757015,551.144413260244,735.1622178343,36.0210684064235,1302.56250374693,920.7676882494,1309.45833366617,1842.95394021601,1097.84925068954,928.556944570894,539.642137133056,2027.33146379084,1405.13114828045,1141.32196169558,873.875016808505,1241.58623637895,1540.42887918016,1154.70853347555,990.213397589449,1322.08419166391,1114.36584262511,543.423718629936,276.951828596713,336.8027046238,284.776340159778,278.962200773186,325.546149413597,227.18228361663,237.366632209189,286.311653441857,235.280980599554,284.16254046597,286.232015042954,221.04930495023,260.243054572736,207.5872392224,208.403490307635,210.131867249928,257.457513352469,188.81069175047,269.737798819879
274.207112067247,292.187227179708,219.375652859483,310.399669227617,328.761539091003,211.145412101142,276.688440063204,234.407793864139,268.965811813004,316.429291821219,384.770827233631,134.601698829356,275.53700959893,388.236062517704,266.5616774313,298.737491226604,228.151414716473,331.391555376302,214.160898536465,231.367930063138,468.567160918733,65.3970296348977,510.6673559248,608.687567668345,661.98557344891,879.524125296773,140.245799326252,1348.92525984712,1169.84852945239,1393.05050348367,1707.14173054919,1773.01618985084,1745.74697300824,595.804845471784,1835.55982618117,1724.44472454145,2095.7508339737,1670.77439381854,1403.62774932866,1623.6219762619,1986.87810304576,1942.099585491,1705.95519310571,1781.58348348767,1061.93231179045,483.534653528788,578.251887519898,505.861505688992,510.066539293576,564.343926928911,426.429961601557,468.360566488445,468.512322829984,450.797762033748,507.949316613011,512.621224351349,435.01213908109,481.58586289223,401.882941589979,413.553482455822,421.077248657232,490.974000589676,371.765721231175,483.712615613583
444.511393803449,480.069970232273,383.880687181506,490.001578869827,526.280406319324,360.446568634192,452.346468524833,407.124019072666,430.840552029521,498.05406411953,575.842170797253,264.47756603485,436.643399027901,563.081881270848,397.763492952327,395.363676497462,314.172369013113,465.36684048498,318.487120041919,339.531304935066,565.740843624817,163.295375906335,567.594562077498,697.851080448524,668.36228685863,854.71205539741,181.955268250948,1125.35923320662,1103.44335717384,1187.95923881998,1157.48761234898,1984.48190690832,2475.45572346473,459.181393979188,1403.4102280747,1531.87575284009,2733.7827571136,2411.6063635177,1363.10401905812,1464.54297962513,2472.06486912237,2734.86264112082,1842.29577990863,2327.5599788333,1655.55474701847,668.743541881367,792.345212366479,704.129396354474,732.52668764504,790.173904229408,622.729574449544,695.876101617856,645.665384102094,676.512940808699,733.353220479904,733.486369043811,677.550756732474,696.197983940548,613.603126743655,654.660483077013,640.11976019858,717.159256805308,583.966410013807,686.42944000616
534.558670363614,579.182662794005,465.854320722264,579.242576657058,621.902177594854,424.507770511119,531.587283484289,499.197594145348,500.65244076408,575.597786548067,655.624868274535,318.410166510312,501.325285809,623.182003287339,447.916795726124,392.680307944147,329.372708837568,478.544694271621,311.549983596759,352.090384408458,511.433064260354,209.734280376121,456.147933385784,589.843293768774,501.060998092305,569.63528190795,40.4023906910361,613.482899506294,660.575157942828,674.532855405264,265.332387021294,1612.63281020883,2756.52479730669,161.281156966573,738.745209708315,921.729390735108,2705.095090228,2822.41932346608,1097.9290756758,1106.06497022969,2368.35049141025,3057.40902206568,1710.30356036756,2493.24369902554,2158.20783479876,748.665912439814,890.737235121261,790.25123504159,853.980503776784,901.318385562334,718.663363452705,823.476522638831,721.83193798561,795.830529285448,855.276892223985,855.251738780831,820.893803232965,806.229878413737,724.318000236528,814.739232501288,769.40626822521,830.014501572642,727.106507267584,787.078778344205
508.147963748201,536.209682472931,429.627336625681,538.097384830945,569.148612991667,368.118846570065,476.809511846461,451.566181064211,450.680559982521,513.802876479115,591.463170705434,266.869208841933,438.025781912556,541.915755593511,390.027342018059,261.642929055849,249.510600940504,352.918468627402,172.523369684014,236.397044924462,293.775612670594,156.999609057055,168.770427528831,262.372468091227,187.060199917151,20.6403193276853,-144.490387463933,-145.090298742866,-83.7723115578217,6.01557534145505,-780.521199872512,704.178654977431,2445.9785028208,-86.8049917740309,-167.177705731139,66.855218776837,1952.07239490011,2749.15133446192,651.295722780423,595.520927215619,1610.10019273287,2747.35101029863,1253.08646739208,2128.96618944139,2421.98364104342,682.173638245013,828.058752602896,721.220993465442,807.383413611327,842.592365539048,662.499431735907,788.607513419489,646.486559034993,732.721591383003,814.728799638237,817.145965364265,777.506918251273,758.619639884111,668.580156870806,796.794880224949,745.888746203747,775.209721055858,718.577055605198,737.816738946145
383.275547756534,371.860751676578,299.474634783813,388.573432467169,401.731788267703,214.607367250496,303.112977924449,260.901512714718,319.483766448045,347.33815573003,421.594431576424,141.571604504566,282.277452817253,365.639543738938,262.936953520208,55.0312517506568,110.581693070652,141.407262503787,-53.7091649388256,65.0532933219078,1.96772461816509,71.5259452460778,-162.186570762451,-193.366250364047,-96.8226622314957,-594.581603997351,-158.296538506538,-845.359469552792,-916.665925026346,-502.032239402234,-1536.60851289335,-575.855013341376,1575.34223535646,-159.112293443997,-910.40129219062,-871.578803585572,670.753995797842,2054.11926234761,177.984465790534,50.4580748394642,412.257844418446,1717.04697869321,479.732956635121,1276.32988899893,2308.35273973869,498.404478800725,623.349288994306,526.751206674552,606.195626613291,638.340872187205,479.109184076216,603.421714339904,446.994027470397,515.945835269699,632.027707748013,630.642849990802,581.106442792455,578.716484484454,477.82102783487,602.738170827822,585.225324702499,581.071301337102,556.987141230305,563.142838812195
225.996963846282,169.919192864217,138.627562905622,203.89304472345,208.930276936117,41.0345648012073,84.1463749286739,9.15357377195099,173.781325568877,160.183492738004,229.156152341366,11.0097508988131,114.479341999735,180.404398213969,138.07264446812,-124.418888624234,-5.75426791836131,-50.538303120959,-278.108664047215,-43.7304882829984,-229.728186496576,54.0076605053128,-345.931321588283,-578.67479756981,-166.23098428979,-955.187663124986,50.7882476680262,-1093.21383209173,-1453.34720832463,-564.460054304692,-1622.03991821147,-1690.95499429319,224.111754891296,-60.5353444360171,-1023.77432837846,-1498.66509229229,-696.444333883199,698.873532823844,-117.496141159426,-371.9874421664,-672.373555915338,126.303843634624,-352.457095731912,211.646465492229,1754.8604261961,281.222464543673,362.830880125181,300.887230098829,352.276084525627,387.857500863403,258.119193943699,366.943184267401,215.357819724075,261.240789137098,399.638885814913,398.217522594067,354.98178372906,357.383513588819,255.86183943525,344.872309362314,376.317130637472,344.487680478079,332.276669820709,349.068873516738
97.4330496705335,5.70658397336275,8.18828620056566,51.3989903183075,51.9633413502135,-78.94663568747,-94.0575464726505,-198.479038668184,56.9167718446014,13.99342557466,69.5191799041406,-80.240198406451,-7.31158327686202,38.7542676068259,58.9541052533614,-234.32835792204,-44.7059957925551,-143.486520527367,-426.91016277354,-54.497951721889,-325.568581122655,109.187171475785,-326.984616071001,-722.893446858948,-56.0231328002805,-919.005686335045,343.545026123112,-885.883301974611,-1388.95009903079,-256.538784695171,-1169.34793244356,-1956.85438849557,-1268.67179647958,165.816870616953,-695.909765219816,-1427.14568396165,-1582.48494233189,-960.815498356884,-193.22145422273,-638.292029960783,-1159.28621326567,-1402.33812576196,-943.678363601971,-741.544454424139,881.292439826845,94.5648859309183,133.701459110633,117.006557023489,132.933664257233,184.158407294751,77.6849005994294,181.013031304684,30.5558096551731,66.0303840373267,205.767673305747,228.717626582397,181.637562176598,173.337425917513,85.2899796713777,136.990635886424,200.631067433329,150.808898633641,137.48625586925,164.75543674267
11.7150078718032,-100.899793890512,-67.1571992855111,-49.7340915845091,-65.5994473808361,-134.140953885014,-192.692734307715,-314.430429039278,-22.2135107167892,-82.2281796599518,-50.8281744785722,-137.643017592395,-81.9993321522069,-60.8972489870523,19.028676319543,-307.882267648326,-30.8702586431485,-147.636006634569,-474.489540701541,-27.7571105137056,-306.027198570567,152.98505047544,-212.126873964486,-626.477642223117,45.2738647962732,-629.623860709079,519.35979106986,-543.319593860863,-859.368359994263,45.5386709667488,-601.167696805205,-1375.03794150104,-2265.03120746212,401.479994389759,-456.514615199848,-860.662573924464,-1773.42697166871,-2207.50375537753,-211.281987739652,-822.787488455276,-1146.39724862563,-2172.61741212441,-1272.6393677872,-1448.95149872142,-60.3202939279071,-47.6292067444646,-32.8241175182839,-16.654237265879,-32.5906676757954,49.8893146046279,-47.7508366140617,70.1445765234305,-94.718123158018,-52.9738233569379,75.3266479602985,147.739167722162,57.1252399990845,47.9413605868258,-26.6458884549706,3.53002382706456,79.5876394887958,23.1024453968568,6.36477058674367,24.7747671385164
-18.7832099751599,-138.155615850232,-77.7839992273506,-84.1800628572042,-117.236873823801,-136.999207935341,-200.947739158026,-325.515208965351,-43.2126750303414,-107.675605846569,-100.171799791519,-155.188285469539,-101.285979663433,-99.696216525966,17.4491500816249,-342.907123418201,-5.79162541610742,-99.9543143711991,-411.438632472329,-2.2760443470977,-213.165532506598,147.853658807516,-100.360712881122,-412.288520313627,59.8313424222685,-307.88095277299,493.270266144427,-280.312088570935,-298.418934003459,94.777140091827,-190.918998853945,-648.800370893177,-2362.57098620256,468.914161917587,-457.504383428718,-375.102549536331,-1561.34926449472,-2527.72587250002,-340.60937571719,-961.044282783424,-1083.40077993634,-2142.10102320439,-1495.69490808004,-1988.66165624707,-870.232570814066,-133.912138518962,-126.353321624695,-95.1842472692132,-121.870357227283,-11.4069687754834,-117.165016741441,28.7710143854004,-158.80823838738,-102.205293345636,17.5699211796896,141.169127400951,-15.5041198499436,-4.74385466402105,-80.7766335038529,-59.1831901081343,28.5310298249841,-25.7027516917469,-44.3540311951316,-44.4248267155089
29.6772833943503,-84.0100485075757,-18.9771110801908,-28.4170996863794,-58.0490585228391,-80.2093888923369,-121.771700772085,-232.227079442285,17.5198963547846,-34.5697050559204,-32.5915962513603,-104.398980803544,-36.0044672895955,-35.821507864505,72.2533704830032,-299.372199975221,35.4792054733383,-5.04935782702059,-248.611204199007,44.5828335598477,-71.0982879452832,139.032530771866,-2.59495967131953,-187.117515620354,49.8316315145186,-77.4169442455204,353.714693188881,-147.594130966804,38.6642990884978,-61.0221443768713,-31.3624694428908,-228.588149023504,-1759.45453143962,323.806175567782,-580.010810600272,-192.29091479263,-1230.83323710608,-2094.91956226655,-588.843581022381,-1050.76463122223,-1139.23423662836,-1881.08717504163,-1676.39906240095,-2450.05606092844,-1549.26864793171,-153.888757713591,-143.081317129514,-101.964532143155,-114.396913406354,7.72272734452473,-113.591306295859,50.4152549024291,-142.090526051952,-78.4986212478807,39.1141574262537,188.587950697668,-4.63736015792718,25.2290774382858,-56.6954863247218,-37.004303823191,64.4230956755807,10.5437051497173,-10.4571981023221,-13.0687730024976
115.771134084996,14.8709502086052,61.4765467820649,68.8564091793259,52.1928546138453,6.35553990971139,-15.9721327721293,-105.824816639557,112.732127191682,76.430143328017,90.8537967418639,-20.2751017033124,68.5693691126253,78.6521889005021,143.76408811584,-218.125746828658,81.7883005891533,99.7622388220353,-70.5826319293474,98.6547636542943,56.1270100057458,130.641049035098,63.4254129712009,-23.9237663463434,29.2222829791851,11.9020417970639,201.259681435373,-169.971949506623,157.192277454934,-296.525058168948,-137.773337100666,-38.2284222544234,-983.173774458733,90.1409865535754,-806.549452329314,-182.163073708358,-840.308482699707,-1468.18749610324,-830.517621659435,-1127.48540242567,-1170.75670837064,-1759.35968903617,-1797.32238618057,-2708.6060144391,-2161.95215311527,-145.769330744866,-135.015610185412,-76.3835957600049,-73.5245996142338,45.0894216763937,-68.9092640243557,68.5411908789349,-81.0257207969767,-30.156922669657,71.475400723123,206.26421297493,49.9920693049522,68.3113589174195,4.17514705101318,22.943614893799,121.547151932383,58.5958535157489,42.0675771122408,48.415534685881
