31.8259362465697,37.9881334697096,32.4784041878433,37.5531548421939,36.9006869009202,25.9537247751069,35.8857367700501,40.308019483127,32.6958935016012,35.0157795150186,33.3483614428749,26.0262212130262,34.4358080116643,38.2781192213868,31.5359504948925,35.3782617046151,26.0262212130262,43.7878485032531,39.3655657901762,36.103226083808,43.3528698757373,36.103226083808,47.3401739612984,51.182485171021,52.9948961190033,50.5300172297473,36.9731833388395,44.6578057582846,39.7280479797726,36.2482189596466,30.5210003640224,15.0067626492937,24.4312995788018,22.1114135653844,21.3864491861915,18.9940667348548,3.98730408556112,33.5658507566327,19.5015418002899,13.9918125184236,22.0389171274651,5.14724709226982,41.6854518035936,45.8177487649933,73.1489058605668,32.9133828153591,37.2631690905167,36.9731833388395,36.103226083808,41.3229696139971,36.1757225217273,37.1906726525974,32.8408863774398,39.2205729143376,37.843140593871,39.0030836005797,35.0157795150186,36.6831975871623,35.9582332079694,36.3207153975659,37.6981477180325,39.6555515418534,35.3057652666958,36.9731833388395
146.953540929257,175.033083169662,150.846947243123,174.201558949788,169.583188256729,119.597506523914,165.854719608347,185.968392942421,151.371454009939,161.074324338069,152.944974310387,120.521471971352,158.757351412916,176.264066070158,146.302529532116,163.881740627277,122.188890043496,204.510002520178,179.901550035108,169.78655895737,200.778620783532,172.396430722465,221.800684407794,234.667627038202,253.271984073156,234.326546182382,183.701505405479,213.132709000178,184.956355899814,177.36170844787,148.591265231035,74.2515968179332,95.1194814733647,109.992903599875,107.277928538231,96.433603448904,14.9323628390416,137.3027754212,92.1718887689148,72.1905462416947,97.9769831507846,10.7217432631952,196.999057031007,199.932531122339,341.725153174411,153.128400221383,172.10061879426,171.667096710876,166.451722813083,190.639315283753,168.173149077633,171.39414266058,152.421924087703,181.460951722439,174.562584595252,180.066487700591,162.814238848132,169.131177927833,167.141167245382,167.918683272849,173.947093145004,182.799951007748,164.117718186548,171.449607397118
265.20179780251,314.830794056372,276.155560955228,317.300402393704,303.704160617261,215.550674823042,300.788072282517,335.307535509657,275.436747702689,288.470670472326,270.960421931651,219.542307914973,287.069364797549,315.766696180966,268.250286675215,297.726590630232,229.629061766477,379.505305184339,318.728459645501,318.629356853248,365.315298241552,332.970542664082,411.865160346579,419.924311629106,488.093020209665,428.581116377422,377.407342448514,409.256925213857,343.360460534755,355.383066253946,295.6981066474,153.400105535739,115.911397729422,225.871108541052,221.988983243619,202.916495418929,18.30683874327,191.211073135032,174.437094056197,149.986291116283,161.998758212387,-10.3458275870883,360.470078174777,314.387667493351,630.622344563299,281.363292316683,310.061679802528,313.707171879967,297.658388333129,341.680594986618,306.956380006285,306.304567725735,277.75117311573,329.015305533231,313.093427058422,323.431298319187,297.23400019577,302.012103172951,305.702214277756,303.731382367093,312.770468871965,328.44617973905,299.601342833235,310.065318282621
230.868435518605,271.839628285748,252.180487165546,281.68835448832,259.955518318559,191.210060143105,267.3164708762,291.06738869643,247.665717614772,246.878101200552,222.751120562155,200.191894915492,254.500954761439,267.990679530289,248.597826251683,263.5062888384,227.062476384346,357.985309659474,265.011023636771,308.639702187975,325.655976400656,343.417014480973,383.890424043844,361.912080765954,490.47409412847,388.389973205005,428.298211866134,408.516931284527,331.84446542096,388.173238725198,316.4871993129,184.258179131612,5.70414190570941,257.070091427702,252.010158903902,235.860952214123,14.1793440464952,59.9682139174525,175.025666994075,155.579720686015,100.211342993035,-32.686815694742,279.928411057504,144.777338691446,555.174814711216,252.712719215395,261.066270829318,276.680927743869,246.329840962675,283.841929492457,272.039748531296,252.817008106904,247.326337518732,288.319535909758,262.497098319701,271.118137687006,263.45168159878,250.318313520004,275.522936691536,264.733944233657,266.740730438786,278.795914964049,267.162266550546,264.782894538392
102.980862171975,116.786307156902,135.129908820128,131.053988255802,108.861480087835,99.5175165422441,130.835387464818,126.628280189541,126.708669335672,104.786439579801,77.3818205681335,112.541737504433,124.044565821566,105.969911302718,144.469282526803,123.518278528153,155.839833187292,206.87320930294,99.7410804686183,193.270424736458,156.747063914046,244.845686944244,208.409341468172,159.416863194171,307.943244676624,191.64246077256,335.433252551568,250.818183310489,213.997832697032,294.801501527018,215.712133998839,171.427974972893,-77.6051928833443,205.022218542161,191.318424286533,182.402491361007,39.6663091208834,-100.150077078214,123.885019169899,70.9038285219097,-41.1828735337301,8.15675017887129,-31.1503482307027,-199.306050274295,163.221775140808,108.392514748091,79.6917363315715,110.664164147725,75.6988725353654,86.1025940766619,120.597701944693,75.6845341351631,115.952054508103,125.106923544874,87.6989097878331,88.4810856495951,118.038229397259,83.0251790963765,136.725497211644,114.560813487997,102.492625499272,102.420424979335,126.398038110095,97.1312204769919
47.6954869762542,46.9271411021005,81.7472739133696,60.2165138793783,40.4416678777823,64.9092752664249,72.6942517703379,50.0524048639856,72.4739178269093,42.3437156144422,13.2290059845155,78.5050622153443,64.6261341802279,32.4762439004757,105.038439041603,57.5481216457029,130.497609805817,134.10903952675,28.4108509365772,141.837005765204,75.882160261288,200.914599633959,120.037621081414,63.9752326231427,197.740744485221,71.1983634714159,256.196635000143,140.547799833737,149.614850810602,230.697336786071,113.192235753118,152.968929314734,-10.1475841656378,158.309119739771,126.600870572244,114.495514584445,82.2083162815758,-112.242339279259,100.14962165422,-21.1250218604418,-133.269544165075,58.4799345447842,-293.939564189514,-414.993323350625,-191.819690393811,17.7264315608922,-30.3885580066399,12.670112173092,-14.1644340954345,-22.5044835896077,41.0767593421891,-17.7039206459626,50.1678602854462,42.3673021164875,-4.88062578978947,-9.22766152727032,45.9329325094044,0.845258594913141,70.3762336058297,42.6903068117242,19.0457555980277,10.7555149402787,59.6786488645744,10.0149315098666
52.9761481448239,48.2431138384041,74.131883317144,59.8305311311293,38.7498003392955,63.0288454218965,75.9734882682803,46.8226998278778,66.2570952930899,40.2734244192974,11.0900828246471,70.8776479786945,57.8696537538286,31.5981259733513,103.102074845973,46.629051977777,125.565693944109,117.842985445293,22.5392499650491,128.888712801069,58.4343299460155,193.399769684856,94.767486263283,33.6385707555049,165.946712997953,-4.80982144983278,210.601409062013,71.0581989276266,85.4471553799716,183.223054357633,23.1701464250539,110.941503654044,70.0495267883305,123.017320909328,72.0316711963106,50.9226098034526,78.5225217821566,-76.8086873716087,82.844528400333,-64.3126992826672,-157.029434552315,30.068111991956,-360.518245827846,-431.69294792357,-401.684588989901,5.80133261395906,-44.0554197540066,5.39870936336319,-17.6640677131186,-31.1461993869082,35.8246399526428,-19.5684082874468,44.7224924560108,36.5619464420262,-8.150141081308,-14.6741772914596,46.1722389102258,-2.54552909441736,65.1362853485432,42.0774535761822,12.0720863425808,1.92336247084813,56.3982305971543,5.83628612174108
36.1123243749092,27.9642831535301,43.1697229013063,37.499092105297,15.6136625531689,37.4424631762673,52.261157025592,20.9306369506107,34.569051915118,13.6364440532958,-14.9709903958257,29.8954892161899,24.9630730340259,5.8316557034068,62.5292772643998,2.01521542886167,80.2429701335241,59.9871330428697,-24.5037538013541,65.5873491629977,-4.5447702268839,131.255033581326,10.3924942799228,-50.9954263432347,85.0342581065942,-130.605481415863,131.356081517698,-49.6313734291681,-43.6999718843658,79.1138155761026,-75.5326398111599,43.899693843947,68.4367542918183,70.8210405971417,7.30805901639577,-11.2578755872552,42.6646226189029,-78.8126456824266,47.2247767870088,-60.6173394540023,-137.526148725567,-12.0078054965146,-285.566704867766,-306.280056098894,-468.388773088316,9.22267763772017,-42.5086817626676,5.29127790096297,-21.2951118941673,-36.8103009399898,24.7138594668603,-22.7610178880575,28.3297115854794,19.7176828079062,-9.70585487620016,-24.1135443122547,32.5109200711966,-15.5436026896857,39.9584051352318,26.5274164980588,-4.93779984080536,-17.4523490945334,31.0876420947104,-7.25040322818301
-9.58921857192443,-14.7049762665922,-4.26243780654336,-10.703792067018,-27.2543604722949,-3.22173493344968,0.0549468409389346,-24.513843127442,-16.6377020240234,-33.006220932404,-60.4055163397743,-31.2150660349849,-31.6806366663074,-44.6000904099084,-5.70814984487709,-68.3334820546928,5.68494275978748,-24.5553335846307,-100.477669051704,-31.1721615903353,-95.3691656000887,19.7188123317911,-110.867334315286,-148.307135789818,-44.1474752437501,-246.237571826994,14.5488702018343,-194.450834345993,-161.911463194482,-47.7404098177626,-156.408778426565,-15.5528397372212,54.8098920135194,7.80645307420101,-56.4040410695199,-55.5138372964134,33.5134875169223,-42.0080359859243,11.4853205493333,-39.2460144012983,-73.0419048912229,22.1841076475822,-169.254414316204,-83.0434358707295,-339.377819908322,-3.22624845629651,-54.9979460168264,-16.4021096853969,-40.2428980809119,-54.103738093781,-4.07917622103041,-47.1260177169959,-5.02927357145627,-12.4638499442378,-29.2929727267775,-51.6987346711826,-5.82423251525406,-41.8904276041141,-2.72099612031661,-8.62411435640391,-36.9158291196276,-50.4441243766434,-14.4660313783146,-38.673783380168
-62.2423795891709,-60.0370045384295,-54.2492510520885,-62.9259027561477,-70.4227951419994,-49.8324052093747,-56.4310719815903,-68.2799231846876,-69.4260987933931,-78.5651465532395,-100.938273072887,-88.4612304123618,-89.9526260088999,-96.8337000991037,-73.3689515371771,-132.235522042149,-67.3489586326326,-101.236853515323,-161.61320389175,-115.799623120274,-165.599877500786,-87.2829422617058,-203.090577989067,-208.081909729614,-160.453741751026,-293.159189143142,-102.663782258054,-301.911026542957,-216.565953937695,-149.089390638342,-205.097625286107,-60.7836808336312,59.4801803335695,-56.1218615000083,-109.029249271018,-82.7766999918291,46.847200219906,55.8025272279783,-29.1293921017744,-30.6224486431996,13.4461320089095,103.11087449304,-74.8033396499174,134.53427804569,-90.5682774557763,-29.2580236435004,-72.3875636942227,-46.6230479799818,-65.0081844146532,-71.506335471082,-40.8622373621997,-76.1989417567007,-45.016703492382,-46.5266733408035,-60.2631257605272,-78.3568710496504,-49.197033505564,-69.6409828197296,-45.9889901338117,-47.7821934246937,-70.4995843340833,-78.3163656616542,-56.9830463927061,-70.7489763698895
-98.8127626499383,-95.338654822519,-91.0091253361923,-100.233363993462,-101.640280876006,-86.2298153307178,-92.7701266881216,-101.979176647238,-107.798216215243,-110.477774529789,-122.698254552885,-118.844441330701,-125.417593372276,-133.199600805782,-117.181028995187,-170.721782238634,-107.709203963749,-152.27237471067,-188.587408385941,-162.716567486151,-200.716113955244,-145.172509287933,-247.86900928741,-240.006400783501,-236.427485196076,-290.447350719131,-180.420715871461,-353.425159053914,-229.157031257705,-216.564313997586,-223.407451706687,-89.7012775380277,58.9162667114844,-102.545709526957,-140.660752875593,-94.0452560718628,57.6525113567865,147.180203716016,-67.8013441772132,-30.1235229874525,76.1388933350421,167.913532549796,-7.85072058581524,246.107993894486,105.879018199298,-45.0235523158038,-76.6619132359056,-65.4586325450516,-82.7511541287039,-84.0793866233354,-67.566875109235,-90.7212450703187,-73.7753553241197,-74.0300115302411,-81.2965492923967,-93.2266313422841,-78.475947018173,-91.0098508998808,-78.5125453438578,-78.7369559182933,-94.7151865968946,-96.9027819326942,-83.4549390169104,-93.4832970027337
-121.294612904845,-118.056228705623,-108.357957944401,-120.561837820691,-119.729651937877,-103.733849120508,-108.946606900011,-124.295493867126,-128.373516678731,-130.055601602557,-132.889916921151,-126.068446935381,-136.185729294847,-146.737759372117,-133.85831612501,-191.47387990812,-118.304535409543,-174.884572080483,-196.220146798433,-180.798041570318,-212.870648864588,-170.165043870224,-267.941492411174,-258.096065805505,-286.244209650782,-279.88473574421,-223.536794164618,-374.307824212739,-235.539176026513,-263.567607588494,-227.362530023443,-109.079383295729,45.5611319605476,-130.786276763143,-159.334153124168,-99.4088397315098,50.4733029009455,178.103549226532,-90.3267184406249,-34.4216041812468,83.0029083710518,175.280562596846,34.1809112213199,242.287619219574,163.143670978205,-57.9944770604941,-79.2128415610297,-80.169433770953,-94.1848089549157,-96.4985906444217,-81.3017093527525,-97.142839793084,-90.2724460486505,-95.270877266729,-88.1236839666435,-105.244239917761,-98.9105644402567,-105.362818246964,-99.9356546433577,-99.9382370251537,-109.256077394235,-112.494847061903,-100.730999407726,-111.98266426884
-164.724348366168,-154.866175858227,-141.171882933402,-157.523868622586,-152.3526430388,-136.876495413231,-147.094362275533,-159.706588968538,-163.234120358409,-165.603808215676,-164.89466554014,-156.655638240033,-164.681121184155,-169.58618329357,-163.229460453136,-234.239470451714,-154.765569281582,-206.43768072863,-229.067971420744,-219.095000458072,-236.745134664418,-232.720946031564,-302.634157931551,-277.033628535444,-348.4652424291,-288.865013040497,-291.666097791695,-399.335995165623,-258.364420365454,-321.324722457626,-246.092255306999,-150.566405178589,4.80112119160282,-178.208854261158,-199.569120287754,-133.24354862918,-0.47153607932839,130.511187122423,-126.953537542284,-68.7176002412643,34.5886717814561,104.213349892033,29.2108619505769,167.577622790266,101.020392729036,-106.406044121016,-114.173047152372,-120.606880546775,-128.698847962488,-131.993112996234,-119.669904632952,-129.777246468413,-130.963967608872,-137.220982992535,-122.985916410579,-141.345573889484,-146.048739586792,-136.975776963925,-139.948102994237,-138.46566185372,-143.598011239752,-147.491302842577,-143.113377671355,-150.642034015976
-215.386944490493,-200.892848004972,-190.789816001288,-206.363960464994,-194.347275056168,-184.614367425238,-202.03743325562,-203.464752817795,-208.801805324872,-209.040101565067,-203.932250595645,-210.007344662741,-211.390929519678,-207.02204466396,-215.448890898899,-288.912694227584,-226.06038465465,-258.758768960945,-275.604123957839,-288.047707537929,-273.524592762864,-347.879918069855,-347.958397238773,-290.850978178873,-431.286365037754,-288.641514894782,-405.712188004631,-400.887283525805,-264.777434014812,-385.100342227196,-255.573792262612,-192.782803276249,-47.2821896029962,-241.829955308334,-243.599608325215,-177.466480145816,-67.072610497061,47.4985976452854,-182.840154652227,-114.061511971613,-20.5649660677556,5.94918301974637,-7.20613403207532,85.1671528473297,-0.511035299132981,-169.496995989855,-159.746667274266,-170.565924767268,-170.123758510546,-173.001991613263,-177.783000825556,-171.044531553023,-186.369943620161,-188.593536587934,-179.354406660164,-181.549670320498,-201.903433489784,-172.659320124454,-191.11397303942,-185.73664788091,-187.316194984387,-185.428735570077,-197.019431337383,-191.091182118288
-215.945466314083,-207.633697460849,-204.602492620603,-212.279859013703,-198.100576221428,-192.276181312306,-212.279190170429,-208.345304725848,-215.132489155778,-213.152660356422,-197.112048751954,-229.815397217265,-222.806086727016,-214.388750191805,-248.154185235829,-298.214895011708,-272.637399647044,-289.212742390957,-273.21995640297,-341.570984836839,-281.02510465662,-460.032639171718,-361.053690647367,-264.910925602481,-507.951954680105,-223.377391858764,-526.358944050275,-321.443516872169,-197.502087855433,-409.309152733683,-199.260322115236,-169.311421831261,-51.7739004806271,-274.81426927795,-232.336385743102,-168.035967379473,-74.5978388377368,12.3996995264529,-207.859674790571,-113.078339960082,-27.0529506464073,-32.5282869802813,-19.0731373831312,47.6014865892489,-55.0180114166724,-185.255715955722,-158.324697186574,-180.096732850081,-160.035251841757,-164.382161183918,-192.799282760601,-161.461133874653,-195.302182542749,-194.855552252608,-185.685552973711,-171.355079094749,-202.516659422244,-165.318372113181,-200.569078904822,-190.123913255066,-184.830897544345,-175.198277982029,-204.860643584175,-183.403530275909
-173.535261963014,-172.554166271014,-176.72226055504,-172.299489045055,-162.802469467487,-159.01676442293,-176.997608513491,-172.842546068162,-184.283548581564,-181.077208698017,-154.708819984864,-208.459420697081,-196.213756367334,-185.207227696338,-247.812340263623,-262.295831682181,-278.070246087978,-283.560057713257,-222.546232173702,-358.713418613078,-248.371606200835,-527.437163784208,-334.774525056344,-195.200100719023,-559.415361306078,-108.349985003896,-619.318615785791,-187.638691212878,-78.3152931421299,-386.694640042816,-97.515418457387,-93.5387682791724,-10.1083755402113,-278.002675318352,-178.45698644091,-110.435885133859,-26.5644456984016,38.5487099853662,-193.747694991732,-72.5934846270838,9.47149500817615,-6.5220591981972,5.26441323233477,52.9950079747607,-45.0963451181848,-151.117885257224,-113.413462176635,-147.750324635962,-109.71092742802,-110.850349670695,-156.788866559531,-108.908114859598,-156.846299418939,-157.426902759472,-134.572183457956,-118.814967341262,-157.078563839572,-124.247561178632,-167.68598821915,-152.461051808087,-139.47281010498,-125.068643884336,-170.915477296,-138.22976285432
-133.534322404423,-130.555641378116,-143.50987433818,-128.827467168672,-123.697746443625,-125.053959568835,-142.178136005508,-132.661566642775,-150.851922487242,-146.012262939544,-115.176786800217,-173.525436496438,-161.691332285168,-144.529696242533,-220.856262378014,-209.403135473021,-257.676159054272,-249.70244692711,-163.232949475483,-328.982198383953,-189.995148139106,-507.318863267235,-272.624243399041,-108.37930884934,-532.206769313307,-1.03299488131319,-623.724633773632,-69.2822473688865,19.3102864715941,-327.237247641247,-11.6487991283767,-33.1513403295167,22.8508619350664,-265.129704720174,-127.181039602161,-54.1619527478748,14.325475721999,70.1169449137235,-166.201098132367,-32.7011908381697,51.2264584048786,27.734892338135,43.8911511173631,76.7830759344679,-11.5433929194733,-103.957879947633,-63.7501950340742,-103.852266944046,-70.7090235214895,-62.9488091377357,-116.326519909366,-65.3823817367477,-118.689773802029,-117.336557698812,-81.7846525963109,-70.1091242266464,-118.519228862218,-84.5772157305334,-133.894072669468,-113.648291178849,-97.580418975698,-81.3643733661058,-135.768800428115,-96.6367399212078
-87.5642522461296,-78.248096983868,-98.8726906661992,-81.8709085159352,-74.669721113164,-82.4359686586755,-99.9642926027563,-82.7674886900588,-97.3911575875809,-93.0059319830054,-61.2043369261664,-112.623565227484,-102.518051025033,-81.7957311634469,-144.125621094035,-120.572021486492,-177.95248812674,-160.952586590096,-83.2006869831858,-210.497265688628,-88.5618366630568,-343.457725712352,-136.628955185867,-8.48681580596603,-335.782697479513,100.285303819656,-450.838409249175,44.6774334124023,80.8493629420425,-196.956019149407,65.121631625691,7.95140684891466,42.1222254480412,-194.022031512373,-51.9443293839485,6.106390612774,42.7724240665414,81.705218238424,-103.338213085395,23.8343935744558,95.963490602254,54.8456107271794,100.665539635467,117.347147984317,17.6115825710118,-49.7994988163006,-9.67106254606776,-53.036422089835,-29.5080429152236,-24.5880229014973,-76.7709784747196,-27.39946046681,-81.83966276209,-71.7605075135661,-37.2739931079414,-25.2064141037192,-76.9526028083866,-35.3625512409916,-96.8477129261706,-73.2675044630154,-56.390220739444,-39.1909707929293,-91.3572518624909,-51.6353307933674
-23.1061583618269,-13.3680461268642,-33.5709121827785,-20.7572564023299,-6.33016785221657,-20.6086611427798,-33.1554758882247,-16.7602072769111,-15.1163551113365,-12.3768847421316,16.636481163141,-25.4887944588426,-15.5951418170426,1.13613649698619,-31.0339005447503,-2.61754755468703,-40.6340378615322,-27.264075216129,23.9058906089502,-24.2882478730919,48.9251366992933,-89.7096970374025,62.5264133658425,96.6487186549013,-10.8287966168876,209.917563941543,-143.422047982277,187.323120390355,130.957568812361,-2.20354560590037,154.11466903196,48.4776980786119,59.0864940794807,-58.8906094022761,65.8361361650245,77.7007116811935,75.7738899205693,77.0154059803645,3.53111223395874,107.224381483052,142.824845825202,77.5982369810642,163.732844016415,157.731041690247,28.7008807598837,6.21261504665638,47.9502406608071,-2.16669642772409,32.8259782289415,22.9782707507061,-24.9028899752922,24.2884097186308,-32.3988740583948,-14.6851408920467,12.3193371422375,25.879397501584,-16.9815184240061,25.7189106845914,-42.7066353521766,-24.0617028941238,-3.30633462249698,14.5660473267276,-32.0664093099618,4.48189729724421
19.3957832937127,23.5500431363226,9.31934609852422,19.5462641514349,42.8619671586093,21.890783825823,16.0442202926307,26.0958436965748,39.4414709603487,45.1720388651052,68.9574181663514,33.3950759771835,42.1613337841596,54.5426537389652,44.0015377096023,75.2865240611943,54.8121622211951,67.729795664683,102.453562299657,115.070414331029,148.366355944594,87.9547211317033,220.191457328236,165.357767080492,246.943595724147,286.300822540234,108.963826848871,307.344471499547,158.490483951908,156.582871535444,211.5237437753,57.9781152890495,40.8999932851739,54.1039884094008,155.484088742826,112.531448147658,80.917249312443,46.0439062496574,86.7870351261862,159.039712649137,152.13246896684,67.6961841654588,183.040134924633,156.715633167495,9.99980633574303,31.7287423587417,76.5734262313546,21.5433828119151,70.4753078997732,58.9233571721773,10.9587125914233,59.9842931157417,0.60031122539147,19.774899168352,43.2228510807898,56.9726089006011,18.3783214685525,57.7150857651209,-3.38364056207944,5.4466682658701,29.2408407479085,46.4399274043801,2.20254568206981,37.9753521448824
14.1761040579291,14.0117358285364,2.43509055954536,15.0969077760848,42.6294917532821,19.5858210525428,13.8726178375899,23.1797057504356,36.1097211744394,45.7461111071332,68.4365055036536,36.3701298631934,41.3585184608954,56.1732436731165,49.5172337029972,86.6779480768444,55.177772082179,82.7640322971551,115.984632413464,148.51639496932,167.959315215254,123.929134918236,271.370755075293,177.946833544857,334.324526093576,300.03935057132,206.577657773789,345.580490379908,144.982888820245,212.944582848168,202.264752045636,20.291790674945,-24.2132044174437,90.2951308206534,163.916730414254,86.6518486338523,35.0825112950693,-13.3000691002106,98.1598581663282,142.860047677279,109.342084593512,17.6294799821882,151.449572901856,112.811652777521,-28.0823707946166,18.7252179381475,66.3326965437968,14.7371132388738,54.9504123046738,56.4170030736673,3.06756052538056,54.1283340178241,-5.82016651815993,12.6895335406255,36.0463313846768,51.2373899977653,7.96957831575398,45.4542282014102,-5.36409108744432,1.10116791221016,21.8096663296993,38.3537767403058,-5.19240789202454,31.9366329951375
-0.199937659821323,-4.82586062944277,-13.4794029694653,2.74289707799692,20.8623493874507,4.43470699548005,-3.10968913901095,8.40053735038898,23.6640746170275,28.0334359795879,53.5367117860729,27.0360798098538,27.0028930187069,43.1914012199534,36.4987191912694,82.1027691703349,37.6252134387628,71.8292475425132,103.799532762587,141.902503296112,153.374474019435,125.993227691169,260.203723167267,166.714354012598,330.40301567479,277.371276161762,234.946755509374,326.476451443256,115.979906227478,212.266819554511,166.438636242379,-19.4250756099464,-85.4450923805821,97.4837678052229,138.751975876367,46.5638545866136,-20.3646557839118,-74.3119384620386,82.089409011596,104.739580462263,60.878003645827,-30.4306245521762,122.275289257193,69.5689255041005,-63.5010822664318,-0.271648974689299,44.5812809091118,2.54430888982771,24.870319270181,30.3254381262511,-23.3194694293971,30.4859478467551,-23.4909682324615,-9.47134836082927,13.6844905248314,31.3322650344563,-9.5038321642739,25.0174424425402,-19.7271805012216,-10.6251721961379,6.48612548011133,21.9690686489175,-18.328631133796,15.0400321739025
20.0289581381879,6.55828880983434,6.98399403071585,23.2302526966705,23.564999874865,21.7837566790754,12.6549641731489,20.3626002585018,45.0794910520255,40.6398618438196,65.7405487928923,50.4589786408594,46.9718803349976,53.1100876746858,56.5559376904036,103.254868771207,75.057830588433,87.3275675247262,117.294345708391,164.708939392882,153.311459092171,188.482924831921,243.777737865039,165.438072106617,317.533191337985,249.803782726843,286.0380702087,300.59602649636,114.289175929789,216.536676748552,157.784635059389,-12.9538231340475,-89.2230060199841,130.758031151972,144.842317542589,43.0862714980837,-31.2854114108485,-96.8147671817358,97.5168721651984,100.429426468342,47.5542518427798,-42.2517661211548,121.868960780991,53.3620206685078,-82.4983189394625,-5.97752100456985,32.0131638539423,-2.44882478810416,16.9085938361987,14.3165665654181,-25.9300293342264,22.8801914624512,-16.6730419038574,-14.040865302134,8.92998134722247,26.227582799686,-4.79068873889244,28.4013073639278,-9.70861580229973,-3.2740269191527,16.7323956276168,24.6141799674929,-5.48900708461281,17.9347977284855
50.1069880293173,31.0317983311379,35.8151075798514,48.4700535127772,41.5031271307084,53.8257842658412,38.2148676630227,40.0302706531425,65.911442440917,64.6952217881454,84.9520960270519,79.3170947788441,75.4553928480157,68.7062873968972,84.1928506661884,124.015630647557,120.488005234511,100.841649426143,138.074203083096,182.155516683635,146.531040026066,251.912621765314,210.063823706828,156.883209559124,280.935123975582,211.175131305569,322.146981886641,260.734868553058,129.424136871779,213.880281060913,162.347170095199,24.0085891904997,-43.5856311378852,160.938618755883,160.484172704433,62.0187993917743,-6.45289239536552,-74.9997909897214,120.58419626327,111.741490894076,48.8426444280666,-36.6446672023716,112.997328529687,39.6388397824373,-88.2988241406053,-21.0771009964095,14.6668096579057,-17.0375448456544,13.6469740882439,6.86897046622226,-16.5225748120327,23.1812116374907,-3.06790396252279,-9.74413483859914,14.6998502510728,26.3321077953955,1.01305952956423,36.2088655069054,4.92555082801351,6.34412198500774,32.7210058671649,28.2893742132389,11.8700610797436,27.4470781313323
33.4178157028956,17.440042019615,13.0461426286328,23.7993517427327,22.916434041305,37.3310804710634,17.0985560365444,18.1385324903682,34.1971610149901,45.8377249670584,62.232493057805,55.9072532177061,51.4774659255102,42.99601615919,56.2998880513727,95.2296748471003,91.2373047983254,56.4023325165429,107.910488486596,126.588971773714,86.9897652840334,214.921269744518,121.164680459357,93.8025287398015,184.122020133523,126.261558311314,266.495155991714,168.09041241143,90.9748335108817,158.18168405113,118.345785297805,27.341388564227,-8.10372490425533,125.76515480806,118.395137906284,46.1292654251106,-2.17223204915685,-58.2666465328718,86.9241951678032,79.7370257481616,24.2678315201832,-48.5463990251409,64.2805329213114,-3.67186641092887,-99.3970361601767,-59.3190411971223,-25.6739544909988,-52.1717842703078,-16.2543189562906,-22.1260629423933,-37.1617544239446,-1.08232646533747,-21.3330262928717,-30.7388822524757,-3.00736255688258,-0.37046274973974,-21.0629720277525,9.94124408802827,-16.7306545794813,-18.0013849147965,11.3250922501571,1.8836212833225,-6.13340869080714,7.79321301650372
-15.8113495383863,-27.7401012276832,-42.4218768431152,-30.6065273718249,-26.692290733952,-17.7064666242255,-35.6129247792746,-31.7314696338947,-22.2054163658121,-4.62631825546345,11.298797765696,-1.41412261069454,-10.3703047552803,-12.7027232823336,-10.1339040677375,34.5917582964219,12.6836104892799,-24.4919536554101,37.385244710928,32.7865541222032,-4.06328009855162,112.135865427048,9.51106189099369,-14.2518912977167,61.6337785634452,0.99123346247675,153.885511735704,46.965132376414,-21.1214586605567,67.752643638383,26.040267796628,-17.7385043929656,-12.7993708840386,45.2355013905492,34.4246391536682,-8.35090257818445,-28.4502000649603,-73.5627415679053,15.2073145651631,13.8146312101676,-13.4653672174575,-67.1927464141754,10.8713944574159,-51.7080971971343,-116.830927334541,-80.3125917568424,-61.5657222973746,-75.8418432807987,-53.3128636063139,-62.276564383929,-69.169194419596,-37.0975093903106,-49.9544873992026,-65.0200044449216,-33.5185053041725,-39.5889429752442,-50.4754303763894,-32.2779908280729,-54.79280466146,-56.9383388772077,-30.4990479092646,-37.2956656213384,-41.1276173490211,-28.0419963302563
-36.6113839795689,-51.3037135821977,-62.2269223074524,-54.6495405320248,-50.6553873697357,-39.8685705339899,-60.619398520506,-54.0861264916938,-41.8818076137522,-29.0403271998685,-14.08415412215,-25.9833866543281,-41.0644249111143,-40.1205347984621,-38.8782704342224,3.63558235768494,-22.6212715754416,-69.8677779350046,-7.24657116888798,-9.94659591689405,-60.5699987549233,55.1530974135809,-48.2938346444825,-95.3757122243291,-7.85440427560674,-95.8430285426101,85.3390349465368,-29.7099031255122,-127.249291597883,10.3795010664125,-41.8274496938407,-60.1603093790059,-39.5858254238736,-1.98824628819542,-14.9096287755367,-48.341295964212,-51.415798427005,-93.5303712663407,-18.4049436432147,-24.0528909215794,-30.9673817960463,-70.6374935288901,-6.83530037240993,-65.819521995066,-126.976011910173,-57.4660237466867,-61.49370401988,-63.6778727235018,-59.7635730201102,-74.020260390491,-66.2044328325097,-47.3756782198219,-46.5888310050934,-70.8457308644357,-39.6897965777494,-52.4809174956107,-52.347434060573,-45.1312067584582,-63.0306338265725,-61.6618869826866,-42.3834225630579,-50.7766474010562,-48.0655449211578,-39.2683447136245
-27.6975301095939,-49.8129915024963,-46.1123010392747,-51.7147339566408,-45.8536682204116,-25.0280247654125,-57.1565832549858,-52.4386740527014,-34.1779462932381,-26.3018248668031,-15.3840366608837,-15.0856498614947,-35.7355182586137,-37.3787402607796,-25.9421381478956,5.38130114212581,-6.05415454500558,-72.3789310682416,-15.6965855940398,-3.69011361762315,-73.5322479376017,53.1334247603802,-50.5381537467546,-119.48587000965,-17.4505369047344,-128.603551547231,69.9786979554196,-56.4692863812962,-164.867580380753,-9.61394883719428,-63.9610106849737,-82.3132665061728,-80.5024598008787,-3.55018486759417,-29.174924672774,-64.0019646449529,-76.2078194240033,-111.85448519841,-13.6174322134233,-33.2778989689957,-45.0597668197518,-84.5417041507805,-15.3678419162244,-68.5449155050839,-135.268336493262,-32.7230349297101,-50.1102244605337,-48.9084425899283,-50.3131665157485,-64.9699857134815,-46.9638037574255,-43.2665774205001,-29.8119560279029,-56.8539448819728,-36.3595668375428,-50.6294353709048,-42.4991137479637,-41.4740785842507,-50.6009471101586,-46.3175302459064,-33.3039836674777,-50.0872017973579,-38.4422024659205,-36.3423257636668
-28.687366111114,-55.59835687865,-41.1499809666873,-59.5931064074212,-51.9944822229225,-22.9966278656725,-60.8797772098632,-65.2953139371004,-41.2215358466098,-33.388329164694,-28.1473631555323,-12.3127049756518,-39.6545146633867,-47.8468597046405,-25.8217063703081,-3.3204050301015,-1.3816861235917,-80.9120661576977,-26.7700271100863,-13.9041584331624,-85.4416117743126,36.4822824957143,-60.1629593292125,-124.842850677095,-36.233132799334,-136.989519083997,39.5716469766829,-90.6298026708531,-160.879115222349,-46.165905946223,-88.2306362149699,-108.117575324405,-130.987816799003,-10.8149037824775,-63.211652031056,-87.5277500979037,-117.692963385724,-144.009616088153,-26.9514931203163,-55.7662868318063,-80.3919628082862,-127.662572763949,-48.8951765685318,-93.8016213827196,-149.067071529431,-40.4628638800932,-58.1380069837524,-60.6402341261193,-55.5946853069405,-68.9329740225888,-50.8233455639362,-53.5409248039482,-33.9535097874298,-57.5736009377786,-53.7493570370971,-61.2945587937986,-50.6261761872174,-56.0365819318903,-49.8367758164595,-53.0832645492554,-40.383409787787,-63.0440077417225,-44.1422577183322,-49.845938025799
-41.7816196245037,-71.4545325870151,-55.297344875198,-78.6572541740502,-72.6504598025567,-41.6003409525485,-75.8948105507228,-90.5516748321496,-59.4574081104549,-52.9814827766742,-53.8001655114754,-27.0125335009392,-60.3389656203005,-75.9894968500447,-49.6134759675351,-31.3279660073122,-26.1689464864142,-109.885192490318,-49.8491736212749,-53.2269265969306,-110.005615902014,-11.6148104358689,-96.4650946482604,-138.95325199768,-90.7902371907621,-156.768744289531,-27.5498649233941,-143.471430868314,-154.823441059423,-108.624593710389,-124.294977980268,-126.190212313683,-160.601029233766,-42.6701372984536,-113.422839750352,-114.618837776458,-140.962057221,-169.812429144588,-63.6048399023645,-86.5055482980109,-112.442218506258,-162.540511016423,-86.58194607481,-125.334864540215,-159.770037550218,-59.6171671654433,-73.9501094168683,-79.1780354296128,-66.1777938024198,-84.4783564012381,-68.7281276872439,-71.6231830759602,-49.9225784100549,-71.5300396801656,-76.8607716866788,-75.2611274702924,-66.8595166261097,-78.4025287582574,-61.1349645288302,-73.0903233114091,-59.7878494812572,-79.2928898616862,-57.6894054229114,-70.226136954926
-42.1274961872253,-75.990626918138,-61.4119034858248,-83.9217453669776,-78.5475440081337,-49.5479448114877,-81.2022895851321,-96.9151633354754,-61.6071574434177,-60.8786049099526,-64.1991484439655,-36.1692517633972,-67.8864363416725,-85.1659204125647,-64.5737627480809,-45.5054973318655,-43.7097567451766,-125.798011258288,-57.4020683687167,-80.8854774202798,-117.401884759578,-52.8005293579379,-116.21066221996,-135.450988612829,-128.302938108843,-163.739618441208,-86.5883585749764,-165.184620225993,-130.499221609212,-148.243104750881,-124.210225175824,-100.60109132003,-143.166952743325,-69.3837694548489,-128.653301641661,-110.115965595067,-116.015171303678,-156.06476650131,-83.3150717815729,-91.2498373167768,-107.195770018209,-152.583243488953,-93.7594097319329,-129.046349656638,-152.31126056016,-62.9983520334306,-73.2400007492035,-77.1945114398962,-59.9221231832252,-84.4369813068352,-73.3515542178537,-74.2158044598031,-53.1798072560433,-75.0145441272361,-78.1321213369479,-73.890049239016,-66.3013560876916,-79.1373420278381,-67.2663941600226,-73.2041342560572,-65.0285743043421,-77.0076218253158,-58.77303419978,-72.2956683809214
-24.8218974021927,-54.9099828418969,-46.6261981932967,-65.5614055340377,-55.1149892192926,-34.4455009961182,-64.2712710160793,-70.5477497312652,-43.4643853709534,-43.1260817224105,-38.9875747634068,-27.9184043783405,-46.1497141985231,-54.0057194478679,-55.1097200615132,-22.3471939036353,-39.8632894736757,-104.591832409728,-27.0553464922666,-73.7048942483811,-84.3829326030949,-67.6211138617517,-88.765303837636,-84.6751572652339,-105.904136418854,-124.665053821006,-95.0438246950542,-125.85342688728,-66.9438036680192,-130.269646902979,-70.2119385790488,-36.425029382235,-85.1925087088573,-66.7448088662897,-92.7558466306036,-66.6144817185615,-68.9668752928693,-107.319508402117,-70.0589075701602,-65.9513593792006,-70.084100142962,-111.751317515551,-65.4462894457804,-93.9218710516492,-112.157308190568,-48.1050875159955,-47.6421646308236,-49.7911537006227,-36.1974014202475,-55.2888176540658,-57.5191702436966,-49.6087244728646,-38.2796612336403,-57.4784655251987,-52.6853353831454,-52.0830285602329,-46.6355436603812,-50.9866515897857,-57.4563058587906,-48.5415590688206,-44.9355554872072,-53.0752140143147,-43.8596533455947,-50.1453166477344
-5.31554752165476,-21.2075502438988,-25.7187297470908,-39.3739891578205,-19.7711275004318,-17.5272949589425,-36.9872580161073,-31.7770019004786,-23.3553451340384,-12.7762079209661,6.70268332502276,-13.4742108889675,-14.9731282880902,-8.31391876445552,-39.4138595588437,14.661822154742,-39.4341618987714,-67.1675454270495,22.9059899220593,-53.2809943725734,-34.7990008007271,-74.2728592816914,-44.9963900321673,-22.8821958161891,-56.7366685129147,-71.2172280689753,-64.9495866652884,-63.785548009834,-6.83102686242826,-78.4732879131609,-9.9721804929807,26.949471419309,-14.5804369192176,-44.2897444631233,-39.2733262917141,-12.6079659985643,-28.8865542763588,-57.0908256185166,-43.5275545607417,-30.9896047876736,-28.7475386822589,-71.2282648224644,-22.7176435331289,-42.7587717850052,-52.9652135657485,-26.6531754438746,-11.9356967997276,-13.2172187264982,-10.2946352054724,-16.0718490867715,-33.0788953399422,-11.9090871618576,-17.2709193571997,-31.5109168239837,-16.3275508002963,-19.1110102903508,-24.8533670730293,-13.4140932457889,-37.876912671837,-19.1995087825528,-15.2123840202538,-20.8065729865473,-22.2057932557181,-16.5147669355724
-4.20153707312488,-17.3112753057634,-26.8902992679384,-35.5773898040408,-10.4431376772974,-24.5446931586137,-32.4174227931062,-22.5871832832676,-25.5927428882264,-7.74375139756301,22.2355774702563,-14.2276607838075,-12.9338556263535,1.80890103329896,-44.3849302224866,15.1436305931348,-62.0067989472338,-62.2236278407652,37.6591719249302,-58.8532810834229,-27.1553879386562,-101.15522928635,-48.9998089825709,-28.6634251604875,-61.6451143008949,-79.4669174459996,-61.1791490118664,-56.8231107142283,-16.8495594718431,-60.655505369335,-0.527150195856428,59.9160671065604,37.4151605396603,-37.0361412058293,-14.3236334639896,15.8409221178758,9.43101569532986,-36.1622383584471,-33.3542763246618,-7.28719747960759,-6.45256994765447,-37.4007124592435,-12.2695764540429,-29.2861518717251,-41.6926870526867,-23.9177703037868,-4.49751679828861,-4.25740050443779,-8.3016568015307,-9.63488675100701,-29.397192599446,-2.80666585669062,-15.870256248028,-29.1588589680943,-6.31226525740155,-8.93731560710727,-25.7109928609498,-5.97361624889322,-37.1693443717616,-14.7280849250819,-13.3943437598516,-11.7100174175248,-19.7745438024589,-3.41730719522822
-38.5351308333933,-70.6804580558516,-68.1405711483987,-76.3834252126544,-53.4040661261753,-58.0347944296003,-74.7578296087473,-71.4802236474285,-63.7216488184271,-53.1083384355225,-24.1653337206413,-44.0719048006962,-58.1513889307818,-45.9255584431229,-81.2248090803374,-38.5280879650667,-102.535251148147,-117.647660830324,-17.4265157028085,-107.504240420361,-91.2592091981352,-160.093236203477,-131.940642259302,-122.279459145499,-171.601073500593,-178.28912377202,-144.213537793221,-152.747631648375,-101.287403491805,-132.515341463579,-60.2333049180228,44.3333231784907,50.5416709173447,-78.7317592427555,-50.6576435971542,-9.41192530343698,39.1804316403871,-54.0204562296877,-61.945851769319,-19.9852775284417,-21.7492654457063,-7.37921271693044,-78.8129867209588,-89.6776078692615,-140.418833817289,-65.1776822605474,-53.4011907750633,-52.1700455290533,-51.2024707788973,-61.7115761134767,-73.502461394848,-50.878900336493,-57.9676075864227,-75.7285559084791,-54.0205506359148,-53.7522193872163,-67.7933757333425,-54.8588032205852,-80.1011742275396,-56.6135437648151,-63.262793448628,-55.5758856729435,-63.1320109275423,-43.6540452737092
-92.9742856258461,-142.918852267833,-125.464230296264,-141.372171519242,-123.372544705685,-93.8191461013292,-138.826505378395,-149.218435348604,-115.961170484756,-116.949436000647,-93.5783992553807,-86.0773410932942,-120.464202635361,-116.623986573976,-129.347758543682,-104.19944947374,-137.988174138773,-197.926423906705,-103.784345049793,-172.284596211524,-180.981561311752,-224.631017980958,-246.93839885699,-230.850895614484,-336.212955635859,-307.868540726773,-287.566852701539,-310.689984866069,-200.281549077527,-268.073907201929,-167.160039495293,-25.9937858053098,31.0034440425687,-158.353647003343,-143.389341183556,-90.5572672791543,25.480641321752,-87.7873450082201,-121.932006165742,-81.0955081725121,-70.1337617635649,0.0105730039939242,-189.497407184956,-174.644769101631,-300.846139240791,-128.863085148975,-127.24744499629,-129.108684700197,-115.141152284649,-139.004670406364,-141.654251688834,-123.215621985739,-121.836188813845,-146.144809111839,-129.6637188741,-126.827064104791,-128.820438467675,-127.470697374864,-144.289536238783,-121.510525628339,-133.808425848878,-130.075407738352,-130.321710847357,-117.635691886507
-116.998871294908,-164.852550995799,-145.396614595492,-170.809498817898,-157.132922502777,-102.451515452229,-162.447394750951,-181.791649007152,-135.096744125867,-138.205238644526,-120.680118660297,-99.5896352140572,-144.152292684404,-147.653625816762,-146.185338873235,-126.560362769145,-140.471009997305,-231.703972010952,-143.689826041692,-203.509585348342,-218.829335703762,-247.354210853029,-304.034296743468,-268.735568033757,-429.232506407653,-373.864403793885,-382.17077522277,-416.71630947362,-260.325407578742,-365.421862853471,-267.761277412848,-123.725118433231,1.07347614575139,-217.850892291594,-234.969607409232,-184.978574603205,-40.8676211050161,-103.160897785048,-171.607918420762,-152.266181979025,-111.163901583221,-39.4160311422459,-233.069305392021,-179.548350199339,-376.080116956535,-153.405988173125,-154.773352230935,-163.335352238525,-141.330393402698,-169.511830582914,-168.027825203213,-151.698835874585,-147.564540795515,-175.356388464978,-159.758580610795,-157.757272812265,-151.55992340814,-155.495894915547,-170.472280087619,-147.128734139153,-161.286513265032,-166.011593770661,-157.994616942991,-154.320909632325
-83.0144624002446,-119.179424215887,-107.996575170206,-132.786700112973,-124.33148676214,-74.1874348468088,-118.926155830651,-135.282857923272,-100.564635527956,-98.8879433337444,-89.6786974399259,-68.7587220740885,-105.906115587425,-111.427101633469,-111.759069637169,-91.4706361953486,-104.972530035829,-189.071630566157,-105.380234411151,-176.334384052374,-175.921983591818,-213.402078876743,-259.073785751553,-214.463209622652,-379.853003927506,-328.861365659781,-358.540188199219,-386.683141185704,-264.428264008479,-353.118656558706,-297.286071305081,-194.272414177373,-30.0482125493455,-213.191105103143,-255.771421181247,-228.96467426619,-114.880107627509,-90.3522026292331,-174.212358321093,-166.259710829631,-108.429395584363,-108.022067698869,-143.642998555402,-68.8890655408592,-274.726248644599,-114.608055420971,-109.10144934517,-120.917871161771,-103.312419513101,-119.889057608581,-123.735734386468,-108.82994713127,-112.30688785146,-133.931159859439,-115.261056435136,-115.777336862724,-112.063570275719,-114.191698475727,-130.327097868493,-104.908584994664,-121.129580899848,-125.851735548769,-118.641281503788,-114.880955089399
-33.1551879916943,-60.8558209088377,-57.5466750209751,-72.6875965012517,-69.0984513920639,-35.5361331207901,-59.9404340370633,-66.3466026787641,-50.6414638237042,-45.3130085674907,-43.1348977310981,-28.0064486169098,-47.3881623614954,-49.7744571362386,-61.2876853520878,-31.2000320154598,-66.8752446103506,-115.297004769519,-33.8815794822785,-118.176160195535,-95.759167763802,-156.947449826783,-159.734110354078,-122.027386305927,-250.906966793499,-218.70042093734,-262.355341108932,-262.435495933357,-234.795189964383,-267.458079910622,-247.199908088877,-214.064310038108,-80.7455606427171,-165.440431448329,-206.557013879447,-211.596433016405,-157.60828351308,-78.1651356988638,-143.038129154232,-119.563872602546,-79.9547798391817,-159.422374310445,2.0681492258299,65.2661179840035,-69.6585598399179,-60.8086268993603,-47.0202941271545,-54.6829696885367,-48.2561281845144,-47.094954797044,-63.1726009227095,-45.912988277644,-64.4989064287151,-73.0981173544779,-52.2397145789896,-54.0442572152007,-61.3746190031677,-58.4903249535211,-73.1814896179294,-48.7226401857541,-64.6355413430768,-59.7348087741935,-63.5380859719496,-51.4095495343208
-21.1377192620513,-42.7317403821389,-38.9606253116804,-49.1174127842947,-46.1955890109619,-21.9137550846821,-44.0841159866402,-41.7977633168418,-30.1799900041542,-22.6026454512804,-22.8409108295507,-8.67823003002272,-20.4850708215357,-20.1719454263467,-37.0972166732345,17.9524514071969,-54.2084464949304,-68.6098025714688,14.6681440710921,-72.6900704174919,-39.3975612285104,-111.472605765399,-84.1343985478946,-63.9861960723213,-144.052564714986,-134.047853786725,-171.174802836247,-152.409279646945,-215.007057564844,-181.679538798022,-179.420596070066,-205.342071420686,-150.550679633212,-122.16000877227,-149.771482242306,-178.545822798998,-171.949009234809,-88.2631158280739,-115.077983739299,-79.0363802166348,-68.107539670475,-168.605831260759,74.7056280778897,108.592464579534,93.9024265763283,-46.2606067384232,-30.9727541736287,-34.5238755645075,-36.1587163439929,-25.7617717178562,-50.4275183462024,-28.0887460278406,-52.2361770620045,-55.3542095801188,-35.6407203746203,-38.7652435274131,-54.4609161535982,-46.5100947801163,-60.129487804999,-39.7213883320974,-50.0336981432412,-37.7346243516566,-49.4363417995262,-32.5287742130067
-29.1213281045815,-47.0855199373682,-35.2952871554449,-48.7075913774132,-41.7560297196914,-24.6891270255781,-51.879616376094,-44.169549537289,-26.4101695521773,-15.8207468453923,-17.2914383760525,5.56063513619933,-16.064104854615,-17.398738456361,-27.4994053182581,52.6867188470866,-46.3795743706953,-46.5268457110085,41.8645622716612,-45.4635684031083,-15.0416591980288,-77.6195825804975,-47.187350052311,-41.9195158322635,-80.5088716819118,-97.0194917653252,-105.085759565379,-87.1459726634248,-198.132687417783,-107.552906422815,-131.250408521903,-169.988877790795,-177.567973308626,-88.9279138304392,-109.559588033522,-143.677599744492,-154.088458622438,-86.3526837747538,-91.6383648191011,-71.9239638185751,-69.5674599440137,-138.974421093619,50.8846888674202,50.000315875244,156.178792934357,-59.1783598575297,-43.1907923563128,-49.756913563493,-50.865382771254,-40.9760522308932,-63.7238143539608,-41.1614742350358,-54.7253471539249,-63.8138081104227,-49.2251443077377,-53.6683250358545,-65.5842012517338,-54.9139234998873,-70.4899493738626,-52.7087650633469,-58.2138609869516,-46.3286935561856,-54.0047219719798,-42.8278643478605
-13.7462924602281,-33.8329119534444,-18.215537431884,-30.2899173589617,-19.5661178328221,-13.6145546474611,-37.460178473993,-26.8512222543048,-11.5867825393538,2.54202985710865,1.61185061343729,28.5336825097155,0.542038516087376,-2.03242730164925,-7.36677592464118,77.8650804269925,-25.8628811724299,-19.9136740551651,71.2731450753433,-20.3936782352393,9.18868851346444,-51.8722840592623,-14.9177411999736,-3.16850969125524,-33.6706809823931,-57.0761781615867,-55.188228553895,-29.6895136357127,-132.692970374325,-33.8184488609805,-88.5156561082271,-89.6716856662902,-126.942503704524,-50.6230451797908,-68.7936111848541,-92.537246517361,-103.128678380194,-53.6970728960227,-60.4706696492768,-70.3512861879233,-62.4662517720375,-104.189337526837,-1.25686902873603,-47.9390886477771,138.43007223645,-56.508652163375,-35.3700063742913,-46.4805859180874,-43.1661570012694,-36.9156643117264,-48.891450588989,-33.2447787913647,-35.7894921292558,-48.9205250743473,-41.8744553522415,-44.5512649328108,-47.2343897608087,-39.0987396440808,-52.0945413970705,-36.4212015757638,-44.0282117764085,-34.4259045367239,-33.7638241852103,-34.1648899330512
19.6161300617203,-2.84415228734829,5.95037611638042,5.21142634894461,13.9465003298251,11.7616292018807,-3.45735568894492,5.79831109854848,9.40749791165359,25.1613838544812,29.3372188178793,46.7430154548264,31.1435679446555,32.2290934852817,17.5831082868406,89.1587129704742,-3.66226209801566,14.4791199456791,98.6080881786174,7.19074460226338,48.7263875093573,-29.0406261052689,27.4094716374354,63.7750571676642,7.53918442542534,7.79062094602111,-13.2190127115842,20.6217811663338,-23.6436479417239,21.9249863394957,-53.3637037370307,11.3227173160266,-53.7858842178085,-14.6968747857317,-32.1097547401283,-45.926313030394,-56.0003399554,-38.0710282237139,-31.7913465989357,-64.8242380018534,-60.8253815160231,-102.894954310176,-37.6755323147944,-136.201481276102,64.8697473486222,-31.1029456878476,-9.57848794846855,-17.8779292725295,-16.1325943642855,-12.3955484131276,-11.4784470519867,-4.8996113503038,-6.03609293779561,-15.3944722060527,-13.3491284223132,-11.5459527340092,-10.7871531713647,-11.0562401982068,-10.5927577690304,0.294831697623183,-13.340708380533,-5.51967485483467,0.433772975145503,-9.62169702061402
50.4996273946413,31.4836168278512,30.4825336129736,39.2406763691033,42.2121713865123,38.6428899361124,29.8295512049181,32.3851661757856,32.0428550545821,45.7072255093879,53.8701302902718,61.3357692923179,61.3283694572951,66.7116362352652,43.9975522997878,98.8975770436828,19.5054799938235,54.4423062859431,117.034284442165,40.1443118454363,93.9177988134008,9.60825131595435,74.8275210487424,127.479811550386,55.1736879914195,71.8099579234592,35.963509800239,48.9375024745734,63.4388207275512,61.1412046855447,-37.5712634490074,75.4098838706718,-5.97180824515644,13.2771727426814,-6.27473643126549,-23.8154778195598,-36.0361458447579,-56.6581903770489,-9.49505496607098,-60.1518878481208,-74.4750334822215,-117.462712446196,-61.5936754166089,-188.652610848679,-26.6109235118655,-3.15465883329632,8.35481537331967,11.0439394364807,5.08978034716729,9.42395235273755,17.7545674561801,18.2083508163171,15.2834995657633,10.0220572139823,9.9516607189618,15.7713351595798,17.148801632233,9.47782212261486,23.1549440266839,30.4309033960857,11.8595861986717,16.2915744876688,27.6135500038306,12.4976847370415
86.6221094902856,68.7825113142114,62.7297532397391,73.4549701553629,71.4822390674699,70.2988151172991,65.6568970111812,61.399169365227,66.9750906125519,78.1916828786924,83.2295209094035,86.6669184282002,91.762452768209,95.7540527055353,82.8830659869378,130.679192467685,54.6455578474998,106.158349717303,140.936810329287,87.6749661427499,139.108429469889,70.5977020526259,133.394019242916,178.507871220889,131.607772098453,131.866175074427,103.723638271464,96.0746352755572,107.382832227516,123.460594961866,-4.64870423124349,81.5119596839323,27.6468687620658,51.8213276462738,34.6865750110617,0.0294231738841919,-23.7542880797639,-58.9981837336231,24.5776436356249,-39.9444156650749,-75.2012766425102,-100.996686791936,-77.469216927349,-189.399957154011,-73.1984702199866,23.4714484711009,23.550206414505,38.3514139396855,28.849527268441,35.4251231696967,43.709128188137,43.028121203971,41.7558955041789,39.1312966105394,32.1871740582868,40.8613871459476,49.1642815870207,40.263991568307,55.5577668365255,62.4675406610587,40.4818653254363,43.2076446100223,59.0448715106049,44.9330269127886
140.960859118738,115.003608891173,108.817376261489,120.198621188307,114.377208332219,115.146638804584,116.242342390771,111.849149148188,119.46409144598,130.305597222705,128.815289103549,127.773394412179,135.711853509159,133.329299405331,135.785203917334,189.403798080471,111.667861328078,169.827944782766,186.715445209436,157.793316370532,196.453669080076,154.355152457238,215.059029313593,235.222744021699,243.956357630262,215.852680577485,203.583446323393,205.220770524266,160.174071948191,228.614375390071,91.4148094464397,83.3114509000545,57.3443102181587,118.605951493419,113.372049991761,58.6355281945653,5.58196092902384,-18.6445806829589,86.2277476935945,14.8673899234542,-38.3519712948855,-48.2852227532737,-65.7169798176917,-141.166122377437,-41.5864769457268,70.644996274162,62.4146720326209,80.3463834411821,77.2525933317482,83.6452175421539,90.7511314700788,88.7511359496238,95.6963636988604,95.1072167989195,77.2991345691227,86.7408826921671,107.766182226535,94.5744054783173,111.113583601072,114.506550240976,91.3334129110191,95.4456747875639,109.599194573168,101.665344960669
205.722304704236,174.535160729722,169.040339191979,179.830243770426,173.17059783874,169.430099296515,180.711102910577,180.690551386721,182.191333609389,192.530581016974,184.934394557324,184.16765656023,195.404180154908,188.599030835702,197.420154552385,257.231658987121,195.872908339369,239.869403509524,248.171360382402,246.252904606149,270.689422831394,271.663809170709,310.666793649415,301.09503901432,366.581850902347,315.421535032906,345.902680623233,334.139705342725,249.512936347782,348.33278330165,221.594357149161,141.903521903774,82.078279469746,206.773474165213,211.213259650621,147.339515539706,61.1203568878817,39.4626751705938,169.676582934459,98.0152660343905,29.084558184507,22.0299256522208,-6.228573736644,-61.956460620781,44.5036591476124,151.115560381045,132.364975355054,144.220254306799,147.990846648107,151.072722699962,164.297725969334,150.864834013614,173.630712514921,168.385447499225,147.630428228309,152.308125166292,184.394662891176,156.628961591904,184.01595084989,179.468874509979,158.255306133186,162.899659096716,176.08973041754,168.868579253391
251.789769049409,229.196469437094,222.199167981798,229.729691017737,225.914847100573,209.94534316909,233.474780345149,237.896708670147,228.455943896626,238.744117396887,224.319309992272,234.368026684525,243.038904905092,238.260122993716,253.071280852931,299.822746674086,276.006724195983,298.216969242721,287.697753828905,321.983213704182,329.061029492157,392.020998634858,379.198138554297,344.794383153325,445.748209455364,373.083492700834,483.290646667755,400.767397880533,317.981999911708,429.405794607607,304.038086096805,219.955330767202,106.477270990072,279.499482040386,281.332599216275,222.265566709518,122.332148859121,85.7972570491245,239.651034873816,171.178490812346,95.4035491646969,92.4714512947337,72.4971812989334,16.8539665091507,131.107467998398,230.387246108806,201.468955830956,210.851042090955,208.205907834754,206.988374419761,235.246418051658,200.571169550903,239.703464567655,225.456322107012,210.011276084341,206.105149111748,242.73809937936,202.867794642412,237.275080611532,227.474325015488,208.996926860342,214.382733521853,234.859226160186,215.919676853058
258.292668430206,247.785824821843,239.795282451946,246.099476658203,244.151800710846,218.482989733393,248.050770277875,257.812194611095,236.526795431855,247.143526414814,227.848141366215,248.217182837932,252.147000899968,251.911584090124,278.527227704785,294.890144187067,302.182910675338,319.583940724157,276.97853645403,348.130594125908,335.325046797745,443.510402497255,386.590183358446,337.555936838748,448.721885798478,359.864848827473,535.44986838865,389.953790252838,311.969339875927,438.265857889934,306.886895538488,238.348772272746,124.601767115001,301.983039607358,295.009423822204,245.671502758505,152.288155834741,110.150262411866,262.374931083924,196.343215613779,126.753265293279,138.144793884357,116.130462923614,64.6597612300582,181.166670431099,262.725210060785,233.168630772053,248.192815749161,229.990608928197,226.684560292573,268.319548137202,216.625812188354,263.916578109181,248.789442369962,234.37663325816,225.689268224455,259.443498415405,223.117694539196,253.396255371689,242.21679879734,227.271456359406,234.333281450993,261.348923270571,229.327727841453
240.164312681607,234.433457662108,229.33133675197,233.433538499676,233.488627017096,208.415071699215,235.776594095965,247.085462811326,221.370792177553,227.916308636612,209.581811086461,231.036704411085,235.120459310671,233.985248649551,266.696007722461,256.689635566634,274.659084091577,299.133696892527,232.111249881466,319.683081857701,295.370628110183,405.287883724513,340.416956414481,287.257394889339,394.141901818654,303.646568622755,487.601496588211,339.757534870068,260.915661593425,388.358356537038,266.165915375516,204.981864366863,124.603611782185,285.775325683556,266.903800202384,225.873090427503,146.271457413955,120.275050139625,244.960955966559,178.774946992467,117.024569217855,147.955264816612,113.928831315234,78.604243406076,199.054681075962,251.918150080502,229.890322131514,248.598964944528,222.710211612469,223.480070882465,264.902217308173,211.858370931568,260.013402281718,250.913710534608,230.523576298827,222.343601363541,249.666599211723,223.992311630519,254.856579770443,240.567334967514,231.402027297571,235.715356497796,260.428104666792,226.060705918157
209.879577544912,206.527888595961,207.279256804083,201.883417414613,206.29982701218,184.633927780979,211.474651050849,213.401932138412,192.087888259994,191.168542949473,174.752343788277,192.991352354956,202.097698451254,194.107764816569,219.768948931505,191.591917162077,220.630951732202,240.265922896073,162.052896067706,245.498411333115,219.744951477095,311.031160656641,249.444050465781,203.232540947217,292.760861674355,215.667299675144,375.59663046258,249.773051198065,199.639689484312,297.741297724315,200.024160764282,162.510510355482,98.8117194440454,248.490208752679,211.49500797463,179.012842184622,117.266676688424,115.947678142079,200.561375982432,135.178131044272,75.6899051625117,127.328064977741,77.1925113687598,61.2757298068327,192.843495558728,219.093104961679,202.255404122896,219.743154460634,198.106437485287,207.270196344375,238.814913479442,195.958609488077,243.062902959491,234.746909317599,209.974154261756,202.412663135118,227.089743225255,203.601489629692,245.583235908662,226.229019687166,222.342828093079,220.802237419096,239.112500281293,210.123885417816
155.264279919015,155.45896348946,162.764954425985,148.607558837227,150.729613467373,130.547545123723,160.536542621978,150.083635187175,133.911351564525,127.619784918726,108.109007537689,122.872567884495,136.689559144284,125.065613108052,139.486707588148,85.8851806267709,143.546780470282,145.857334294884,53.8397056159792,132.928395529694,104.809630021013,184.355651206593,111.444874603858,84.4459371420391,131.473292749456,82.8015544789711,218.739502275949,102.774013521861,114.821210645822,165.962339375785,95.9634528440896,105.649159106093,51.4885593320008,172.849208364138,120.378540867992,104.97991647386,67.1357125848029,89.0578156424061,124.483133044101,61.0758360122916,10.6372071538092,85.8325745896627,5.90024551986874,9.54371662146233,156.834465578156,162.361015743014,144.73959876894,163.403740339399,147.574328615843,161.894511553697,187.015673738148,152.048077129147,198.996811481604,186.203611110245,161.658408002129,153.480878447346,181.043618784761,150.528187686855,198.76714466071,176.477682989034,177.83034212664,172.807353843509,186.256862931742,163.785052822961
84.7127015526742,86.0518436578624,97.487407941207,84.4273361818888,73.9986611599381,63.1074955770751,86.4978667167659,75.5513759843255,61.4021205090117,51.5061890289391,29.1910966921217,39.1691625027112,51.3235034647303,43.1146577501329,53.822714671891,-32.1441525940348,58.1816547039437,46.4133611026845,-62.5610580195125,15.8472472541592,-15.2933360267349,51.4670648347609,-32.6957396701106,-35.491363229202,-46.3551392168049,-56.790763645944,45.1692297710115,-51.6118432730117,16.6906737548288,23.2286587997145,-15.4494759656848,38.1876191298753,10.6665873911044,66.5876213140938,12.3285214398288,26.5768102584786,12.5041645270781,55.9270714895432,35.290147805092,-27.2874747523896,-50.8723432588891,44.7934348683161,-69.274581375032,-46.3347856797461,109.763232424203,92.4736855136942,72.4050824590782,95.427631518398,78.833358109064,92.4263151990099,119.308148123121,83.7092465011555,132.926035018443,117.625770964159,93.5776278473128,85.5038952050285,116.742071699536,80.1191929673555,124.86090944288,101.864917064496,110.603582337117,101.074890092576,113.203055269393,96.4680606159515
34.6725561577836,37.4913227474294,47.2672117977432,37.9068385287945,17.7648076045785,25.6642363264337,29.777709489717,28.7507820518725,14.5212080231055,3.003364365594,-17.2691713114684,-9.88272067131179,-3.61196847490926,-9.86089458858157,6.18908382684361,-100.521221324152,6.3839282960788,-13.269915507315,-126.784712916042,-53.7674530772307,-80.5013236091688,-37.1707151797881,-114.213729931757,-101.363547676993,-143.571645403172,-131.017057766523,-81.3150623673163,-132.128876685048,-44.1574998160119,-68.4565207273788,-72.5368678378812,-2.293693400903,0.573686902584725,-12.44537121093,-57.3736599445562,-16.1615552235507,-17.1042176327257,41.0163605712894,-23.8617200577598,-83.1783099801565,-75.3728443419686,20.4395518854338,-100.423134732837,-65.7570429757483,84.9447644133339,43.2619653539641,19.0170973688153,46.0793819974569,23.1066196699007,34.8937262964641,68.1790714220169,28.3768147706567,81.7413617793627,65.7983153250072,39.8134331389552,32.0225931808994,65.2821713641242,30.3327759950035,72.5528450065216,49.1933837255143,60.2741580345035,44.0361226760183,59.9469431152946,43.0397542698203
15.4759937178814,23.4987598202318,29.1483502940713,17.1480052288128,-1.51350242758017,18.2931231050481,10.0250566267087,12.3003875229502,-1.66446833940121,-11.2648051994111,-31.3022351116716,-19.560585186222,-15.0341435878143,-24.9656217554951,-0.683672424564589,-112.850135568372,-5.39971504798615,-29.4046206370945,-136.42944112214,-66.2274436677474,-88.1991401997989,-64.4262569116481,-124.206076763084,-111.39903579152,-138.507482196878,-134.139158564318,-128.497263519257,-134.637274488197,-57.982684584028,-91.810397814345,-76.1948092356237,-14.8396594528826,-2.36894907584286,-39.2369374033545,-71.208711386503,-24.1136189803595,-25.203386024074,34.0351096735557,-42.051842743886,-92.7666941951007,-73.7741904285278,3.28994258970561,-98.8486908652872,-64.5539800618542,75.5772899095694,24.4047764289856,-9.29893523075916,24.4275901692961,-5.26601879275133,6.49147657559473,48.1602559993833,2.58370110526118,60.0924410105008,42.0495824522744,12.5714576319453,3.31401135387914,39.2553662318071,8.90779783276733,53.7786684789414,29.3598724447494,32.9496382012068,14.6299428857488,40.6167835774128,14.9210559669206
-7.01826788193692,5.68215708116182,13.7040539733646,-4.7830460028686,-16.8051899695718,-2.15211191237564,-1.19002272450543,-9.06291353742863,-20.705402731699,-29.9050199979028,-53.1996720907078,-33.0846912769471,-28.8107681995016,-39.3269717351618,-10.3018183295323,-124.871168013872,-21.401568441344,-42.3955195390415,-146.64665847736,-69.0594310958488,-94.8978226543691,-75.8665838547666,-120.646279588397,-120.105320811644,-119.133384056077,-129.000398343533,-142.083445970882,-128.367681309446,-71.3468553244732,-95.5614894752383,-88.1806001855806,-44.0211881634239,-48.8222972130059,-57.8107581811962,-79.2022743875204,-41.1815139556488,-51.7971912920844,3.02749459129485,-57.1271293008106,-98.9658527578652,-87.5404065807005,-21.6648404653239,-113.597142085578,-84.4896814519496,47.9248279108736,12.9761942289813,-32.9701290066135,12.379866311802,-25.9885511718719,-14.5446666954582,35.0129850170617,-19.9442465722703,40.8210731489246,20.6130086571494,-11.5350965425729,-23.4720646790593,16.011560305914,-15.6490382110839,32.697264690169,6.31029235370974,1.77301485609967,-14.7387915979573,23.400793471032,-8.65275741687319
-40.9172098830935,-24.0016376435698,-8.0824235167356,-31.1649279195755,-37.6216109697053,-34.4569633594022,-17.7057768832613,-33.9880627063002,-44.0916146702717,-57.0577954705202,-80.3409884361894,-54.0290598931628,-56.4493587588521,-59.3630156410747,-30.8882772405064,-145.989908129741,-48.5892329043772,-58.9256796362342,-166.003594897522,-82.0330866134554,-111.873848399526,-92.1018590365055,-120.992438994359,-137.344369745382,-125.310610564868,-130.547266236238,-153.449442895381,-129.933180082721,-89.7732359064884,-102.874486270891,-113.221023168636,-87.0446329684344,-126.589893262737,-86.8126089486886,-103.502126354346,-71.8164269210695,-98.2464826483887,-39.8417079733377,-80.6657716035259,-120.138204692257,-111.177088049158,-41.1985502441643,-137.188490011483,-105.867150103396,16.9319018816121,6.90568355350228,-46.9860316584878,7.96027817446092,-42.0654001661263,-31.167611330784,19.6520344745331,-42.8387317839421,16.5602899043039,1.2325840380247,-32.0988914228074,-44.8725204133044,-5.65149575487169,-41.0266409052034,6.73009223299634,-18.7653603106212,-25.7060968720651,-40.715493962747,-0.115776274960274,-27.4981036254876
-42.6766487839352,-17.4967638559103,-1.65815778300826,-23.3034254911705,-27.0811555724235,-29.5457318294979,-11.2779895795561,-22.7619962718031,-31.8726141472524,-50.1259503854841,-69.0224356383607,-43.5213594815247,-50.959254666353,-46.5113098076266,-20.2802496725594,-129.179019847768,-41.3668560533479,-40.3725423412568,-149.351805674032,-68.4071520192596,-93.8905363007116,-77.728256219042,-83.9797653440322,-115.30539415148,-96.1359915974067,-91.64526439031,-126.999646539769,-91.7330078920339,-61.3843771895834,-79.4720075650181,-91.6069309367866,-83.7258055186801,-160.173170088695,-81.7603264409264,-95.7202889397724,-65.7110168593116,-109.065812242152,-44.0375009578563,-70.8932182258895,-111.5975384791,-97.4778622893932,-29.0930738670003,-121.836178060227,-78.7561834840873,32.5899171536228,29.856818372986,-23.3446298262606,31.4993720717509,-18.6883884213018,-9.23989976495868,32.8794485896716,-26.363654324888,21.3525413807019,20.1717091239006,-13.8542362516838,-23.3711445130569,9.38953964673397,-23.1871603471755,16.4132036284273,-3.38421949573559,-10.1471415593842,-21.1091239840678,7.70212636880581,-11.4860603882269
-4.21432320200624,31.1510730381123,33.7449274446329,22.2595911760188,16.9000993781697,10.5886957446376,23.6068270211834,20.3287460980067,12.9081539718038,-9.03954866385561,-22.4802121609897,-7.91011543847464,-7.26474016913205,-3.07756178666585,19.5596614935985,-81.9968389819265,-1.35066951460953,8.74021484379207,-100.322683158974,-26.8477700344128,-43.1949118428497,-35.6489247456087,-18.7786102430106,-55.173087932501,-24.1724808756633,-18.2642170491527,-61.4636564596584,-21.050579475408,16.8209699259122,-21.5171519432304,-21.7964424392358,-24.2970853530708,-125.516085624069,-29.8832873985723,-36.8616955299557,-9.9659775879867,-63.1347412369223,-1.10881208774677,-19.0655760970059,-53.2103223115937,-42.9610694303765,12.3466102716445,-67.9359025218451,-15.6802454563167,91.2521714997757,75.4694377205864,32.228107119389,76.4026307449666,46.9974908659863,50.4625886603238,78.3680166304943,33.4107211868833,59.6889045119476,71.0042666371165,39.1974588719318,36.9405298008845,57.066714304669,34.7446108153816,59.4327147135168,43.4614502292631,40.9791650720994,36.0160294143933,48.742639148721,34.3312274007206
27.8203401402291,72.0855634261099,60.4053699145273,62.775036117191,53.1001624520876,37.8632508185737,56.286302677985,55.0626109958392,42.5009596418818,25.6448515458534,17.6173273274436,13.9904526782697,28.9312081707491,29.7484332394192,40.6349888233628,-54.8397270426149,19.4984106326759,44.2260641697867,-62.9849158281034,-2.16021862899213,-5.8881766966787,-12.1914562992433,17.741583394597,-6.87141925122861,19.9796778651733,32.5734745353142,-14.3113658976952,27.7789973063406,90.1111029066932,28.8980314525338,37.8958791330166,39.0041222800501,-64.0233065166959,22.5896098356766,26.7896449643434,54.407835867031,5.00696781548395,58.5146261439119,30.2887205839309,13.8118125853737,15.2134668370578,64.4057887152324,-13.5981521954757,38.1370524312055,149.386593518969,110.603242238836,85.3469114859258,111.500139373828,106.680560111067,104.82292087267,117.432863453048,91.1377526801443,92.8917311107159,107.648656791018,84.1680464272255,90.7333518161471,90.7568530685217,83.1517761207727,92.2398317875148,75.6704784018192,83.2602644292691,82.7423037069779,81.0141746563132,71.7845956563211
27.1878279263823,78.700052701998,62.7383455535012,71.9038098649806,61.6415765513795,36.332053260665,67.0088456451786,67.0527843312677,41.5031610653932,36.7705596383623,33.8431898694802,14.7917560611903,37.9860211498241,39.2782225290577,30.4032919066749,-51.8031397840665,5.16018201746663,53.8471940196621,-44.9035114889839,-5.88814736271084,5.59844186502173,-17.0874196895095,13.3778590661091,11.3577481078258,14.4067322016962,44.0401628579493,-9.4286895818878,39.5565619583135,123.213330444646,46.8868726591543,56.5842564172761,70.4550994450529,-6.44509729043087,37.8815338052611,52.4045159716355,90.7540080434169,59.0515660373744,110.646973197647,44.5669420759938,46.4007449639906,55.8942531132305,111.181634315324,23.0786346863899,70.7878700197544,186.622162011449,117.93867531771,110.771091376404,122.096890809047,122.189110511327,124.251212466193,120.8902595332,112.694284263793,94.8103174863683,110.88093133643,99.1909965439981,111.140118990979,91.4124797209916,95.0618333349986,93.8917790373662,80.6631954493035,96.6237218300807,99.8117510697677,84.7534712091315,83.4408856688688
20.4170467703875,74.0593211883103,59.1862854227999,67.7968871556864,62.3494285754657,31.4820418665158,66.9109634804916,74.3949368754978,39.5955698972333,39.8683453962683,41.0128098655418,17.0543884616937,40.4132115403328,46.7718542611306,23.2591374119747,-39.69199212406,-6.29587807223174,62.4134333027918,-21.5857691705236,-2.13484915320663,16.187010985475,-15.2227150525665,7.2723287220035,21.2087432030503,8.38054345640793,44.1092236913958,-10.21677641711,37.3518017614194,124.89478409802,51.4895422955857,51.1137855882682,82.0120562487755,52.5064021620316,31.1750489883868,50.5282876170217,100.354957144084,91.0751209728246,148.267423868263,38.8067509568729,50.1852449322026,81.5058979756112,142.99793920303,51.8985669091717,94.2302382178812,207.0740329506,107.693739492711,107.479502256981,118.288522932658,106.807396669463,117.244096009012,100.816497728177,106.151043264596,79.8729713079316,99.7484956797608,97.7440666314835,106.520252178754,83.5906895841291,86.6713045966303,79.9793579732886,77.3540894392019,93.2626423585692,97.6330314421189,78.6601288177568,83.5417306365846
27.1803480590035,77.784667106291,60.7580049487363,71.5911157895097,67.4499617441324,35.0413957558875,67.8405340932041,83.5905656094263,47.5150163150265,45.5934218896427,50.0547368181833,27.1868096747292,46.4367615557098,59.7465776707065,34.9253723584569,-17.5229686875133,5.99104151642689,79.6248452445778,6.57825311005313,19.6353854291563,34.2325618227868,4.54149261630473,19.0672839506992,33.6915693671399,21.8858995684521,45.4344999077478,6.18774889461866,32.3336493900202,113.786068668246,62.779564644465,46.4197263780139,93.8840996181106,121.222514111758,31.5802420931502,52.5901052249431,106.282661650634,114.735635115312,176.311083178946,40.5371208636897,55.4883964789988,97.4019566617747,164.248629352666,74.4097302425968,106.207305161986,210.966697166612,88.8219806700299,89.1541898718,103.105434887543,90.0530151000583,105.073144210602,81.9767774280763,93.4514059945018,66.5118068566544,88.49978386625,91.4999120311072,91.2009438228688,78.8424639064495,78.8387850404935,64.9738215545566,72.6108076622594,82.2486002112798,84.6500812001156,73.1632613627883,81.8775777656945
4.08546382867213,54.6573356054752,33.9226691435821,51.4226920638846,42.770260546816,9.08311138879563,44.1330665960387,58.2583936707162,24.6158054262889,24.0167298325759,31.8886802565088,9.17729996352951,22.718306672411,41.5927110950065,22.3841157667633,-31.9827966409903,-2.54915340884838,66.5410969888705,-3.64895736813074,6.66482709571206,20.5775615564155,-6.85874284718051,7.86127091395004,16.4263852275972,-3.53691625672123,19.0313750795808,-5.20105108042458,-3.95281371401809,73.6847080732118,43.2080913851455,25.0260776505751,75.4340254291483,168.00762495441,12.7297505246085,36.7727793219603,91.8528575674412,119.45517523527,180.300843962959,28.7967765393106,46.8752451081886,90.1055723125324,168.155268124234,62.1689568175199,80.9107048368073,181.968186285164,44.1933423744948,53.6030052424619,53.6169819064485,58.4223121101005,74.4458270723459,45.5628646689931,61.2098309371359,27.7134283329266,49.7718411989798,54.9408051173486,52.1677373914211,40.2259463446599,48.4937072709335,23.6573124832183,35.9826798762231,42.9226385772207,45.5725396796342,35.0386635005497,50.5227720056196
-67.2833541026778,-12.5397333544148,-32.0240596450063,-11.7094981047616,-21.2231642641916,-54.78370458113,-13.5887959752691,-8.14917597548508,-35.773118889942,-35.1577189266694,-26.5476150593066,-43.9255721244475,-38.2352229468997,-19.3617762875213,-30.9741337023744,-86.0099129602108,-51.1439165311321,10.4078700592755,-56.2893487319093,-52.9482579877302,-36.3128803455787,-60.2627654754311,-45.3436651462859,-37.6065889479472,-86.3136419673573,-37.1340029889923,-67.6212992026238,-80.5065293247952,-1.00721346428424,-32.7850946006872,-34.2246118310206,-1.82285255047686,165.402318585206,-45.6945155104722,-25.3193944595222,30.1194221575421,86.6332119877703,149.679593072575,-18.6184755274153,-0.694563514526976,51.2404230166613,136.942790670346,15.9121944473134,26.6057215727261,128.579716811121,-19.9284183600748,2.3177170835803,-21.6917171195385,2.8744772125466,15.8312545847017,-21.5559372396846,0.782822587168071,-46.5985234312245,-20.6317383871247,-13.8442607003194,-7.26585651844623,-36.9174808876429,-16.9423014165435,-48.7922872190416,-36.0455223031403,-22.4930169194178,-16.6344314421027,-41.1029557978212,-15.7142184688103
-136.65174716614,-84.2841958014538,-94.3653219111627,-79.0721962847025,-86.3375678061647,-108.709270453905,-72.4190267105698,-72.0697781228134,-88.3755348466833,-94.4773003034829,-93.4674399813959,-90.9350512630331,-95.5973050690047,-84.6932423682516,-81.1822434860637,-130.050999078567,-91.9292182197548,-45.77089922141,-107.004245969466,-101.096155554485,-93.6863444246092,-95.3187991778469,-100.215610476023,-87.1431299916843,-158.065028409422,-87.507249496971,-132.086866071675,-159.187685180946,-76.1331887445651,-119.633084717393,-109.606184845669,-99.4996480851747,120.646548733669,-104.629627368215,-104.258917910681,-54.4153172445257,25.4546048180078,93.8002780321205,-77.6269852875725,-66.6895627939392,-7.69127124168355,66.6989674255302,-30.7591933449196,-21.8486485614556,73.5550471432975,-77.008675960938,-54.0750954407591,-87.6853898162028,-55.7589679997922,-51.4368999947353,-91.5697682043384,-68.3926868136857,-119.541964947655,-86.3295473103368,-79.8657826454432,-63.5778340710136,-108.144240481533,-86.9946330632242,-114.910167190705,-104.446936792496,-85.7266957089411,-77.41455149455,-112.118030547179,-82.0914930070338
-195.606518842072,-154.586953803514,-148.084916826043,-143.259188874827,-155.277306012001,-149.624927325464,-130.596337812881,-134.122075315162,-135.634153910132,-150.638207434344,-164.432597019955,-131.256694132812,-148.264831251787,-150.416261792376,-121.916237390294,-170.669277086555,-113.9164646717,-99.5317659490181,-164.851655656966,-133.706852015176,-150.399585616716,-106.77511348877,-154.427161573069,-140.284483104059,-203.203794718815,-149.388652835982,-177.128858523867,-229.277764796501,-156.543587531498,-187.860087911596,-186.835025247476,-176.858992274732,27.0099969205383,-147.75338081848,-174.620049466938,-136.981206534256,-55.3576750002326,-2.215941104751,-135.257705451688,-136.69614572447,-84.6218515925879,-30.1037569507313,-91.2690277670663,-86.1151406539953,-14.0073733901175,-148.955833100912,-134.590422983767,-160.640506627418,-135.839665913607,-139.251993139204,-168.638188767253,-157.322046640663,-194.270510551401,-160.972464616154,-157.515931973288,-141.385963562116,-178.042949708408,-163.897007440541,-180.593844207178,-174.196489920083,-162.542863692943,-155.294794610497,-178.65396392562,-156.340564199589
-265.132576162546,-233.88436874124,-209.659724494159,-219.708417330365,-239.639077857983,-198.34132293313,-199.189725450768,-211.296441556086,-198.573540220309,-216.818935519174,-241.801583373916,-179.512256211893,-212.007206834403,-226.957350554364,-172.671436381415,-233.743738368082,-144.272767200313,-173.814401999691,-248.123935197958,-184.59880958019,-226.646842925186,-141.31210127784,-231.953442685628,-226.833158360862,-262.230227549968,-249.492315132403,-212.246769473748,-297.351964766211,-265.356013669248,-236.743573704652,-262.337399641328,-220.067108839579,-87.2606600209726,-181.428132852855,-226.356303139908,-207.149957531726,-125.342939534524,-120.563311711467,-181.495942283018,-199.881204792615,-163.20869570657,-104.327578801917,-185.209424699155,-184.049690052781,-157.598650694245,-251.322312337208,-242.487035851652,-258.648531637601,-249.048262831787,-252.938938729581,-264.391532613631,-268.627280081347,-283.305169651576,-262.946617650726,-261.757704279444,-251.688153292663,-264.62839645463,-256.651228990519,-261.215834846492,-261.113866205765,-259.620686611509,-259.689826012493,-256.712990451546,-251.219391966914
-306.491564555608,-281.115259267829,-247.823234174511,-272.410746939576,-290.1944457173,-224.87020481881,-244.690969713562,-264.091981680924,-240.412891466815,-259.091507026291,-282.593203933013,-205.418648129199,-253.607742662338,-274.612661841604,-206.454126365397,-278.652265654762,-172.45293323925,-234.677922931646,-299.362601764105,-226.045727540047,-280.729442046086,-184.767300885197,-292.285199082425,-298.692807679656,-304.557761421828,-328.80027705265,-211.20987030564,-325.666293452457,-354.389691814865,-239.610885084243,-303.83701762978,-209.882091759371,-123.873101060214,-183.126453265647,-229.829834781226,-232.004987350123,-125.872878838355,-170.318152094907,-182.673971707328,-215.318505969802,-191.752772448298,-99.8940566157164,-256.94911626096,-239.655473171783,-285.438035133808,-329.508306954681,-320.661087184295,-332.9057835508,-330.19024285798,-331.895423177406,-333.577637539245,-341.319661457128,-337.24002001073,-335.292459130062,-332.966525720016,-324.784646762224,-321.900296980579,-315.382171740222,-310.714422678635,-318.931034697521,-320.157847877822,-328.348253674095,-305.798003173073,-313.829141162898
-266.317008343057,-248.638632087714,-221.346954116152,-246.460908100916,-253.780838960251,-192.606613968256,-221.393646399079,-240.797394722315,-211.488959834187,-231.134501103181,-243.200090611976,-177.51430103147,-230.563755724301,-241.517740080333,-182.402416453832,-249.610389065561,-160.511020783753,-221.933231290491,-255.16139383539,-199.240147916185,-249.309441604972,-168.576699114642,-258.941321296469,-274.821837613158,-247.15369563252,-296.349995757943,-143.131221770915,-258.644889282381,-339.252370276236,-169.330820605702,-264.219681197878,-134.850595024751,-36.8302378981957,-132.733265613736,-166.055788181047,-182.151579270893,-48.5017231168793,-99.5941509222237,-126.426398433615,-153.973197095994,-130.568840520939,-28.1287190573129,-221.107792206972,-167.003983846483,-289.919213773526,-316.290713865429,-304.100244055036,-318.464342575043,-305.536905577806,-307.53019698837,-313.811480055244,-311.16044885798,-301.214651864594,-309.184573431763,-304.058568546135,-293.222708712983,-291.032509758584,-282.850649834323,-276.532725086511,-289.959443033673,-290.496289265491,-296.823279773466,-274.646447069783,-281.805204960456
-155.664853947889,-142.79466034934,-131.188207628347,-139.977112414526,-140.743708132822,-110.105968785639,-127.665393743728,-139.545023648029,-115.837581875421,-131.843971681424,-133.351288671104,-103.064074072535,-141.90945977476,-128.661590958497,-102.570361325407,-148.009352716206,-94.8665559969767,-126.520817747858,-132.175159729829,-97.0605191834443,-129.651443765251,-70.2571570763602,-119.530423336544,-144.570929894354,-81.7404640780565,-136.542700849158,-24.2399396268224,-91.7137388278066,-195.642024733055,-39.848165588181,-122.945939003299,-18.6212835255967,90.769514073833,-45.3755609767432,-50.7331746113909,-65.6248571583115,47.491620898938,30.8971139953572,-35.6473730215185,-33.8432889275533,-0.142928791070258,44.216624783408,-66.5702153242951,9.82434936765443,-150.060256499308,-205.402914577151,-189.712616148733,-206.943611469877,-180.78342224092,-181.413098446637,-193.342559733255,-185.794669169902,-180.742433608177,-183.601990264114,-176.721252460443,-169.863245069254,-173.009560298249,-164.841846710553,-162.495185169146,-176.488621287046,-174.271462963763,-175.178963257424,-164.688552713255,-160.065254207693
-51.9513448230538,-32.3004822330475,-35.9330036805029,-26.3228165460324,-27.5879514000942,-30.0301799905419,-29.471770904151,-26.8517794332179,-22.3110885890351,-28.7299088337854,-25.5329798368859,-31.1789798639766,-43.6515736088622,-14.4193206300308,-25.5991701957821,-43.7194354794895,-22.3200497622085,-19.9591965403015,-18.7385254913604,7.75507733431325,-2.17898945518301,31.0677641921202,32.2044302667052,7.81900239565455,83.041065581548,60.9534319819923,75.5243869520698,92.2600485527888,6.44344170174819,81.0959990589002,67.1319552789195,84.0714588672598,141.077087772096,26.0203973268828,67.0054744517051,66.0184080251735,99.1080563089465,108.693089656669,41.4317276147034,84.6945571849342,122.377297529521,67.9722381543603,108.990739536987,173.62650220579,31.1126937389002,-71.0293530445957,-57.2503281904363,-69.1272456601655,-46.7644815001756,-42.0138007804983,-46.6373255046281,-52.3390563125731,-48.3540386013857,-41.1721313293598,-33.8648670076854,-38.2643719627303,-42.1542006498989,-38.0295676212122,-36.0506870801937,-51.7266479770337,-40.7608770003199,-48.8792140989816,-44.9060604851896,-31.4373987469375
-9.40249791703561,23.3050815330549,6.76412281324706,27.2004798587463,23.6801557169451,6.26928157706688,12.6621259947538,30.1770653501095,13.2176380062926,14.6315439761622,21.4332446111098,-2.98940779618674,5.90728119682671,30.6867324718476,-0.135204608787153,2.27383782694759,5.75073934894038,28.9356552942356,26.4964136787386,48.8339797009924,58.6829873618802,59.8719604561704,105.061015735895,99.069339731717,150.946335481061,201.353107105167,102.666331510072,204.377495061157,175.769048702836,130.270125172994,215.861017086521,144.614863605658,107.736444912766,43.192732010211,140.457469455188,157.363670041297,107.693755034185,93.4269411198595,67.2843186831227,149.989353679048,183.32566356031,60.4924751625238,203.856556866421,244.886976777166,142.666987364746,11.8903426123926,15.1840983206165,19.7957711509005,22.7751304460195,30.112027121601,39.266403685931,16.6761899311119,26.6227557060228,36.9687520775338,42.4000853081659,32.9772531215498,33.342378608991,32.2950608710102,38.3584857787886,17.3811235594515,36.2438985787907,16.4157234263559,19.8108105221488,32.970480681469
4.7384609484279,42.4702790543947,17.09839855116,40.3545132131379,36.7923831305139,18.302049513915,23.338339218714,46.6294023030404,21.7585393949029,23.2690530554821,34.7504628195437,6.62773779440038,21.8611972540058,36.7448851342805,4.04577827292646,18.9529103313914,13.5671274891555,42.943008189914,44.0137230772762,57.6695404979296,79.1799681665229,58.4631604102123,127.252235334446,141.352558372168,157.541783495346,283.572399362337,90.2249189591621,254.86400547419,283.2408737562,129.101196178836,292.581305178956,181.417660111033,80.4199027975359,36.2510645606763,171.666860273529,201.33729398753,123.015892156549,50.54519613884,62.3741853484639,166.351520486573,200.150989027739,71.012663117386,214.201315839757,238.693974957883,172.682812765773,47.8617255992494,35.4567436932658,59.2628650978633,46.7707516462311,48.1749103527635,67.3332812501083,36.8260386641572,50.6615732737831,60.6887304958629,61.3947779932681,55.4834395343876,64.633351863493,60.2588407640927,68.6729627982054,41.3305993485445,60.5235696676814,42.678560494347,43.1793641656115,52.2995575303155
34.4629649541308,65.1914676618736,42.2155687257262,58.8014472465372,56.1946148861345,38.9357068898675,50.5377860219538,68.3535787745696,51.2817807702115,45.6929867281126,59.4330019433572,39.1030287566087,50.7064415006797,60.2588056596236,33.2965163852036,64.4585074316162,45.4685391315679,74.0029982946717,90.6275498549919,92.5170906275562,116.963595891949,96.3178754354972,167.633781136676,181.774000919143,185.903564133658,340.727339207573,100.822977148837,301.241810786995,337.056631026014,142.538853472508,325.452959417545,196.898819582227,88.7487513004859,52.5639028629486,189.206428542424,219.508088770695,151.202034976836,32.3336128622988,69.9317020457442,162.630330304108,197.048448460525,95.2630649746503,192.268261613127,191.495385877064,151.339711328666,73.7463884352239,47.7856306372083,82.2866314281341,63.5568945468425,55.5786785446769,83.996315452851,49.2496488275851,63.7590944210266,74.6557973744077,72.894321995542,69.2149990125649,87.6003304790195,80.4962906605093,88.0087355585483,57.111648542917,78.2085402120264,66.0277491365048,64.1528883135838,72.7801997574961
72.3450927670249,94.2560821874827,81.7312442277852,86.402176873109,83.1349008372954,69.8148209129359,92.6455761023023,100.344916267066,92.162159054268,80.9066011811934,92.9887906798727,90.0955000313539,95.517522312183,98.8645188916181,78.0644120285895,138.498528189846,91.8881488639243,123.549594371051,157.798087220285,146.878223266005,166.621145359014,159.978524394543,223.916346186909,217.908370637896,248.841142267068,367.510367273165,152.183057067911,357.855985514881,341.943664342078,194.72058693621,343.741812648317,181.511072956282,92.0875621960781,101.77445455381,211.948694091067,227.856025642245,160.943917721237,23.9710630798129,105.021409720296,160.786561240075,172.696400067996,87.3684082484774,175.623635032449,124.754776206219,87.0537977544952,103.860617013318,68.5662144030264,104.396631831072,81.1765352929209,67.8121797822382,106.125781279451,70.4868850938452,86.8027057821279,94.4699560287214,94.9577150342222,89.4168887645336,111.506328432762,102.293670100996,106.475498650213,78.4700009000485,107.553622922829,89.4357761550427,91.2546548682259,101.742966218487
82.892736128422,103.96188303957,96.0306758674853,96.5839127908009,92.4374512128119,84.8277289836966,108.10478528884,113.276221244118,104.680767182083,97.2555730738619,104.944345056878,117.869746044794,116.559252227535,113.53059494037,93.0222696201788,186.912740159179,106.520804954529,146.238371080154,193.110068028249,168.265947206527,179.082128345537,184.133066708183,240.408955081145,214.474531517317,289.049224519454,337.069789414953,202.057712406349,391.148124336531,299.124939710798,245.719670072245,343.901090872598,152.337301845748,71.7103055262784,150.033354604136,227.419362930317,220.469196865073,141.371819555419,-1.57363610802281,140.280232427589,161.071973178346,123.643117808026,30.9306466011147,155.708002804749,53.1786875096445,-12.1876625463195,120.618000278798,78.1149493592719,112.530695446555,92.9999319077787,75.4180352013531,118.505016376228,88.4516012994405,107.902575353556,107.958502329933,106.669731499116,100.20166889467,121.147618904633,115.856189744091,114.224504224582,94.0866739485868,123.002840438078,99.8068527742294,105.761418130218,113.208985653291
44.2317565902343,69.8124190155082,56.7819214321407,63.8972254132846,62.0579016645825,50.9376635650447,67.0878032992625,82.0350207337634,67.2568763850408,66.5998127686061,69.2201310464593,87.0493877232123,83.4542802994412,77.1381543074022,50.4744113955844,166.692550662346,61.9348396501287,103.23316760271,163.752510886166,123.252653196499,128.11183418224,132.18149109748,187.213612850888,159.458057318003,253.143916112981,245.550181863447,184.141187746573,367.560397956688,216.063259454999,237.578119170434,301.241653529885,118.738921802432,27.9974303484785,147.611554864316,203.779728316654,172.486048167053,88.2694638237099,-56.3372926098863,130.510044912208,136.760306186467,52.8958348543247,-46.3505365071046,101.263523617924,-15.4365644325138,-108.849163145834,90.7030939088357,52.3704220786341,80.0187436969072,74.9427427929796,52.9179182120514,90.4869544693733,65.7204052942103,87.6610214002601,85.3361384004809,72.9043784534365,71.3299302817327,89.9539542306319,93.6895382921915,84.6367473990334,71.3661948285704,87.4041471090297,73.1593473114302,77.5536258396563,79.6681600455374
1.02911075699007,28.361435657745,8.45518373010215,20.3262496058536,21.3896171390624,-2.26332671445895,15.6243947406097,40.6487015706205,19.2882184261856,19.1701974439806,20.0702678215006,38.1888703621399,36.4763569619264,27.444995982857,-4.38178470153401,124.787896624379,7.02358021417554,40.3585805295288,121.95570694422,59.3296758980586,66.4060869973851,58.3904821298495,120.229911965685,104.400401363986,180.13326530817,153.968677435723,116.153903394363,312.763621289912,138.76570590442,188.8473442191,238.917190353489,86.0237332938958,-19.3089116787745,115.256018826165,168.318103837928,105.023795734308,17.3142582274486,-110.964116812052,96.0855529911231,97.7517070671914,-10.0916317573451,-98.3193175491087,39.6353418286016,-60.4587909351516,-138.899448033259,39.7728821355853,25.4730209993062,36.6881658208526,37.597529392021,20.1822504067784,38.9977134834539,19.1530122065434,38.4584545555501,43.2513273103149,22.0893332642016,29.0552366198591,43.1500184740859,48.8772179196886,34.2074289054821,24.0725059024437,32.7238078965194,28.4597241126427,30.1174728408544,33.4094065957777
13.1888679972466,38.6321172012385,14.9057957100255,24.6835983017914,21.583569180747,-4.98433606417984,17.5061010121763,41.3752876072445,19.6142712817081,16.3583799351127,20.954924232032,46.1888004500758,37.3354655480769,26.3782122746298,-4.5700937416108,142.998217770131,8.5134548231281,31.5835246535176,141.85412993736,47.108058190447,59.3391469756019,43.6556104058711,101.117261627394,97.3919348481001,143.744240397146,109.692620614059,86.2789770363849,248.624560844924,107.170771681222,154.116482969398,195.666133277905,71.4009184434735,-40.740846047509,121.597727557415,170.635497416856,72.1081296973639,-38.5487305138692,-128.145423070021,99.950104598871,89.4265329332917,-46.4742529878592,-128.078110525748,21.74173288061,-88.2040027082552,-100.023649131576,30.1779918746244,38.8409160151799,38.4132669554607,31.1687135172127,27.6856016629397,24.3750780711837,16.0501279294172,26.0449931747511,39.9361811644065,22.9447416605455,32.1877978303502,38.5083599577541,36.8415002663274,24.0558228085886,14.6433582123564,29.2643515526224,21.6468707444677,25.4015771636226,30.1476490143695
39.8313487218088,60.0859576616653,36.2248301365974,42.5112770452094,32.8476226045119,19.1338550896483,33.6871677954869,48.2059042328192,39.2610978791148,31.8985737836194,40.3940056178958,81.3078891155808,53.8135835565436,41.3209920490437,15.2433773028382,188.300529112971,26.6629118247897,37.5891572865131,177.661849286889,50.4962484871459,55.631159381786,62.4634604457331,69.1273643039008,75.2292600942085,113.262356906451,22.9045228202464,93.7714094089426,93.0432663859219,47.7778630607277,93.6208259574011,106.821226175438,34.2109368479302,-79.3860069807135,145.168085084463,152.144639562139,37.8951611518406,-113.642516317222,-140.316734794588,116.929534720284,86.4979580035175,-114.305023285577,-202.473321995163,5.95484977548231,-165.509730760463,-96.4111524785573,35.6532687908682,40.4031146558796,45.950461692024,36.0006958281557,42.3948136359726,34.477057537192,34.3295832391812,39.0525957584702,54.323279574108,44.2944346775348,46.0539839069868,48.844829512828,42.9889390794439,41.1691324797938,30.1201098863074,47.5922396323369,32.5797479722597,40.6646714639998,36.4412187569567
8.83831269754384,18.2433248491056,0.0910980795730616,-0.808096024121401,-4.74653216360003,-7.40498620336556,-3.94290846320217,-0.00802506962810146,10.658539056932,-1.77760791678035,2.79086916040191,58.7809359066888,18.6464752312673,-0.204449216160421,-18.4123718565584,167.100796234576,-9.83642955796809,-17.7436059521524,134.338558970323,-1.29723231146725,-27.4066013092001,45.5407189883485,-48.5555402210729,-39.7897960545372,36.9992912751088,-192.972897122356,81.356224471518,-190.982741085873,-139.186751345021,-33.5713039799509,-100.416059329109,-106.365382836084,-213.170176394557,119.100374109475,41.2509859069149,-81.2172508383291,-285.470689034574,-184.782081222511,81.6736234586726,25.3682235343489,-271.114601078054,-332.191943514286,-71.3818120399476,-308.546480528371,-178.499689984965,-6.93869246644535,-21.9238446763802,-7.01728263703516,-10.1514361205325,-4.02677508332584,3.6451384787926,-4.4417488559375,7.26057155122637,16.5949756973538,3.47968002838508,-3.99859821900755,8.74532662455309,2.89996542484956,15.6307809873737,1.43250143878959,7.49614545740493,-5.92694684004509,4.84347448306028,-9.28515208859643
-47.0995105001435,-49.1888264098885,-54.7708289671131,-69.9315521863188,-60.4290657914968,-62.4131961247392,-60.4674344230053,-65.0611701741055,-43.36154343542,-54.7105786741345,-63.9703008192264,0.180865836949652,-37.6720536646174,-65.8359901042881,-71.3002003675122,99.3823977103717,-58.0558925107843,-87.5531755696529,44.6529041572264,-61.9399269392012,-132.033858442695,18.6406431966777,-166.803039635211,-175.237538331087,-18.4344310409822,-407.981309947239,80.7146672492188,-428.259880103345,-373.15528809511,-125.875584086113,-322.290798476099,-318.707357589634,-414.447113958031,76.534924253954,-78.3969286676566,-246.550473675082,-525.349125242791,-237.631768238322,31.0374690371966,-65.4469972110038,-465.337382925049,-447.852624145958,-169.174450787679,-438.37403434232,-253.188767089065,-66.7684346786548,-91.9176169751477,-78.3624571587321,-78.8180794621601,-77.3499633582693,-55.6516444762477,-76.7017842216901,-56.2494745739481,-50.6280253049963,-71.4837275979101,-82.9024129738019,-52.9852496077092,-64.9078011514952,-41.0050231404726,-55.3302069568385,-65.959997371222,-74.3037376683955,-60.3907505029031,-71.6384790663686
-73.2612288977289,-81.982454025227,-75.2348908734323,-99.3885315301059,-89.3689989759851,-86.8361148487286,-88.364056841434,-95.6886881273485,-76.0570089585702,-77.245686587471,-101.086040836394,-30.6381523083189,-66.1738990396189,-97.6784464658969,-90.0618827264962,55.0324317701676,-66.0201853130414,-106.213894572829,-6.38056232128979,-72.9699803969136,-165.239867812717,9.98344590616984,-187.810510444034,-222.749520452187,-10.5139912505257,-449.796928007919,111.612950065567,-455.094748941982,-483.72096549339,-103.038099826344,-414.968988183569,-477.589127514179,-578.846489956315,71.5203506908067,-108.224273467765,-355.66852393544,-702.679668368237,-303.931721048735,22.409947350428,-121.150839720495,-606.478828132971,-538.487065936706,-230.263467006489,-524.557037016378,-266.06694024384,-101.651817529397,-125.338620844309,-114.369539469922,-117.893664733216,-118.127599997089,-98.9646318074694,-121.936982921139,-101.616886815517,-94.3051312894305,-116.247435106686,-126.649947291004,-88.2789258628579,-108.837121259274,-79.4109763721791,-91.3354837213726,-111.376038388317,-122.271869047149,-101.306025258458,-105.860048020997
-95.6342474572422,-108.523299372094,-98.7985608777085,-115.999615143438,-119.862040037752,-100.524613934199,-116.095213577828,-119.639342223859,-108.943379159345,-100.652803029879,-126.934179957363,-50.7204816593533,-95.1852860632368,-123.197383760794,-110.26036025509,22.8113564214227,-83.1810006214793,-116.794230707727,-29.3755063032589,-85.8210346459792,-159.686194209029,-36.1610521970169,-170.059171747267,-205.751677159378,-27.3632330117147,-362.446233361221,83.8234670420648,-354.253299211256,-457.711593452632,-56.5953839167888,-399.915435578747,-533.604688315541,-637.040322764015,63.9797194896685,-99.4380906635947,-398.94023163967,-738.740799007046,-396.999077988198,20.4706642021467,-146.663657154729,-656.211889589748,-619.944087823892,-265.422419720614,-594.680950903632,-270.137936356175,-137.014558212084,-156.431781712005,-141.636104169704,-154.121078061992,-149.009874100072,-140.677259278142,-155.846866208417,-140.06859572423,-132.714333039665,-150.349458857379,-157.999843454806,-122.844148106372,-144.374229212859,-109.774771113522,-124.027301151256,-144.613702145152,-162.924579508399,-131.763680927606,-142.188168933044
-123.642798902885,-137.955175415958,-131.991128456134,-137.141338342279,-151.190636277299,-118.040192658103,-140.84843194045,-141.742526228657,-141.798138943415,-130.734020127382,-149.145379503505,-76.2077653746382,-125.845283772625,-151.402561420794,-139.947112700463,-6.16474468595683,-121.579131868362,-143.022154836866,-48.6935860997976,-126.787404858621,-161.182353571395,-115.496627140398,-175.210135612163,-173.906670077135,-97.3709161823986,-265.97839606836,-26.8333074399853,-259.727170560401,-375.338742545006,-65.9565308510254,-338.900412765057,-499.405286824792,-559.514753908326,22.7495897219466,-107.180918664396,-392.601806900405,-637.618817391928,-425.369061116218,1.66392488005988,-147.47093665215,-593.551722509844,-595.253098663134,-266.627749367855,-587.107875235752,-255.755020131148,-161.451658367072,-175.230755571756,-159.651162158181,-186.71772735364,-175.018003069132,-172.696981949049,-178.107664609674,-167.379360320681,-163.437871252069,-179.196670195555,-183.110774625506,-156.105396507842,-171.415101914047,-130.953804215537,-149.519090462244,-170.129927981368,-186.935604453072,-151.824969856848,-175.644575913487
-113.209611469874,-123.125013405003,-120.15163867626,-119.183174905668,-131.170015615074,-103.542901942823,-113.506005726737,-117.708051801668,-129.908108205542,-116.73671651763,-130.602134831946,-74.0957890031303,-108.408815365936,-134.761908913244,-128.421916132771,7.1751790475535,-113.667280115737,-128.219314831926,-30.9608110452829,-134.756668570758,-132.416787036615,-144.245217799701,-156.597759165678,-104.083441697306,-129.597514502865,-163.110481920352,-123.294969625195,-161.599167041884,-237.854472065419,-76.6865157705756,-209.236550223229,-350.144985806682,-363.520846312396,-17.0494386459651,-91.3352381676768,-295.702099723663,-409.350638109717,-302.685610579582,4.32881916990952,-86.4946679775413,-406.284691181013,-369.719750230039,-196.227102536326,-412.497291094792,-144.877585445401,-127.925051922423,-132.188076632217,-125.376458838325,-155.196911834824,-146.296949338485,-147.651689415259,-144.331798622673,-144.870906044265,-138.404824909344,-153.439431391236,-153.500331882022,-138.121029395426,-143.843054403962,-110.588311090108,-122.786603503673,-146.132752080219,-148.978500347269,-127.091096352883,-152.468763333292
-66.8548707799876,-68.7080497165311,-70.3607973056587,-63.6534605978859,-65.4229495080849,-58.4143062321383,-48.606964863751,-53.5826149830535,-83.4547695301944,-60.3209677347235,-74.313623844677,-47.5734234337255,-55.9337774083191,-75.4410781160478,-85.4601188363393,54.5695756650173,-61.7036523879212,-63.9043446335212,29.9001474048029,-97.2244657354227,-56.786221621708,-124.659145251297,-91.5957432100094,9.29010713296011,-98.5964955321343,-31.0042197173719,-174.403927305276,-38.256056792788,-30.1511569543612,-60.3388200983301,-28.5187591102892,-66.9182821110121,-94.8339104806576,-53.8020757842508,-53.770375664868,-99.1029604569692,-59.3200080185395,-57.062227886402,24.9401327947867,33.6004328996855,-123.284619476138,-4.89015425003584,-62.2144379974799,-110.936656981201,62.0693408271658,-62.4170383693471,-48.3224903928639,-57.0170707988351,-67.7865612522576,-63.6686777606848,-81.9027735825421,-67.7666567337306,-90.1752701865292,-70.5914400316896,-77.5172386938674,-75.632402778908,-78.1782877157403,-70.1598037846084,-65.4834337697965,-60.4548703976242,-81.0692580641167,-69.7158879475114,-75.0485406004628,-82.763075358039
-25.6863628470416,-19.2422332480009,-35.1601517552072,-16.2969269984116,-3.29734905379502,-21.9231719377267,0.546900854496033,4.87858443621486,-48.3866386853874,-8.66689086272942,-14.3023187071334,-32.2979171767183,-21.8943311310127,-18.3070701636267,-63.3336548692327,83.3976334842137,-41.1268739377872,-9.9753642115046,87.1631682161805,-77.102413594136,16.421568994762,-139.213201087415,-38.8592436323888,112.90198152222,-81.8418812417234,76.8475195982069,-247.956385087046,26.5671633477926,176.748909435699,-111.630291822969,83.5651284654187,272.500544092106,238.257020441384,-131.122978590326,-92.452746271648,103.410180331601,350.703813136465,261.828364176839,7.48765740695672,139.161284583974,199.148878049669,376.151836952013,94.3291599766723,210.36126730086,293.982994467645,-12.5622645614665,28.7101114508551,-3.47325705977663,12.511040323634,25.2299794500216,-28.8807277204654,5.39536352880668,-46.1746289013321,-12.2806361544348,-2.16466084735625,3.28153664132326,-25.0074614816268,0.230293787256151,-31.4089469356116,-8.78918117379423,-18.7104411709813,0.690838025865811,-34.5801243450843,-15.2970049886564
18.5598398121944,30.9810068899937,-5.01785735827212,28.2639256997049,57.1528712273882,8.825649311493,40.6910266596418,58.7393217804239,-13.8754517184334,37.7308671177823,50.5942344508103,-16.9913158166107,7.21877463262858,38.76194614627,-52.4212853669557,91.146354958482,-59.9339673049032,16.347220265098,121.430066869528,-91.0473949916569,59.9518219856366,-197.830927215995,-29.9911068049338,177.1517194593,-115.558595670378,109.136988589727,-350.403132475397,-41.5511527733309,298.402758291464,-293.328946242696,51.6787607587794,516.730262623897,610.498913314688,-243.634100070289,-255.842457491246,192.024084668151,691.225641211985,607.133327308164,-64.6694296052922,165.139371807664,484.867251315614,703.057541024902,242.837012350444,501.578098940042,503.796069082285,48.8867770031918,114.173231999195,52.3676198908278,86.445642591783,113.886760382866,21.8188502955153,84.8351662791235,4.67106400381547,46.0081149884701,70.9367790086787,86.5359582497114,30.2220091217082,69.8828736542065,11.8300282138901,49.4176066736645,49.1096604022225,76.1627003821844,13.5766813514477,56.2505945642479
89.8496955507769,102.087299489402,57.6398580104202,97.3276696770618,136.277832215345,60.9091985699209,102.95733938818,131.785470828637,50.006549762547,103.886428928264,127.894278364173,29.9666953814787,69.9981783700038,116.935491474161,-9.30589294668883,114.194375494456,-52.815812780713,51.3095586938653,153.643354814878,-82.3780080623646,96.7269478160032,-219.536949710126,-25.8048813115965,221.328199167388,-146.122184472545,89.5660977738414,-389.393912350799,-183.707003380214,323.108327293605,-484.345420105195,-67.6715995243144,551.411883799388,885.090208092324,-329.469402738603,-429.792201865618,125.580669059418,834.000396957479,857.838656105455,-145.018110235578,115.660150491073,623.015258308,902.65468433096,338.859931314854,727.60099687802,650.162656171377,139.536043580363,215.934573071103,133.916604909292,174.332855238906,208.670282932278,96.4023466860687,181.261082481657,83.054390722854,128.879350730119,154.385431047664,182.150700766211,107.27647227925,154.607788398902,84.8146549115631,134.047617243288,137.463547969507,173.566157237192,91.4670968897773,146.576936858528
138.754407044188,144.201602691533,110.248914614184,145.399672782869,182.782349530525,100.6870658434,145.223763573662,178.742151609364,97.0434444890567,150.062024984541,169.186365705963,73.4620113466156,121.559303034556,166.677019203825,41.9359982132078,129.172502552577,-9.74585100420053,85.3049898615701,164.974771821976,-34.5775348630064,123.140647915263,-168.148427810752,-5.82010844672037,237.756211808124,-132.875498738422,55.6722046421487,-327.376021739207,-275.772473085496,266.147125760581,-520.458044185423,-181.358340486712,384.129406898061,884.27872904018,-361.715788222787,-459.765214090074,-39.9553201762857,712.47509547292,863.589825838172,-195.037594310417,8.87681672372083,529.66690993024,862.347691065544,306.909216058238,806.710886633123,652.124295702274,174.845117700807,254.314303290745,169.017044161835,212.189845173391,250.214435796683,135.867909622588,223.780249391926,122.514639836837,174.727637494524,190.254164680394,223.16005045586,145.410871115843,195.32685939594,126.739214027635,177.078651446556,181.87787455799,222.31312805792,135.258899946993,191.134548693079
102.660096977012,100.193918048587,82.561533114928,109.512449613417,138.248717096455,71.0284832242523,105.289319171459,134.8389119538,66.9224125865526,115.578115709681,125.181420758659,52.8194411362993,94.2202647340126,125.858702959457,37.805248469917,79.6526955348276,10.0495122018729,68.6905093639867,111.491179696405,-7.19515579036262,103.751172501263,-110.692703929236,-1.26065314846896,199.525514771077,-103.71178884,20.172069494657,-253.214693952437,-260.422575538977,158.986798244719,-424.244020498602,-224.61196066358,167.35112821047,605.45923430708,-371.810897170872,-356.927272532699,-169.5983752733,392.696798942413,619.554200352248,-234.815665195487,-153.303134825322,289.089657140136,590.9850264632,142.96213144784,722.06821462736,494.870779162968,94.2355781805464,179.39793396969,94.5738477824737,143.156635418606,187.413061764928,75.7528788752606,158.329548377153,61.3535130444047,118.640234770796,126.660040017996,157.809905535969,87.9983939624919,135.465033633861,77.7907576961673,117.379039362955,123.737682368112,160.675135102753,80.9204570808815,131.451364698414
19.3031980713734,12.8291212730155,2.31275433425583,24.5699559939368,47.6241987663509,-1.93649414867427,18.6374180633787,38.0793685652108,-2.7801548637132,30.6327978897806,34.9812879028295,-13.2560903615622,17.7058736494691,36.1115972943099,-12.909671125568,-7.47848175328401,-9.34692090454512,16.4096407825023,22.7469946150785,-28.1638304962559,55.0104164423309,-103.095624140301,-13.3632758173337,144.570057837923,-82.8651529842552,14.5899943397221,-239.436796368695,-167.023687369539,89.0039921661644,-331.690086758159,-164.284556028315,87.2585093100678,305.305461317313,-383.851800158621,-265.359657391715,-145.428666182691,118.93909730749,324.895839818341,-310.21427192809,-331.297917342946,141.089973850213,319.468467938549,-20.4852960393787,614.628895850207,309.958672280286,-19.7985560995128,69.6501199448807,-14.7632884011482,34.4449709985224,80.3070902028842,-27.726212352829,51.305390381503,-36.9764490530811,16.9584613136274,22.6695538149794,50.6843436922648,-8.48284201275375,32.443099937878,-12.9293705104815,15.0550706876144,20.3963104587249,52.0462974450838,-15.4219731744038,28.0124896547975
-23.8638835402447,-30.8882860523276,-42.7647038415121,-21.3989056840392,-1.27965224291762,-34.3798541212442,-24.2539075808866,-15.2212352838307,-33.8264261855711,-18.0177962151974,-17.6703131849926,-49.6618152306069,-25.5601919652817,-12.2201968262616,-36.4377126765512,-46.6434586070999,-16.2711725202915,-1.91109173569829,-23.2947164196507,-42.1505756777994,41.8024095922118,-99.7173206540949,6.53064996037267,138.833298026525,-42.7995008014708,68.9939330233962,-226.840650087818,-45.0010937998679,111.23481382588,-261.410783147601,-41.1848308167366,169.601134372513,228.234576009518,-380.970795967427,-244.785954033727,-6.41493077223045,124.52292392976,175.746360057994,-424.265140794728,-459.430955799231,231.846787980158,263.654481633392,-62.4707688472541,633.368465355803,199.012776857018,-63.2010770998105,9.69276869985745,-56.5126142802814,-22.9583322240852,16.216349852575,-72.9241517949768,-9.51324002331439,-74.1549476123693,-34.7379754008781,-32.7207528044058,-10.7725827140945,-56.6855815472872,-22.2775545381383,-56.917709375419,-36.4985164482888,-37.1086083388166,-8.72440316351556,-58.298669886304,-26.9145297613688
-15.4129181920009,-24.4971129511899,-29.9057338271643,-14.5128135148525,0.253491600965452,-6.52165041084007,-7.93867762173683,-9.00556473368455,-18.5751620399358,-9.49165304130253,-15.7932907214299,-31.6428066192878,-14.6338419034059,-7.29815754179555,-6.0944673643017,-21.0288365766567,16.9548547588025,29.5995457269196,-13.6732266794453,-5.75310794251178,77.5976186245195,-42.1085695237868,66.1757917865803,170.432091989035,35.9481828917939,146.507403355298,-131.217337792625,74.7236956085654,156.026451115139,-140.831423730411,48.6931730013294,273.175220617624,311.475116805337,-339.167164071261,-232.157127352751,106.191150884239,344.129097764097,159.199606206062,-522.264533657519,-504.958317257731,449.764887657269,373.425203841363,-3.66057266318241,746.60888161084,86.682879792898,-54.328779750781,-18.2290693896081,-46.301406939033,-42.1490596338049,-12.3685365818466,-59.2449000665843,-29.4437856821805,-57.0060199089231,-37.3405564440926,-42.5729057019323,-32.9626213563231,-56.7864249245312,-31.3233547413221,-46.8277250768583,-37.012199086764,-44.7842653080973,-25.9099239249363,-48.1804705482062,-37.7514448920824
-7.65417036687472,-23.6338889521513,-6.0063854079376,-7.44506187480551,0.350178695732834,26.5102724178594,11.2312463222647,-1.02459999151627,0.679689648937219,5.87501352274915,-9.19589262072321,0.57306814459932,10.6231975999059,1.79507892208798,37.6342585228981,10.2895934698264,63.9149675810584,68.2459460904043,3.82852206600198,54.28126375027,114.065604975507,45.9479114379183,117.383378506908,181.125271301461,126.550354370512,190.671496570636,24.912023958714,175.709786060644,146.95591583665,24.2406828246201,72.4739370086175,299.971050944652,339.478000016902,-255.755820544242,-180.430938427683,150.731231852999,507.190455780349,151.271012244142,-541.988850776044,-456.396554857411,593.347313404161,468.101269755851,86.4749533154029,811.111927363018,-87.442517420868,-66.4937335655887,-60.4712093451493,-55.5316370446416,-79.4453214481295,-58.8062092382327,-57.1159295002954,-58.8307861347696,-51.8709798688119,-48.2316976867725,-61.5319048658658,-64.9369206350833,-60.8540284023362,-52.4217517671054,-36.2001337655421,-40.0594646590771,-53.3487389699335,-52.5753479280087,-44.0495436492406,-59.7752964425543
-13.2867013352664,-38.5847101391344,1.75374785934634,-13.1891571509111,-16.666809365831,39.0585226911415,11.33278326362,-10.0059762186622,10.071619037539,3.38352769082276,-19.7827586307215,20.0293654682391,24.0335147864358,0.554650417146242,70.974570442374,16.3977452436501,106.628451822875,95.6053181481754,9.14337131876812,108.488292797374,132.640253259966,118.251251794475,147.89019416436,170.201101982775,204.483239522604,213.998893434371,162.814493789411,267.733997736146,134.504898412651,183.602986116194,115.475392365438,290.183258072082,252.659581835144,-132.603708989059,-73.2587406127631,212.004761813637,492.765106491296,97.8517639436286,-445.320903339002,-292.610664155561,613.123126285492,473.258275897496,179.726018069254,761.70907712548,-213.379414532664,-100.221006707934,-111.50393824763,-89.1475894946329,-127.966656991511,-117.751753024354,-79.2700428066106,-104.090840925421,-66.5356163164875,-73.5899275076201,-95.7044361791823,-106.320864645649,-77.3309207982877,-91.6150720874085,-41.2169132648682,-56.3704479237141,-77.0830135399981,-90.5774554341927,-54.4310498430253,-94.7150813287
-1.62481110335432,-34.7107553504736,8.49813933774259,-1.02520753071202,-24.5629891334827,53.4295634717956,17.4101638791757,-8.43378034204186,23.9305085808748,4.72558433422478,-24.3160295509152,33.9251833545813,31.6278808897224,6.52559472604132,101.423007111655,16.4184070601784,146.621638433696,118.696746300423,10.465807842331,154.468909083073,150.27559063823,166.066225931592,182.090361574551,167.163318692029,263.272961682707,248.576438047426,235.377674823005,369.059116886178,180.538485124099,338.729045326705,255.497977923595,275.891505755738,115.374367066846,15.2873641002861,122.117369123602,319.182440112571,381.127093508068,-11.2582879847457,-237.480049940071,-26.8268033345871,584.15052726489,397.514662626172,251.496621794918,635.992419769019,-216.558673763702,-104.790994835066,-141.189740684777,-100.903002914225,-144.23938682607,-147.331397041029,-79.4804073403448,-130.968285479092,-61.0252061454554,-77.5493257766547,-111.848827571228,-128.240177294627,-73.9571973035699,-109.266306787399,-33.0248361848014,-60.2041804146425,-89.472882269016,-108.981999383922,-47.1088488088595,-105.876637861479
37.7019688498391,2.53175529073352,33.7008409412638,37.376433129305,-3.72734362349904,80.9538420799159,41.8891671029131,13.420804406992,50.2813836689038,28.8940717468059,-4.16716283875226,51.7422149994108,49.6698766291821,25.3227436631605,129.250103136207,26.3321383338403,176.601121286171,134.928277256265,11.2335405567044,187.145870412129,166.180536951801,194.194079135271,216.120171078564,165.039894834094,293.773511690861,275.339405836358,241.927201533104,457.634977736079,235.80768395737,487.515606343709,428.42295913007,224.41785276691,-35.2389788274697,142.168711660106,374.635206743813,393.593685602974,267.339644943642,-181.532646296271,10.0732810722965,246.668452961253,551.337268346684,264.302574581057,288.577374752694,498.371027383661,-188.301152675409,-57.0505123856311,-124.651108872955,-63.4010246733009,-111.3674886838,-128.300647647435,-34.0969997323098,-107.398340320488,-14.8204128845495,-39.7712078210893,-86.2783968111934,-111.958954220895,-33.3694366579646,-79.3507845713568,6.36996140957345,-33.4967010856028,-63.8462871126575,-87.3855237867903,-9.5810871727819,-75.5720344103679
84.3829717177431,52.697772907022,73.9254847748058,77.5863819129284,39.4823624838409,109.575805627896,69.6292871872396,40.6553699334141,82.2896657903639,67.1992074918593,35.4111281723023,74.1367058593324,80.7240606168575,50.3264146735415,145.541201156407,40.3048349737419,187.028447411249,138.170191409349,14.9210768995396,197.327303591173,166.138813772091,202.295612205234,226.532598669064,145.482883473405,293.845741499733,263.526899865134,219.727975052063,480.23924518755,234.120100741547,565.512825010133,497.506755141962,142.41089566675,-180.736584667678,207.358295259449,547.754123674547,380.529103482157,175.027538664423,-360.781175672487,202.813529015862,401.358225574694,487.24689515462,121.620565487397,291.356365028326,369.008051454909,-220.134344942488,21.9511666434465,-58.5643318050983,7.73084587777862,-41.6429404644139,-66.3198546015153,37.1712171769621,-34.629662141097,56.7545401167849,25.9756179368105,-19.2847308291317,-52.1749409457956,29.9469316452672,-12.1423725555883,63.4907800184279,21.5373775204848,-1.48281915413822,-27.5389925389155,44.2792547571955,-15.8132110350356
108.981669027931,77.522226344867,94.1466684630145,88.9826632666878,70.8663668537669,114.958951392304,75.1391669362068,53.359397590778,96.1869911528819,87.258481349768,67.2462853065589,82.9982665933441,97.3033136860417,64.4363585943564,136.22439995047,40.6458025234663,169.743524326183,119.808216612706,16.7136252042532,176.986491806207,140.714248480987,183.028668264981,202.681229299625,107.186651017508,265.220635682095,212.807095456847,193.894108377567,411.995558141452,176.448731244317,506.195729332286,417.412218800933,50.0064457510737,-280.716704798204,203.779044798125,550.746241551837,283.879810323752,78.6138899019626,-447.931950164386,305.442529982187,386.483015916708,343.950820308936,11.1801216335147,223.827815349524,201.716603671878,-290.371424502834,85.9605048027195,12.3999777339516,66.4261358553437,29.3531015468802,5.03935164789566,93.3413710457831,40.2487329671997,110.791438184187,76.5932375862884,51.3693631612118,19.0090332576416,78.6804377785347,48.0305279835464,102.031786071329,72.8817475427333,56.4483607488577,30.6385154658587,83.9651486301821,36.7264650674426
101.146853945381,67.5106248710648,72.7466456546585,72.5401134628099,69.7728746480585,88.8548955298958,56.8413801782112,49.2791614672702,78.8736396812832,77.3959562541856,73.5898403006265,60.8984352750104,82.4500782771204,60.2584656367755,100.978138740479,24.7609361636166,124.462332625857,82.6787255850496,13.5008666326769,132.845916900739,100.816119147248,137.90930628332,157.507369600966,66.1877194972767,207.733811216554,152.600562824571,152.74424964808,292.964660875385,101.016895613897,330.996335710704,273.941613503798,-67.4154435150601,-282.439888136484,163.266116162969,446.899436060045,139.885468111836,-13.218815036434,-347.256576299111,345.933627613534,275.005198707221,155.007562543277,-29.1905776056075,90.4167082765482,19.0238661094988,-288.962791130055,111.117175106998,50.0000881050839,90.6243008546936,69.5385200672302,49.491874927051,108.010075692226,77.9429402591403,119.316877827061,87.8194894192044,85.4332447183796,60.0262967790306,88.7419708990614,73.1289257056601,100.515039219479,89.7763259833226,77.6555713284299,53.0972460427971,91.1361028743055,58.4486700650989
79.1885535173209,54.1815585515874,37.108706192634,57.6188299267258,59.0809806508666,53.39580238441,39.2232521690456,44.0685960692914,49.8126196680976,62.9935044268484,68.3047409968088,21.8817764715659,57.4489140903065,53.8600758016439,60.3179246223562,7.75058794544141,67.9246645761693,45.7840542205591,12.9452942394572,85.4359864476992,67.518407778441,86.8315109446853,108.113022119997,37.9711747342041,130.699117391081,107.161303019714,101.582926324948,176.047861265552,36.1921798416951,131.142910557437,152.76404953739,-176.935779699778,-198.628648324211,131.237966828442,306.002432771273,29.0128420763558,-53.7674271198069,-78.2312635264749,332.574723837245,158.195640381739,31.7306678622714,8.77501299855268,-14.2637647570126,-63.6561142577259,-119.71665561685,111.368603725278,73.8520045818636,97.2568041803596,81.954207283912,67.8842860157049,87.4738480415722,91.3036637068073,96.8184090303314,75.5223737504096,87.3349601281509,73.0825635343204,72.9765709729614,80.5773447852421,73.3587484392812,79.8620939350448,77.5743594510631,57.5064644922179,77.8288827169066,62.2824895932991
60.1721438942337,48.844835975051,13.2758253514494,48.7943447657503,55.5535047478945,22.4354107799977,24.6924377553497,37.3366409674197,26.3783595629397,52.5925646680495,62.9732183968745,-12.4443229219972,36.0935197239492,48.7915712224852,23.1899097818054,-11.6497688481117,17.3549414388668,13.1934988060593,3.24622827991069,41.6785317944775,34.4398239477078,44.9043305048722,51.5091727178074,9.10319801381151,55.2113751829087,59.8795497696132,78.7250983349876,70.901417409922,-26.129554022972,-15.7322667129252,44.5301616041322,-223.647918538746,-161.760504925145,118.39734881893,118.470513797423,-4.35471442575429,-87.9381234670161,142.633563034664,251.861642962216,55.5805534519901,-15.9067098487825,11.0351359801241,-38.5063402626474,-79.9013672638354,147.940711965024,95.7712273369008,95.1479165464105,88.0129344010247,78.6914723098776,70.7037919209517,50.1028943230879,95.512220346627,64.5838405946321,51.5854502503733,73.3309699518884,73.7855972020192,48.0946265900897,81.2103464794524,37.4976508748683,59.1849366133306,70.7194327915643,62.0892794153607,53.7676047010006,56.9620902344163
42.2161812660757,30.5323268410745,-7.74703559311413,26.1886594741164,41.7454086150196,-9.59493193882363,-5.30153491062095,13.926348459774,3.25594450099447,26.344812685846,47.3635493737218,-41.0145288714758,6.74278012506027,27.2478382304987,-13.9459428733848,-46.40912092462,-21.5977433094269,-25.6231744894388,-36.1570528097113,2.11414967850005,-13.4325303721634,16.4575145218725,-7.75235810352782,-41.8563241475442,9.85219043547689,-1.73942124426173,110.146016846031,-3.71973553708496,-100.842454929796,-55.7861681889417,-52.491505229339,-256.461567068073,-276.39359531903,128.88158614547,-37.5775855436382,-32.5957427528217,-235.259518062468,109.802293767434,159.776735266738,-8.31269273000729,-123.087413172598,-159.069252917007,-33.6136406503527,-210.689688687798,313.437312089584,69.0853209896378,86.8609599244825,57.4233394306887,60.3236261052606,52.3384718532928,18.1088161757768,78.5658335082905,35.4936295738446,21.9447607294743,46.8836076194649,59.477652862132,19.7631131637935,63.3552635770308,3.08741055420389,30.709339481436,47.4478753522682,52.7066141653567,21.5066148306459,36.0855785248307
22.3848571581268,2.21484006111644,-29.4686354172826,-5.76194224306683,11.8607417675893,-36.8494134447223,-41.6864362663455,-20.441778186423,-20.2223039055235,-13.8812073548398,18.7254465501957,-66.508727612554,-27.1444923245061,-9.64213822783801,-42.6612604652948,-88.1837830040351,-45.8321938167379,-64.4779069450612,-88.4066206412943,-20.8795907982834,-56.1778258563669,7.60190677018518,-37.4698075340003,-95.995026449783,14.4587169778035,-35.1373409723578,188.82524931972,6.20769981357797,-154.224379755143,36.7701045952875,-60.8404870396692,-348.162387212705,-447.492302188414,190.922708602597,-12.0807601033995,-117.294118240648,-480.190597782473,-100.23682581512,144.164283760607,18.881703971886,-350.526483889679,-452.215328425955,-60.3091542484131,-474.627517320132,269.448501259858,55.5311537972178,55.8647685457042,37.2697708154392,40.1032477698175,24.9419213594469,15.6070292980185,49.7704864688138,27.5074063247812,10.3066193367525,28.5727820453693,38.6231525958552,6.36693259833754,38.0339042251195,-7.06933161223393,9.77891103759639,18.8979042969106,30.9418977450264,4.37100691385237,14.76781158853
