-63.8693618068978,-54.6623141911475,-46.1077345166708,-46.1077345166708,-43.4978627515762,-45.6727558891551,-38.3506156593064,-43.4978627515762,-40.7429981106431,-38.9305871626607,-43.932841379092,-56.5472215770491,-40.0180337314502,-42.6279054965447,-36.3207153975662,-51.834953112295,-33.2033685670365,-52.4874210535687,-68.4366373958133,-69.6690768404413,-51.9799459881336,-70.6115305333921,-73.0039129847288,-19.4290453623707,-68.6541267095712,-60.6070221005296,-59.4470790938209,-64.3768368723328,-42.192926869029,-54.5898177532282,-50.8924994193442,-41.467962489836,-43.5703591894955,-48.6451098438461,-50.095038602232,-43.4978627515762,-39.6555515418537,-35.7407438942118,-46.9051953337831,-43.7878485032534,-39.8005444176923,-37.9156370317906,-40.4530123589659,-36.4657082734048,-29.7960359848297,-31.100971867377,-2.60987176509458,-30.3035110502648,-5.43723284394703,6.9596580402522,-21.8939242516267,2.02990026174023,-9.20704761575031,-32.9133828153594,-36.538204711324,-0.289985751677175,-22.0389171274653,-46.0352380787515,-3.55232545804539,-16.0217127801639,-71.6264806642622,-57.48967527,-24.0688173892055,-91.7079939679066
-301.101260913907,-258.791462335746,-217.910191182193,-218.925141313063,-207.483813019002,-216.571191896884,-182.117789296109,-207.556309456921,-193.252100137113,-186.029683855487,-210.417733938535,-267.807801319841,-189.159692755002,-201.470978304096,-169.948583534591,-243.128308940984,-149.21213602961,-242.164453914256,-312.188399454963,-315.063942549694,-231.926881010387,-319.318374509025,-325.305438257758,-79.0685217510359,-307.638155567428,-269.962302839574,-269.533150388586,-289.807391755747,-188.242563200022,-246.703045448736,-230.101807993419,-186.832524020926,-197.750802092304,-221.902874616081,-226.970342549772,-195.811886513995,-178.522661170511,-161.686902700055,-212.922055578879,-197.985323107442,-180.08060631371,-170.774281577937,-182.959062496705,-163.169438317071,-133.479399285192,-146.123473253516,-23.0407583611489,-138.859710848469,-26.0170351200344,11.2744872562458,-111.933275722315,-0.517670874357889,-49.5594423700911,-147.256188749921,-165.760821836652,-2.89840097263992,-98.7019475299781,-209.736581942826,-11.2009811023958,-58.1885379143486,-325.946700674179,-271.627254651655,-97.2418229626693,-427.902695473935
-567.711911745077,-495.466876338824,-412.257812239823,-420.626052915041,-404.538256163902,-413.116923785681,-350.327064824597,-404.809753670066,-368.383145974285,-362.123598348068,-412.914429460029,-510.353459451413,-359.415064497649,-383.618092663354,-313.435709239357,-448.779878487291,-255.410745522078,-431.031325228697,-547.306105228117,-547.317281647887,-383.969769048196,-551.45419770023,-544.434240878701,-97.0677442055578,-526.785005726957,-450.09293787833,-474.999094142993,-502.53026166194,-315.520313619449,-433.570418079493,-402.004745069954,-324.862233793694,-350.350653494006,-396.294378448272,-400.743737688495,-341.325615871144,-313.225287692463,-287.886700673198,-379.776262786584,-349.488303909759,-317.222706334897,-300.960147445974,-323.723036460039,-284.326007286983,-234.152959918365,-272.365911750913,-85.1911367608722,-243.522641385562,-51.6701775320349,-62.8473905983861,-236.473304944454,-38.8943187820518,-110.631733900182,-246.75761411941,-288.327389359636,-20.447192905605,-156.956614416666,-373.069323922412,17.1246245098714,-36.0896401709319,-573.712269518105,-516.413715924815,-109.09559521053,-790.12929258197
-529.990285951549,-483.681202012623,-385.068514180966,-410.145207812907,-411.032303442127,-394.95316077214,-341.896384690251,-411.710501723546,-349.332631368898,-360.463001228536,-422.123209596462,-491.639655651096,-336.298201031109,-361.812314129871,-269.920488854322,-381.089447683439,-187.718692046545,-333.689285299452,-415.822972946983,-422.926862489229,-240.233152781454,-414.983761993957,-367.55489284789,37.1602470203031,-398.328509533241,-298.966991481981,-391.530622278835,-392.819234840725,-212.258156428508,-356.599595115099,-319.47097770393,-254.180331637225,-289.30978125864,-338.357507299254,-332.536204743125,-272.814888792223,-257.065437329015,-247.495545242134,-328.286496535327,-293.368805019678,-260.00648474315,-252.816523543257,-272.642622601089,-233.9175332615,-196.653620648536,-235.030168140759,-165.384130920942,-166.562888498796,-41.4900911811047,-244.836170450194,-251.128846894281,-99.8154240115129,-124.240096414039,-154.670389309125,-197.088513068792,-48.6017858335818,-49.6694818591149,-289.730058149373,150.403668885822,178.603432160952,-433.675062536924,-486.043581667026,120.212823759676,-689.754261364662
-220.679435318769,-231.53232258223,-151.491724883406,-186.170245257007,-212.401836436937,-173.741062885463,-152.070897216833,-214.051816864307,-141.140303301331,-161.737038864125,-210.042374401585,-237.159820642259,-115.300862608252,-126.233711691696,-59.522213292661,-62.3820208762293,-17.6296832364335,-12.8302866524088,-23.8512460723402,-81.5526999104694,65.9680432769809,-68.9143573240632,23.8723642296472,231.561211504834,-85.5403166304687,24.1167746764061,-133.698378211507,-93.8789633751961,15.5335527405979,-119.135071361479,-82.0006662231797,-52.3204186337831,-77.3395255627316,-131.160018639698,-112.31353809606,-72.1541081843378,-74.6024995632899,-86.8807576716244,-135.69729005472,-108.304776233763,-77.5873476161513,-87.9435750942073,-98.8399723109076,-81.0109562340336,-68.2429724386225,-34.0626256186282,-161.321283624095,78.8217811514404,54.5925196157969,-365.691525323673,-84.7990746450862,-48.6005727671163,-51.8872954310626,82.4767692853767,107.372124447823,12.4434375970154,196.972115553006,38.5794195154834,351.453326887067,542.61317037859,46.5488121193179,-166.528776749445,541.985911182216,-163.556780001613
38.5315830205144,9.95786210146881,54.8563967801347,36.8219332167228,9.08568011076097,22.0108053530325,42.2594755012926,6.01049935541549,52.6783413070779,60.5997702958692,46.6352269478395,-31.521705115948,108.133171186861,124.851872215115,115.760025825779,213.311145280981,64.5435617611216,219.549103046049,234.283046466689,89.8935729394007,212.0637787666,63.9152669682997,187.305632102306,300.252592240866,23.9319753264516,137.478143547359,-18.0109745699006,36.3670484225049,89.2084097194181,-8.37200138213671,24.6218558493817,45.665862277156,61.3476873787026,-28.4066242979563,-4.56339317006875,26.4398156606839,33.9221083199994,31.2779388442071,-33.0094316346967,-15.4041982206318,15.0506372263055,11.3046833021094,-9.85623288249009,-5.81589829051802,13.4831816396789,143.418675976946,-11.6487920388685,278.775943064571,231.087386828943,-264.418322026115,144.539133216119,202.878825405017,28.2577693290912,267.923633721898,437.214886434681,271.991149709217,352.946416039235,409.54591818255,397.684497033875,813.738955410683,510.315281290881,202.66549400061,860.670845113619,342.434285859749
154.123662888208,135.721971975384,145.286399793933,155.019104506809,145.778795918761,104.178355360491,146.899676768001,140.162543178391,136.975979113643,187.568273871914,214.105309349174,29.6633933763046,217.789936712447,261.86158251214,169.568677003569,314.911237343951,61.2276314885899,277.982819881723,302.50765164878,93.6496797009088,219.222629570824,2.75134532590318,141.165352106858,231.390520167598,-32.402021638493,55.0281955193986,-35.2675189812478,-3.37495472481343,-8.09376114549188,-26.8918382937897,-15.135098521863,4.86484322045108,77.1094405814637,-36.9483423431643,-23.6821065322017,1.6793294548429,32.0940914613266,65.4583457973976,-31.8886912209477,-25.0931775462032,-7.60911305503684,18.1201972683862,-27.2945709938008,-20.5486667161756,20.8524886436259,168.485078395713,185.981522243063,276.666340962214,368.08309685935,-20.459552548633,233.440278906616,505.81829955586,-19.6082487336708,306.377324560147,654.596450828986,633.721613509261,215.132033790451,694.007709804523,70.5550137441821,697.940752632292,805.372786978737,497.847256902704,769.651149160299,673.096634146357
214.922223088083,185.416533506681,172.257635244837,193.157082106806,193.464656256449,125.13293890727,170.219662323546,177.704368916713,138.597921903587,201.634645406884,242.413496252501,20.6958660540869,211.318022579103,259.245373727897,137.250678843407,279.824681912914,63.5877563740507,236.905870051888,296.28740869917,99.0098315973936,214.25542456494,-17.6158370258927,103.245155744431,108.628429081128,-38.3127818186084,-25.1669851182257,-27.091768252319,-36.8689853376061,-120.182562784501,-38.1953724752834,-66.2015111679353,-73.9272933157062,24.7598124974067,-38.5162286149334,-51.5626110549776,-48.5413389323571,-19.6044994145138,34.6303891888103,-37.6734575849463,-48.2988429449192,-55.8927217097501,-20.6814412067137,-69.7042860186313,-61.6154643335597,-20.4542600688131,50.7907484848472,268.276805594912,94.0421289092547,333.119506732479,219.105759852177,72.8011881568476,647.58343734694,-236.150156045899,192.254486321306,711.195470996458,888.4712380443,-192.338144319256,838.228651666209,-536.349670525287,130.121860603997,919.167044903838,683.769120982133,187.607217385728,884.532431106792
237.549070560388,199.094563681295,168.458395083134,185.047393793204,184.263923470957,117.30298220892,140.096522130783,144.897570988177,94.5958080340332,137.548589903889,160.766433121244,-15.1390217850435,127.289440733177,150.341101558585,62.0234213028955,146.484179737612,67.675075014525,124.169568443417,187.103144886957,88.2320299846451,131.73199135478,7.37352397935962,65.5804669605484,-40.0097983965349,-1.76435850523116,-82.2476162026755,3.27980325723359,-42.6530083383177,-173.617271428967,-28.1071140850908,-88.4059609148268,-123.95859030173,-50.2873212373452,-22.1414034027205,-60.3671223262475,-84.4198251497793,-74.2379361174841,-31.4803677554493,-37.1248097415307,-66.4979172530814,-88.2867953138989,-74.4502035562953,-100.961527878578,-104.614593083223,-79.0278154856668,-129.823423751791,166.311503265684,-134.412772954562,109.393772504457,371.558028495172,-242.629280507454,549.108535324566,-492.259082752274,-26.7896028222227,602.413318886757,946.667356924692,-598.860891139628,816.707331835508,-1005.89864930053,-534.248282513902,828.865509617668,731.165756505316,-566.851886215608,960.806845929918
218.720471282299,210.234648004102,154.275159263489,164.968636745084,165.223522227875,103.680403720816,106.170604012099,104.878896592087,55.4193993178536,70.1887780186386,79.810297525803,-40.544084025086,46.2114204554207,37.8268609270245,2.89801553735296,4.42678056431154,60.3138497510758,12.5597168898898,20.350902887184,42.1375013242513,-10.4713612052843,16.0648922075721,4.21497480018054,-146.926320786311,17.2546645225983,-111.253436388708,20.1915138733802,-38.0641534236766,-147.838652157971,-10.9971961113209,-67.3677945341621,-99.8356121309347,-63.1734378116572,-1.62299521971428,-42.9913617305595,-74.0495101870324,-71.5486362591903,-48.4885340604158,-25.9053732750881,-60.3806574618094,-73.1415435674451,-76.740376156495,-87.4929216865052,-103.728256436491,-86.6803173422433,-266.308939908998,-60.6714631647225,-303.794550941847,-262.54250057898,324.08814811752,-494.581236846932,190.900828257581,-600.0660785994,-260.946530048936,323.856592558392,750.646488140437,-745.608023312198,625.54340013007,-1009.2075641326,-877.052182335852,592.585628630483,687.449447753105,-994.803257407457,919.548527370488
219.842391771411,247.65021921153,170.905691328883,175.502000182517,169.291529391244,130.774359190726,123.728213282584,119.84359987484,76.0901454984984,70.0752825687873,85.3564457906513,2.0391925248459,48.9829497305996,25.1952304595155,25.035581468306,-17.5466398262732,93.7763407265124,21.0045186627819,-8.4968601639483,62.4789019273759,-20.6879604910046,69.7134770408427,25.4052824886998,-92.5062678576915,77.517267848443,-25.3111324032852,82.202493770593,31.9262876552682,-17.9912249285301,59.9361910208737,35.8976115050688,23.1283988012715,49.2259462788139,63.5260906971954,40.2759223537065,22.8040736398983,28.080079783667,45.6340982796823,40.0204806262879,18.0455067564989,26.2206656864273,25.1798574879603,6.79436302788241,-7.2654065767513,3.74200581737654,-263.297618109063,-288.373786560728,-382.622551525529,-697.774781228743,28.4442082597225,-536.028914238778,-367.70711947956,-500.804037502496,-425.562122065144,-101.238339197845,194.637815078992,-635.218080400548,278.588245574992,-656.572974162089,-868.766105662489,347.632816295399,608.989277706269,-939.864117767781,848.398344021613
263.821084096561,296.99387435015,221.558079316559,216.960039414141,187.971103305427,196.355569173761,182.018007785406,178.013110519036,145.572594197433,127.191838175954,144.834809949655,96.046787570979,117.822610846724,97.240848923617,110.034219413562,69.7009471654274,173.338704877889,126.916469331265,115.942374124745,168.430561842814,119.536685464349,184.689690915088,136.677188244772,82.509401783108,192.329003998401,142.499786388205,199.812493036361,159.576249593499,157.702333232988,178.19188701958,177.517990579248,178.423432618347,208.013980252739,166.998830226494,163.471086553013,160.176407221557,165.294027374114,181.86171208884,148.288771152565,143.317227515138,162.875912638159,167.965241300677,139.941402856309,136.201240257832,135.341742208572,-121.257506206577,-394.298580861282,-335.837605171388,-957.152323749931,-323.869216757319,-375.747619456757,-849.372990374314,-282.118854739466,-432.646178015028,-501.714259329854,-603.534852041806,-410.514633400028,-119.988462548889,-292.057106760552,-720.161541004382,177.673118214268,477.502992514574,-695.916259323519,763.642134609307
274.19947917652,297.304798094056,244.06275738049,228.091835383976,178.806945806874,226.949730802413,203.514232436865,198.674649280258,188.113950037983,156.294261570346,162.939182701642,150.074565704549,153.156953401814,138.937957423979,159.930486436349,118.927039221148,213.680860122508,180.283381290483,188.174023726814,236.917717096341,204.796565171521,251.061452147651,198.701706581493,177.377680277811,257.28038816218,232.726691673173,270.825078801667,236.392884373155,248.30731492103,244.577672650358,243.097018833186,246.372426157358,270.262618366296,224.961676708752,229.072516902048,228.553032656208,229.587360955937,230.530672642845,211.124791463892,214.420759707462,222.492270114296,227.062659990036,210.506564085994,207.68732593332,195.041150874619,55.5688421328761,-306.385130189882,-148.734608524551,-786.519420142938,-453.863023313893,-117.673267440873,-917.144936391733,-33.3148177157935,-246.983582101499,-604.671762571189,-1164.57473463005,-143.921603842323,-348.041079951722,-54.5572462951429,-537.455579428324,68.8754622129863,310.642129907261,-540.752370056901,632.094871302665
203.437499286146,215.838979940461,195.322613491536,169.102254712804,119.963067205858,182.393951072313,149.073815145788,139.955550960364,161.181167907049,110.232618680718,107.052636196153,129.317386735894,111.135278141329,92.7561504720925,131.810401211963,68.4397171678715,173.650103618536,128.074618983706,124.179793418005,206.829611969259,142.498368796187,217.105295236138,158.357588031794,106.472694101672,225.110604685712,197.506769430855,240.775392526551,216.025860095395,215.752374151934,215.080280064903,210.199338117537,205.318982156801,216.655203224385,202.653459538508,207.21292898089,201.713979128329,196.757693382216,173.497398398223,193.580258178156,196.398196552715,181.97491487052,181.311818331664,191.874440533957,179.255712351045,156.051762657191,167.293156287439,-58.1724403271411,69.5655808783733,-266.592553367364,-297.067502056104,107.327918740011,-541.688756446379,191.138534259681,4.33878685615713,-339.785380066633,-1091.27496165173,119.396125978666,-266.128857763352,137.252902331641,-320.711637466896,-5.68621963788465,195.408305860835,-412.16783067917,477.551451299849
112.675656173222,108.239289034651,114.623661370299,85.9635580990501,52.142274069586,110.943725923292,72.6319842065825,59.0357814016733,102.513397914534,39.8777709948528,35.1296331932496,91.2465933333103,44.9969422188993,19.3895619820208,81.1890142576482,-2.84596088323866,114.825735583875,56.9680315004387,32.9008139310861,151.888544094218,36.7916002818193,162.131027783529,101.094164789367,-25.8832850592581,166.294852732899,139.073432285872,174.939887368612,173.262626205699,152.201656812615,163.051896541982,169.164526892947,150.525103974128,152.848696918891,161.759404631988,170.791747675853,158.231866608319,147.28204603468,115.10594203052,158.990753009914,161.094149204262,139.989581552604,131.131614407803,160.917951719159,143.345624068209,106.180979453589,181.968331385673,209.470906358283,152.371185117811,197.007061709961,-17.8789027726257,208.492516855493,-58.2449719723807,332.872930189001,137.174871158775,5.04588429170263,-576.422331786829,306.498295253854,-40.5775051852715,312.426735115055,-91.1062086823448,-40.0629998741543,126.90807747609,-166.178128645827,307.60336357647
68.5018042047179,58.3953592319142,65.0622919750955,46.3965642172308,35.0872972697073,69.6717460870587,39.1110220870483,32.1816374808369,64.0804543005829,9.80869719891224,8.1094826133344,78.5235551529289,6.51678898074422,-13.3337466811993,53.473046075813,-41.9342755596053,85.7228234872081,24.9376734931282,-21.1481938967017,127.77240418938,-29.9471564572859,142.119657371529,79.6660425468824,-119.03996573623,131.157839821917,125.609261384411,133.154634054608,169.211585261267,130.255163480934,147.389611658064,170.09893918596,144.157840292034,142.15602446532,152.034581275035,170.002947396567,153.119819093967,143.006829623198,123.574002348825,154.899989660875,161.833174326219,151.096355888428,139.197024962152,165.75656767343,157.827520728632,115.459877196492,128.193983442154,340.95783812998,79.9592566741835,322.729952954989,214.417783359258,220.833364194764,190.896748240836,396.890190905446,141.304109824861,92.598351940694,-186.700197764691,409.439726845076,4.35132037002053,419.042909134355,115.542547013546,-57.5187622745912,-2.14617793846277,120.214037404064,67.5501306083899
51.7532911572324,64.2866439703815,42.7441599005431,42.8659761803288,59.3173549426864,43.0971784818995,30.7967464704077,46.1880220520234,37.2477580669025,1.78683429682291,8.81887445452351,56.6368172579241,-23.9318117780626,-30.5481438428197,18.1353842496804,-90.9127992270074,44.7015186218749,-6.92493960218847,-80.1081519374314,91.8409044545454,-74.6219189347582,111.525504652951,57.2041889968684,-173.449427340095,88.8553894302371,117.540402150813,92.2272957845328,159.390858657431,115.229557273288,124.962878125387,157.384908984721,138.395300872864,134.771082110289,135.396476452882,158.234551042838,146.369684756335,146.041906654322,144.641317056947,140.542503854881,155.638217579912,154.837252007474,152.044139004996,161.137981635166,167.097525472924,144.391164312083,62.6791184188553,262.271083242722,10.1138929691316,207.231007619353,327.998319205124,250.879896411779,156.378916538618,450.834942792229,148.951996930482,-92.5804990858265,-161.525038777269,477.911372686913,-222.883011066611,454.148145766661,274.467086448791,-134.094001587764,-210.140773897069,285.869169888288,-222.146374906164
17.6457549732063,55.4315904237424,3.20800343367313,25.1171184946808,62.5603128813422,-8.10593065058788,-2.50872915595339,35.1593759403642,-9.19294593931172,-33.0597967163414,-13.8760821482065,-1.87376210926388,-76.0580216846709,-81.692878264002,-50.4265210560776,-169.044344323456,-41.3000010032518,-63.424472651985,-148.695913037404,18.9449247960504,-104.643595601391,46.128484938749,19.4492035193208,-202.010427040854,29.540285468229,78.5482178504697,29.9361314557239,98.2077390586787,61.6251262679775,57.6400072503708,88.9063739244451,79.6060902340591,74.2428226068261,69.4725847499854,89.3501794137182,87.4150455652573,95.6802949390479,103.40238439194,76.5455287097344,94.2234784216104,101.762939804404,108.355505818836,104.685408384493,115.761500542077,118.38563918944,11.7904299176217,32.7983123285668,53.7531544353929,90.1636290666079,311.351703139531,319.400097041923,13.0955958737159,512.513314437509,213.563718163273,-304.33042238647,-218.120830506618,526.819860910218,-459.767153418833,465.617595326525,365.231236451901,-274.370361261161,-353.33371050445,319.381779377127,-435.649858248988
-39.1834106914363,1.85383254314633,-59.5244305105723,-20.728108171282,20.849164185823,-77.0011309726144,-60.0546379597674,-14.964053158376,-67.3641067834259,-86.5661862966685,-64.4594798140852,-62.8147622973116,-132.617919611752,-147.665495345366,-118.018038972063,-231.650404270262,-122.851590227125,-110.56092757812,-183.768351226529,-38.2054961226239,-107.889867365953,-1.63285476142627,-3.17978146623424,-204.467777121712,-0.53279989816709,31.0146900072458,-22.9886811526321,30.7554642717992,-5.73956706239213,-10.2393093739246,9.5170894679931,-10.8165900733119,-25.9300187055692,-9.76900763593198,2.43518031983355,-2.73375420861093,-1.06076738180571,6.04436584791908,-0.806564121169679,5.61388004860432,14.0335437971394,17.7316601124115,14.090809012127,23.1337906599391,24.3411852544811,-30.5436468970384,-163.629874663619,141.368038847184,73.0913201943818,215.882479248562,367.685165158061,-60.2126783467058,545.951798223434,285.717211488211,-334.295134927848,-89.0876168622087,547.189479344139,-429.747282506641,478.788075629511,400.299942108219,-367.44601832899,-312.273819184254,307.250389645117,-547.381392153535
-133.927058373017,-97.4502336017771,-149.318531982257,-107.053362794539,-66.2153384573238,-165.880237058143,-142.388720821365,-97.3050898012939,-144.675553993629,-154.80283898619,-144.976223759271,-125.824846188393,-201.422522068069,-217.848077202856,-180.491869016744,-293.257346725999,-180.87800651371,-164.708029306424,-238.422551803757,-76.9647167483491,-147.866117674371,-31.4117767486799,-40.9509088943121,-243.898098467073,-17.2064245267155,-33.3933373497535,-65.1491505352274,-17.6951901858832,-77.9925291604557,-60.5175108637979,-58.853537132183,-115.525767187015,-152.377814207909,-70.4859622976852,-70.9247421705531,-98.1275434778824,-121.83314250624,-122.746839787123,-67.0332488111726,-83.4061369362593,-96.2910710682965,-101.877455479719,-94.5236363249935,-92.6737825287507,-110.892514673853,-65.7754710240038,-168.638529252297,166.490977194247,119.446985063615,124.248202578444,360.773228393787,-16.6395706141377,506.599724725689,322.657855725291,-181.585109510226,96.9432496281675,520.790031429369,-225.154059502536,449.235750604159,401.510970164167,-382.390722488475,-213.889246243737,263.286868829458,-731.283643893973
-275.488479452758,-238.760048259944,-280.006020119464,-239.091472216344,-196.027170888107,-290.230574193975,-263.208551728911,-215.937598212241,-264.244634007965,-262.556257220581,-268.13381201923,-226.351078010852,-314.935465863926,-324.764914376605,-274.73542338235,-410.911514032152,-260.289921363377,-274.614199430896,-402.905045991308,-155.300545212438,-282.618774254136,-96.1440103921003,-139.267480590692,-367.183631626271,-82.8561267448953,-140.1519416619,-124.407997436454,-85.6450247712961,-181.907654538606,-126.787116114482,-145.615765922069,-238.032663800647,-296.880106950311,-130.587111067461,-149.82983073368,-201.206610223531,-255.47161632049,-271.956665169843,-140.094902057695,-180.981563122409,-221.226296633162,-237.191287788763,-210.286568623175,-222.317222632376,-251.079947611366,-83.1754433998946,-16.33770268014,122.143842688256,175.769880531815,79.3455465254292,307.250267487599,72.2421512523175,387.105891094378,310.624423793671,-7.01317383541136,142.933374409681,432.6916576257,-136.282156252392,330.896019580133,357.18754736094,-425.07595148461,-274.430512553022,160.014542419595,-1058.17165973606
-391.635089138616,-359.814835835173,-397.549795518076,-349.997605973758,-313.244168446191,-397.055760417119,-372.809561760199,-326.134216585807,-377.736638342358,-372.75577382738,-385.496935566313,-327.536038904549,-428.294640130636,-439.529645716199,-379.785487194277,-536.341291699449,-347.325917098224,-392.433059746564,-592.797424541365,-246.845017390446,-420.282264123149,-164.299765082334,-237.88404220865,-481.355766999762,-162.947169788814,-233.814786004568,-168.246583094166,-157.275243385095,-275.636316285576,-185.253538812059,-223.249009400594,-324.404304744861,-389.76709879848,-175.997440054478,-213.557513342775,-277.509332918869,-348.136802302151,-383.426640473852,-194.075757733064,-256.180120884921,-305.090791235088,-336.590056355795,-290.931029689094,-315.758655110481,-351.239567530363,-50.8314021642907,113.359169405762,58.1145176663081,202.862087924321,77.8175694029452,253.269967548871,129.855415555837,283.011096519827,258.860356266387,58.9280795988815,98.9223225617105,325.83351443313,-208.208104976283,183.697482529172,268.947261280613,-522.818951837597,-467.728320778391,47.4723008994909,-1270.96402650597
-431.250325636328,-410.335796449034,-451.02457595599,-392.995506659679,-371.565358581724,-434.768805136025,-421.359995002085,-380.94355539023,-428.264224077019,-430.643880003818,-448.242145823471,-376.371501487451,-477.619292325734,-500.194218604482,-447.402195726431,-574.221851157858,-384.55248851389,-440.876307086409,-632.379871595022,-278.31313063636,-444.594554473721,-171.234948717052,-264.915536967796,-489.20114046581,-182.646629562444,-255.719800880799,-154.820412086185,-181.186895434266,-296.615764741601,-188.559115794686,-243.407413831228,-330.095703056596,-387.546575759655,-174.045379956392,-224.663211072497,-293.399573138015,-361.262136809677,-409.865145542329,-194.520936851306,-273.001336450922,-323.064812867237,-370.769731691189,-320.339806217172,-350.205031627489,-402.334578113318,60.5260022141841,66.725298644517,26.1967196035436,137.349324022546,55.0685513879955,252.867983332439,98.3753138367852,285.150542738511,191.514478967008,14.5866547270663,0.480876458719424,235.753143640203,-321.814037100938,83.6811859352436,152.674097379342,-611.494295928194,-659.17781472849,-32.8542664909867,-1186.46413954778
-457.474903809967,-440.43171552428,-584.90356663722,-423.234032029344,-412.345989827523,-443.279539068086,-441.529160601522,-408.613059113874,-442.300622877702,-455.128415754414,-482.29382592932,-394.88025919769,-482.420374575913,-513.460649324725,-475.329483746106,-528.701450093939,-370.601007151142,-428.793587768113,-515.045701470278,-256.705960279598,-385.582838545386,-140.337287546668,-248.717682949546,-434.494275161817,-155.466749823866,-237.339283096823,-114.432825309142,-171.513945546169,-269.252410066172,-158.158773332941,-228.454334698996,-301.702054049069,-351.931875455572,-144.777689538106,-205.208786492312,-278.123210892543,-337.77236957228,-391.449079099176,-172.305632647748,-258.771070025854,-322.961216628396,-376.425904901706,-333.878496703627,-366.269001567464,-432.307639279314,232.11503504628,-166.60703631667,74.4226727569965,-54.0256305407303,-73.7680705968749,311.812766128771,-88.35625411796,329.95304058845,127.294683164471,-107.561457028479,-298.199012025517,118.569253745496,-500.478522128338,-5.88386977149128,-0.00724773455214223,-700.064897887112,-859.348341862058,-143.689801329383,-999.242684230935
-517.138530733415,-498.817761262936,-1164.90287314023,-485.280432712381,-476.541398765922,-469.12336631689,-473.666843180065,-449.524751967894,-461.9912007037,-480.386514106848,-515.755625851969,-416.228184718351,-485.900084288747,-519.02849068761,-482.750477292895,-475.49929951493,-344.536789862484,-403.717491136277,-392.392798147848,-234.321451924515,-337.870882517604,-126.447394483019,-239.567846815119,-400.698992793078,-136.762905402317,-229.575079402415,-94.3582791244056,-173.046620208164,-253.377025885292,-143.287214430921,-223.991308161105,-297.209214685964,-348.930317065306,-130.286878175814,-197.643997743679,-274.430933782511,-336.269923669729,-392.386308486009,-169.054697540583,-256.746548227269,-341.474976105468,-391.754266142961,-354.117574372405,-394.205970966942,-459.350620135479,405.588338725763,-446.917714346732,198.649204814101,-283.040802761204,-274.654608883595,384.608448310571,-394.516906007814,300.180188604247,86.7333648457528,-291.015017660234,-791.803780071414,-37.974758488986,-755.571251664698,-140.874225782246,-156.142178970947,-786.479847967451,-1029.91406724493,-321.777764674105,-879.689730883473
-549.994350099413,-539.192612010239,-2401.2742371072,-528.04070492707,-517.448720047181,-484.923253260444,-496.428891111795,-478.23044286264,-475.566486097309,-488.080883596914,-520.274023260004,-426.361514039928,-482.236381729063,-512.685831302853,-485.410201293707,-462.238430372195,-327.803226448888,-391.563431485532,-357.236849851232,-226.036434445538,-328.944619762561,-127.545565568687,-236.701520367451,-398.583122648582,-138.588781089586,-237.6822574147,-93.3505731391457,-187.062974136395,-259.580904824964,-150.018293415245,-235.6437471271,-312.686001613108,-367.956222725749,-132.924490738124,-205.157443111177,-286.724051282303,-360.755221688971,-421.866684003864,-176.296612012297,-267.758338180293,-363.16024002309,-412.608016342778,-367.568231695072,-423.435911919583,-485.191531967068,524.874189219274,-616.29377839264,333.276318778891,-393.666715496453,-397.423730277753,406.382973422057,-600.465041962453,157.347208271427,82.4295784341853,-446.936988823777,-1140.10707739718,-163.845564829588,-893.805856235052,-282.785253837806,-230.259944767421,-761.523882783675,-993.565300340312,-473.647420547108,-761.043769703265
-497.628824923037,-499.180117525332,-3924.99473438615,-485.832677621796,-468.094833082541,-447.519539061799,-465.483673491972,-436.654525334675,-452.312795561591,-438.567344887307,-450.257663482652,-406.892409316364,-444.513599124116,-448.589485733402,-501.881699326746,-498.674223239773,-313.92061463799,-405.139585636,-377.970932320783,-220.657412231537,-339.146653363461,-120.238644974114,-229.094768460623,-400.105369369588,-143.15033184043,-245.002806290886,-89.2229326533941,-188.706394596012,-261.089499152319,-153.298783615827,-242.973078196214,-314.853438853752,-370.267162467877,-127.45298190215,-203.077059244926,-291.930362421855,-373.124447601732,-439.446673228776,-166.668219080471,-266.910447215453,-362.159465371753,-416.232187721343,-357.224411638153,-432.469440569876,-497.375086196997,572.603392336043,-636.369057099862,429.968720708145,-313.957873386915,-343.110370279431,330.285066440996,-499.595979729466,-82.5968002293628,66.518638901412,-431.771184779905,-1020.312732564,-245.880150164674,-754.03598813772,-374.584267433411,-233.288676266579,-593.312738096073,-740.307690079363,-499.332594866341,-653.414834756502
-378.986951650451,-380.67215275602,-5134.10796790831,-361.074439589998,-327.908208101846,-360.778254208977,-365.555394452269,-307.949073126323,-378.625120804349,-314.963534399429,-291.037670976517,-362.355593995821,-361.469908118486,-294.400993169887,-523.911633030746,-583.913374085303,-279.524969812752,-432.740831061994,-399.802304358877,-207.991210871991,-348.646136231638,-104.078344821268,-215.482304630475,-379.564426923569,-135.28334917443,-233.660959810782,-73.6620674797836,-168.836397542793,-231.937001840759,-135.674161163204,-223.512610346287,-279.081024201468,-330.728800853339,-102.513701692635,-174.23929668412,-262.075182939259,-335.710398308772,-399.72452913472,-133.827493250279,-234.822380439904,-322.49025105116,-377.395155118434,-309.442361601939,-395.114078642832,-458.45887608067,594.741832316939,-529.236139670601,510.481074290051,-91.6522080681031,-127.555586096481,223.507892245198,-125.798714165381,-294.617479231859,-12.4239496217611,-207.694315699543,-480.271930389281,-314.604689591727,-382.998535542834,-388.550234356245,-264.484992184146,-385.695102657531,-428.650286491022,-401.036735945926,-594.240895476591
-220.499563794306,-212.074121775146,-5878.17182156571,-188.394612909493,-135.53387581925,-231.870277265497,-206.296100665236,-118.871811690103,-240.419003728456,-123.201088719797,-60.7497009029016,-267.212981734507,-221.668562634356,-63.6082903553051,-469.029418104821,-647.899529120066,-176.35080482282,-395.952683078202,-369.18383498904,-138.537696258346,-297.726389184291,-46.7995240051605,-147.499672634462,-288.350268550816,-72.8766632433952,-157.075652011877,-15.422432811155,-96.6864474639897,-133.407088900627,-63.7354470494349,-135.356402858023,-167.065726663719,-205.309415787924,-35.6389656873494,-90.0847796776936,-154.935075003271,-210.091631375485,-259.584492629939,-57.0044527848552,-136.632528066631,-204.396479725608,-247.71281531121,-187.166726754748,-263.36965323243,-310.146190517675,666.700548207966,-264.430462201278,648.061643763567,240.607040785961,204.759188635877,285.10360413791,344.185561360611,-240.826704730994,-36.1487277425627,143.735188724666,203.882901855943,-281.65968342167,127.238857416445,-271.39681532266,-284.499119352085,-132.776359177568,-48.6445541202001,-211.699130036872,-361.196978887716
-37.0139366559156,-28.7062435545463,-6368.50890287944,-2.4552540333608,63.3414164452905,-53.4706469329415,-16.9027005963217,84.2413198784096,-44.4384441071963,97.921634330338,190.139626619325,-73.0130898267484,-28.9529944795789,184.604347993116,-260.069476177137,-550.863388150739,30.6420872291859,-213.125739202783,-222.133446740142,48.0182511040846,-115.7443087354,114.607992554547,40.3047481496289,-87.287585685713,93.1550323399839,33.7789201471074,131.752242969207,79.952629325266,66.0063500881466,104.507319923888,60.0128492174132,51.8314923957377,36.6295965929346,110.197891622749,86.8480914042777,57.2497082081426,25.4529238995815,-2.98502368850064,101.53020560294,62.4946353243883,26.0795842503758,0.497284207062123,35.1126248099019,-17.1849156579251,-39.883054216922,767.848711747071,101.141208377959,824.851524875643,647.500146678151,569.928476760463,558.3527674661,757.905780817345,90.5371155807471,171.833600396705,528.306395959947,790.566172309498,-69.9340728824733,699.131737464077,-43.3516724890138,-143.44065089671,304.566043096449,498.933220658467,37.914975532808,239.363532419156
105.169315120677,92.0059817085419,-6717.95187654472,127.452592725776,188.612529780578,123.185076714623,132.009340304696,224.242725737098,133.192319832211,262.053338182718,371.939185344188,172.997015844941,147.990126674785,360.768787450249,22.9588022838679,-266.866774117082,269.735161422812,54.5046287122834,15.560171059222,287.339635719142,138.625265684916,337.969150348326,287.084399110508,158.676929539875,303.645182781609,276.765857892906,324.996561142151,312.630731164272,304.193149583986,320.211892715063,303.67081264149,307.232398506698,313.152370144675,299.17897541899,312.231665078318,305.791215846797,299.058229104398,286.374579019493,304.990700995755,306.186543488445,301.375134146278,285.57906580511,297.030772291648,259.971736990867,254.340798844219,770.466200982936,318.129259737959,883.717780606612,941.824796766362,788.976434530632,749.694699685449,971.594721861566,355.623586463628,500.931733946716,854.379212082189,1102.36369191798,174.276381533416,1182.79378069036,141.383055162405,131.677689180603,903.383931943865,1071.42255850376,273.141568608611,998.586885257978
131.443782124925,81.7977645490856,-6909.0495561092,132.348915881299,173.370847207794,213.469545164368,170.093085280348,234.613107208895,211.62352462439,300.167749776264,413.915275372702,342.496912945469,233.205552668863,405.346060583136,222.661960430765,64.7315007814454,406.969289518456,254.258628873266,218.698749299294,427.772369043249,311.657513868351,473.518128223143,434.584258105453,323.938533075364,415.781420328616,423.430187790373,442.248558942959,457.200628174152,455.959040742843,457.682019750806,461.974764658013,467.873804819831,486.397764073342,427.998109890987,465.377526707446,466.707392205873,481.26472332646,475.988652077819,448.177049594873,472.917190292843,489.960698819287,474.786602365734,487.969798736442,442.138082015274,449.230659672549,609.98056363215,262.247836539516,775.469614842631,980.108250639282,748.139296928167,589.828297654907,910.653528935306,274.722056598969,626.200559507211,1030.88145749366,1092.04152637802,226.268840799317,1438.14033624465,185.813992224778,298.194161539331,1409.87278305891,1389.12135985514,385.734191227859,1545.58029256674
89.6313816795226,-4.54448948227851,-6929.52617069674,60.1550411152676,78.387409748685,242.616445892718,137.222046261362,162.706850254195,231.088245852338,258.072151499085,361.470996932597,432.052474087236,263.753509864356,365.607711004039,349.921537169742,364.040627790969,432.789268179381,372.367318121582,362.054484736296,458.129206128502,388.782772297698,482.347917647926,462.518957860937,394.658656367042,413.392009003817,453.142660959162,451.105226030551,483.406447816469,500.030645574534,487.200518430818,504.601042988305,522.892072752829,550.402334744944,465.074636477921,511.04011376789,524.450150628553,555.204501083976,557.456976011459,498.99630342363,537.824923211038,568.578653245785,556.383076780407,578.292684110064,516.217743908744,548.791009137973,266.204743489083,166.991669120219,549.39364492783,899.648930372682,533.354725242053,118.485325717852,663.52935839407,-112.661458528918,402.985580726543,998.607023354585,884.136644143073,12.029214900945,1426.48584079505,116.607505229261,177.337385432575,1581.87237345139,1343.06357202884,295.314315996008,1705.38333846235
179.859185699329,27.7277833949675,-6773.95224394948,101.708466777536,93.964570118803,381.624586228281,210.341185679678,186.951416683869,362.143607286691,299.643911864024,380.587063945608,630.894649612813,395.669061192709,398.006877316666,594.146070662585,736.733440651183,494.71757730207,574.885551325324,608.074668614474,552.559909817545,542.878890246641,525.220717228465,549.5692820184,505.781284065416,469.7337927533,539.838389737033,476.998546221637,550.047683728926,573.116585474524,535.833531456373,571.503304047509,619.104160064519,662.877658791201,504.459646281411,568.424639867613,610.467974962471,662.02802954767,678.647463649529,551.977101670509,618.710212024257,674.082398214241,675.739687286314,678.626319830843,622.852239860399,690.464434012357,-277.639307079766,340.02050128253,133.422647181959,895.823609948816,336.749251292698,-461.240930418879,392.738473600594,-567.981644147082,-11.0453419547456,768.063865698736,604.929011483951,-307.724384573938,1171.00154154729,26.1799695673377,-78.8531101700632,1386.55892183332,1025.13966537103,120.535067064916,1527.08664654532
563.605129135934,337.960977187789,-6430.561094522,407.493637683888,349.733481215862,764.552722657367,530.7270635543,444.442975176598,733.278127978472,557.216119470639,589.021499107396,1077.3525724337,747.539771347062,626.243655795309,1052.8510141276,1283.4391826634,692.244645279352,969.139905216344,1071.78642075106,825.285949343512,875.810285743484,735.464371054583,815.143959930447,748.187180775624,710.01215374912,806.155018775116,640.976552309161,782.107316324591,789.183423756367,716.297609410552,784.221179859766,858.945337980445,929.602554236503,643.735302800879,752.419796793538,828.198617026511,907.519391146004,941.694569217538,702.840952195352,817.235486366161,912.325302937338,937.394670933747,899.636696448389,877.99715044462,963.456692127614,-755.335797401097,804.313439020632,-378.575808532168,959.364659003821,330.619033242069,-856.192270309758,246.328220957639,-768.760376320374,-309.466612991051,443.574412968769,319.14656399057,-407.850799097165,739.138903559658,88.8159547962103,-106.982366334321,986.291666429738,567.130273189256,184.210906557163,1138.91470185592
1102.39971400896,815.00109803733,-5947.11216884786,861.185788885766,726.801013354712,1261.24217815965,986.388728830575,833.146301506603,1217.39081612044,945.834815871926,888.086152136441,1599.66651022186,1209.61796781443,968.376482151942,1539.23790684498,1854.73721887201,915.943622234653,1398.20420685159,1570.02807792558,1125.46259580136,1218.59310926463,984.757445489395,1097.84620472115,995.587254960837,992.995607134177,1096.25441039147,862.94163139444,1048.82886242074,1037.71221286349,941.071851143003,1035.96417640783,1119.93522989532,1212.75271965901,826.622768436743,981.097272481751,1075.99795834492,1174.7060264156,1220.17016292242,893.621809515667,1048.60239701354,1166.47810323499,1214.73025984134,1153.12320506649,1172.20789124212,1246.24039484047,-798.570299124012,1254.21584986642,-663.816679557047,904.462097407229,481.600601592669,-870.987132321219,253.999452807333,-594.118372646974,-366.866074068437,97.8033488674429,80.9109838009639,-201.184913018974,213.358385740838,329.450078925427,137.106347923105,543.002478304948,20.0735267502851,529.100175961258,578.658340113634
1455.10832657782,1165.25397439771,-5456.91954274587,1183.30525326378,996.261227357613,1560.75747942765,1301.04501765836,1119.62439349418,1513.32826484806,1230.83127778656,1092.77060408866,1859.31630998135,1507.56434065348,1218.57072709238,1764.58029319258,2143.53438763598,978.864202494667,1581.15674166785,1785.38840974307,1194.12113856009,1314.01746701369,1019.20319701622,1132.66605447815,1046.19580491064,1068.5543755858,1149.66205697458,934.603145229817,1103.12025124935,1095.12847176003,1006.15251760889,1102.58503189904,1187.31266346608,1282.37223789439,884.224788926351,1051.54475906745,1148.04056411743,1249.30739555596,1298.61574099708,956.983023446757,1120.83003040926,1234.32186299528,1294.35629545429,1239.68849927237,1292.06750203817,1340.99521355084,-591.833694699747,1334.00674578672,-763.592366897315,532.227335137184,498.596113384679,-760.289670448179,202.344391741047,-364.377398433357,-471.627633096506,-346.922134622984,-125.494497903784,-85.5393670989115,-355.047985961965,421.803675520184,174.468681193455,58.3725210146551,-567.991603403014,704.488839873767,-132.64244900399
1489.2658792413,1276.95723994919,-5015.19866950274,1271.0492061249,1110.36714302011,1536.46490593529,1360.8721259628,1226.20094311677,1500.13634951347,1304.58012359456,1171.49906589447,1761.6710329746,1517.69670291205,1298.01291249499,1677.2327664897,2048.89631965056,864.014649515387,1449.35556524573,1662.7818995677,998.493162334274,1147.05480246663,807.205829699633,906.2493096023,901.675192819332,911.872322399627,956.310459755743,802.525982882556,920.058561807014,937.677085407772,865.343743089798,950.925919822514,1040.43058006371,1121.3430845508,768.321466535226,917.756272292187,1009.45910023475,1106.26119768884,1159.51253195339,841.445195819747,994.152329425326,1104.32950411805,1165.07169405771,1126.26274485737,1209.82607149444,1238.81492883459,-600.265958872055,1027.84694658413,-1002.53932389866,-135.379819636352,270.424255957273,-886.30835969048,-118.1568282034,-394.371970997337,-894.141391553992,-927.229363652132,-355.513660135735,-377.297136038787,-894.718824107437,151.104380686342,-359.205709668503,-543.305981867073,-1005.53135210798,404.895311628486,-761.509142931113
1364.11402604296,1270.03246264114,-4480.05353384353,1233.140911493,1153.82577825614,1341.21166683429,1273.1358912993,1226.71011544642,1323.84445719103,1241.51177488795,1182.4657792241,1507.63955333979,1362.10675495057,1265.16366814869,1440.99242543702,1751.89398470221,689.692917733596,1170.93790959854,1405.20237049798,723.698351164242,905.62929017776,544.679814256596,630.289623225784,717.72773722341,701.94803824042,720.056647867232,602.553276701577,687.155176796181,736.590711362869,658.763385761196,739.650793818717,832.318140544478,888.574913369869,592.824652784547,715.517742640164,803.133200374815,893.966805066743,947.666949789691,656.179241362355,799.794589127611,910.780635749092,972.293302995298,942.586092207597,1054.8825586918,1071.64714204223,-789.696430223776,693.542856312142,-1316.55783385368,-789.659147387563,131.777857147549,-1097.04027158791,-563.328897034036,-495.024150474181,-1343.91718963757,-1441.29984236312,-593.06736695835,-735.075059269392,-1285.47520976234,-146.43344670653,-1058.37437602569,-1182.15655144028,-1071.83875817283,-38.0401287920127,-1006.60313102851
1237.98579949664,1234.05271555557,-3610.41205780892,1160.52613611045,1139.5353556522,1144.23643912999,1150.33682941002,1165.20654708695,1148.07858935107,1131.83952082637,1124.83069279497,1275.16200766611,1190.29385767469,1166.39311705221,1177.92562798167,1434.91592811967,517.863570289697,898.568185197364,1144.64051185454,496.275436069282,693.204150026402,355.805635436812,430.89431618266,568.309967180878,537.010893352986,549.63739256016,429.208655994198,511.687881225625,588.846317284684,483.780898568299,565.033577699793,654.379379322951,675.446291779432,437.211556539085,539.722237351475,624.605343275605,703.531071165478,740.658600768589,490.099050149803,626.507083443917,727.894563765144,791.158477784247,774.317595214798,901.450072544742,903.701518701633,-813.991634271801,627.116111016736,-1337.11776283021,-1124.86231008329,302.302374100843,-968.552702831348,-825.01252712019,-297.104213867575,-1318.27978151944,-1632.64603124741,-766.759753333264,-593.063185929064,-1461.60223850676,-2.24628304118416,-1135.63675485016,-1582.03689766998,-791.150191350921,-75.0231334907477,-864.161650088431
1138.94627924425,1170.41703877888,-2252.1494998938,1075.51553076261,1063.11098910494,997.847086007687,1035.84938477342,1069.28309348175,1027.82513373924,1024.88092710307,1014.77904652051,1102.84658491565,1055.40789292148,1042.3332220974,956.57564253815,1170.91710510698,387.274062257774,711.211789568269,906.53024854145,346.240488971248,525.70268760312,232.859823693418,306.736360148284,469.675508157613,407.782303346902,435.8443529686,290.647461566841,383.571506451193,488.349828455318,346.962179715484,433.290849042507,522.031664369077,509.249910830895,309.947594221219,408.380055997181,489.750175676198,554.465862462274,561.081511287303,364.971455297402,488.58522651435,578.018358153935,635.861297446917,638.658429408538,769.598407835982,749.040544201426,-607.854767705959,700.331477699977,-978.584468350986,-1128.71456846666,413.617833995808,-440.309274331367,-856.288800512242,195.392043119388,-794.308361430932,-1492.48655653493,-835.810471390042,56.2291923455429,-1504.9773069932,554.452793786602,-427.008964474442,-1653.55402147875,-505.78246211992,393.459577577556,-713.386419741645
1021.12980556306,1067.26453058754,-586.3676423857,974.055408139171,959.118709536339,876.891039413272,929.800258483801,969.820995452127,930.304002727431,923.554533864411,900.62958284651,965.156660012569,937.922579353236,931.185065941007,824.55529081706,985.561317493111,350.225140563585,637.692923728571,737.007807310526,289.918107340541,442.441930532451,159.310685356433,246.351219784791,445.699754930202,315.99537864641,373.079386062223,198.030535946643,292.221847506496,424.083949879962,253.339684636276,348.915908503226,438.764894891353,412.119648857854,222.94091041908,326.340144301308,401.648924970164,455.757131831147,440.219685574349,286.572037282286,392.584534808995,471.882459767034,521.32406593364,530.990851901058,667.609169208015,624.133003097843,-351.673716715004,565.110809477833,-536.961903988803,-993.931104456285,3.82775837012955,131.751552973229,-883.735117466115,631.817329121425,-211.891726877579,-1280.32465267701,-916.812451507699,654.474080994578,-1631.45140889686,1014.48630620479,368.656255424994,-1759.33933688719,-629.274683497159,876.805386905516,-1013.04801739692
813.478255865197,883.191850718089,940.934404435881,803.549276442155,802.785422475446,700.936092470627,768.379161033952,816.035896515217,760.45166741626,760.025671753843,742.702063214321,779.947612674794,762.903735527311,781.236978048738,695.364329180067,811.886430703257,342.520174798319,571.784720707172,612.310415700842,266.877943654937,400.391158829802,106.819057283046,199.706045481734,423.443699864312,239.226914033853,311.666744982277,131.503892710323,204.747904336386,339.93397438961,176.015993872092,264.647993264155,339.432716253851,317.659571765524,152.251775594069,244.077162342304,307.396547567213,346.405763880604,329.053333474271,212.849367272775,293.256696116754,353.567075984769,396.307021353003,399.694948120064,536.558429909166,483.67275764859,-146.028100813887,201.999704579275,-243.850986971175,-770.281414564409,-743.867371726874,438.960281761111,-970.738972197673,767.804745857793,109.794559842599,-1163.78662264588,-1122.70678233765,784.486382677205,-1920.96143547352,983.920544220059,582.931319311309,-2115.49238521491,-1196.29400268251,848.670271052999,-1723.12334623047
508.203330579696,591.184069751931,2128.15989621242,525.417194904838,545.924862494446,418.729521562158,491.166138017412,538.037449602956,465.186387292125,482.420211251749,470.98737707369,479.239350401102,472.47254500205,508.773311688734,431.279475019032,526.869949838783,226.922175592241,361.813895156684,405.708528312758,157.845980603592,259.981373163469,20.834771403525,87.6706437520988,274.634822848846,111.591255380324,160.262615700782,28.7541156452732,66.7449529858718,157.979166434984,48.6657587281588,100.722868541371,140.108803251033,120.567631836771,42.4197159270741,93.0803973965815,131.471749295791,142.113302270879,128.57460482683,83.5959857125,121.696339630779,151.22378279151,181.132996680576,193.07106393648,305.425350562731,256.515482940235,21.2089457976197,-20.6566702225741,-25.3220447859828,-326.337941230089,-1152.34122656556,514.002533724909,-795.823366311976,700.614159750839,263.400139116891,-908.823683827377,-1122.53711610024,612.260969689733,-1953.68551759208,629.809077120061,378.727486386965,-2201.26366555289,-1663.386641721,442.215257918838,-2138.69369482222
187.061334743481,251.259827093045,3130.60024199244,195.005111121138,228.556163506709,81.6813136174594,139.485464277846,175.253496524485,107.461315532187,138.238242984955,122.537868365698,114.453628691681,109.778734798109,136.150947569048,53.5524154296658,130.684101256751,-11.7277259468135,16.3153546122617,73.7566782092021,-70.5870760222274,-22.1926134642458,-130.813992061962,-103.910998174924,-8.34542918088891,-97.7647597888522,-96.3335858007344,-142.059554444932,-135.9157627218,-113.490439609512,-151.52727465457,-142.195417720167,-139.117046374469,-172.716471956425,-120.232294416809,-125.669366333561,-122.94614462766,-143.982269433732,-163.466048075665,-103.298021015806,-117.70496705795,-121.348168478406,-111.357378864701,-68.052940284694,-3.34514570937233,-48.3427084173691,122.962348191297,40.1495305242829,182.3571423652,227.128013183188,-995.939024696822,497.657864710074,-207.464677644573,596.935962236146,412.136126802274,-265.45911843994,-483.523086658659,490.906965573135,-1216.40890232316,362.872038580418,343.840289030788,-1494.17468896518,-1416.3895379821,258.476761339652,-1690.7201289897
-50.2736663187539,-15.586754171303,4068.92963160111,-68.2832216193757,-34.527089702882,-193.181195008996,-151.940032174778,-131.299473563988,-182.31156118684,-150.492543986567,-168.814796477439,-177.389079161306,-190.825605632004,-196.348108083154,-271.1844104141,-210.594613370041,-238.870406933837,-294.965106789378,-241.138029812574,-309.566000907482,-308.370471889263,-303.461702277266,-295.616958849334,-277.536860589093,-319.240511017171,-351.750147495862,-325.838424709915,-343.702076389073,-363.814678867329,-350.446978170744,-365.512490471857,-381.538826204938,-433.245761421974,-282.125911825348,-332.277244543625,-362.081494456849,-399.425512588968,-424.122069381429,-283.010403778234,-336.745638760231,-367.285597591942,-372.89439390653,-301.886489373756,-285.12452198249,-328.76966908667,118.855109015667,72.5197136428306,254.325156466442,477.013149127967,-777.422166797787,387.696904056118,335.43185442903,446.881827336305,476.273114423098,479.171663275431,488.586987507958,446.172687068667,18.5035712925144,267.21551681259,603.116938635275,-357.24038130362,-486.756369592224,483.566755907502,-670.672557989579
-156.951750168363,-131.60039129654,4907.34703394721,-187.897556867935,-161.963528562014,-323.556131066049,-282.296188004656,-272.279226441915,-324.939815424969,-289.624551644491,-303.975042958095,-320.205419884148,-328.132365940453,-364.630954601841,-431.225396184611,-362.026430560864,-341.951905272417,-436.512648738814,-382.97287359037,-429.349788005416,-437.404561298294,-401.012968265776,-391.173763236137,-382.504735188406,-440.953229774341,-480.568846631525,-422.953103429173,-463.011817080738,-486.718577665531,-447.843073208709,-477.47529746846,-494.802189132213,-550.228637944173,-372.311789168496,-440.754705381916,-489.680946290182,-525.150936052191,-539.55595127329,-384.121572236544,-452.847627344667,-503.498626409009,-513.565122400662,-445.001450808763,-457.83197719997,-487.515046018482,55.9034951486397,-146.158182639394,143.873689036778,256.417295998397,-858.846930400399,184.458096129731,370.017590048231,232.872826566791,346.679671285558,805.008669152495,1032.80375110606,319.6604582856,895.1500775123,149.488137339286,782.573226495816,482.142985571364,489.26580349998,694.485960284886,212.582555183177
-204.314856538552,-167.984221573425,5616.25219231019,-229.430453826927,-208.858158553279,-366.298228661067,-319.06073600108,-307.536125000458,-388.565202286035,-332.673083257069,-341.869794921964,-392.696244734792,-367.5336108938,-409.443440933298,-491.245754607264,-399.973782949648,-374.677330418204,-463.712071861395,-399.392663492146,-452.736570200809,-430.530873770275,-418.943659758664,-405.051554198671,-352.698407689422,-470.565296032045,-499.457006404181,-433.819615658965,-496.535484713437,-511.067219907345,-464.886403442341,-508.838906309221,-520.716501519755,-568.298917138865,-405.399106611491,-476.08363101599,-528.764332364734,-557.763400787445,-554.105727676653,-427.427650425889,-499.548167361874,-555.285841585532,-563.525318746448,-525.643575794255,-549.731600121691,-546.943095604946,0.465621101734946,-440.039940819414,-4.14343772597318,-134.297050990787,-1006.52223623175,13.255667978923,64.0362666535852,61.6305116613248,133.736280312566,652.409305221575,935.057823927735,123.798842090547,1052.46088193856,-48.2246744575021,647.556968563104,797.255997126073,1004.8687210633,542.016233829328,651.283854569475
-302.609660452197,-252.771496661714,6207.02547538723,-308.753250354217,-288.060680690015,-435.347937296302,-389.067040149642,-370.47694614077,-474.042182783475,-397.138437285618,-403.947930583082,-492.31910960838,-431.992454023601,-454.973208698953,-556.468553555078,-462.466262353224,-432.661376176341,-505.181164331299,-429.891574465484,-485.072956332021,-423.649430331379,-438.219298380063,-426.108023163144,-322.612632354618,-500.443645571804,-519.210983538701,-444.036780119378,-527.48064359524,-532.72589485632,-493.633195049237,-542.709535298003,-552.910150028707,-594.82497268844,-445.262893312165,-521.990460433403,-568.550325609127,-595.120876180532,-583.154879480976,-478.131743288321,-555.290813383834,-599.798635614541,-606.191435987047,-600.255413795828,-629.819249278194,-598.0359374741,-25.2505554838931,-549.531214460108,-46.8567287002836,-322.404866905572,-947.773552568305,-17.327664901777,-124.417823396936,24.5369781369553,54.8189148897003,445.268211556056,630.019038156265,22.2686849271048,908.493200219396,-167.720298557862,401.549083059386,835.48650563933,1118.97513830874,192.928554752301,826.54296873189
-443.435507497782,-391.408036437496,6728.96424636023,-427.650993297464,-409.87136946385,-530.058734367618,-490.586935384904,-471.811801821191,-563.217005087913,-486.910352461989,-498.151886479918,-590.385361797345,-516.142163892029,-522.963000576075,-619.363771191545,-539.643736101089,-486.117193386614,-567.444666912724,-483.298391356346,-530.7388839354,-456.417056794932,-472.874405292329,-471.691986413125,-330.263139397378,-536.33327141119,-565.103196072344,-469.789203230553,-569.204568149299,-561.261309575526,-532.617172531518,-577.885532613491,-594.190167796171,-634.772415174547,-483.347795758045,-572.010013046819,-615.3473892735,-642.33558080527,-637.797577468051,-522.404643871775,-606.047189592702,-653.339074709041,-659.796168442492,-663.983018116015,-703.809460567093,-671.094184329161,-4.06332416982017,-452.234854247243,17.1126601628673,-246.718316203248,-772.372549113896,67.0929703458376,-60.8772160592736,86.5567439315138,175.202953399452,505.609465791397,470.551402682998,80.8568668252213,911.933393484703,-113.595666158299,336.263066160846,867.719114279929,1101.96008093998,-14.9217883513097,933.166199510734
-560.544480573708,-517.585967165527,7342.00795882197,-529.952340306364,-519.761212916933,-595.948196365976,-567.821865073781,-555.534943211052,-618.027321695906,-553.04996575387,-574.096987726102,-646.056094337848,-571.729701459032,-574.122898200816,-650.423497917957,-582.397087632088,-490.834577801916,-603.580560001563,-516.717055746747,-551.918368065827,-493.103385928464,-498.301884748408,-512.180277465611,-349.737326580005,-549.219663231242,-597.526519901656,-485.168419812092,-590.505354292805,-571.973451784722,-540.957771089379,-584.370881271968,-612.654947727032,-647.922451961213,-489.57080429105,-584.726484899972,-632.808932109394,-664.785182682354,-673.268805385771,-528.669051833333,-616.393072804725,-691.723403814548,-702.43685970792,-697.322178887356,-750.029285688901,-738.125472713732,56.4346221967188,-348.055705585014,83.0160167347782,-139.429503713373,-691.394243526342,153.006954483041,48.132961606548,134.759998794294,324.276505120157,710.564085244264,376.165120496785,159.635035395661,1010.78726863195,-33.6367287260709,403.974610558538,936.109135266187,984.128427492647,-71.7548348785312,933.543476882141
-642.515741142406,-604.309395043983,8168.95149427089,-602.258755823952,-592.605605668523,-637.590003036569,-618.990554681952,-613.423189010008,-662.892176874632,-599.56181576001,-623.063401299497,-688.741621778163,-615.546915563917,-609.154334800348,-672.395031347064,-617.220109587743,-488.815966283268,-624.54434487086,-550.641166772805,-567.401815812063,-525.697117892078,-533.215442817623,-543.316784342388,-380.28882734793,-570.21532934706,-605.531637147088,-500.682140479917,-600.253223058563,-576.231271843263,-534.832821710482,-575.054593882958,-609.516066874661,-632.09599677747,-481.368243351301,-571.621685962939,-620.021873602667,-661.189727222654,-675.856334078888,-518.743533434794,-603.822492323933,-693.015015502011,-711.289721320238,-694.934836684526,-749.385183494529,-755.845282653361,102.957061911651,-409.032714302274,75.3248341221869,-189.204613404623,-701.466101370729,158.056404991672,55.3122344770591,95.9842838337617,325.756471817514,788.15925095005,198.131530630998,102.534161234517,962.091580253879,-115.176559792521,367.416928289474,937.628464673752,707.811480886396,-185.345310662568,813.17998078255
-671.527879453259,-627.263578990218,9039.61959755374,-622.514918721274,-604.846574517982,-647.383302520361,-627.54889383097,-627.455053151657,-679.799103846949,-615.183662737539,-628.518627269805,-708.936984153536,-634.489174926621,-614.575656580796,-671.445091182933,-635.90519339362,-487.934754877757,-624.678719769095,-567.548679912094,-571.536734809834,-528.348013611823,-564.359241761116,-542.3613410203,-385.665581133384,-593.776252474138,-573.81053890916,-500.753333012058,-591.196391151903,-549.559213774741,-516.300119105294,-540.470188505244,-559.524849853024,-572.752228496722,-456.144255737499,-532.243713865282,-565.104846148497,-604.629102941973,-621.310085453752,-489.543756532812,-559.025907948481,-626.939804951108,-650.209489982146,-629.465325616913,-668.012044280416,-681.58165427951,120.839365719202,-574.184837275995,48.7141910782031,-313.480364464161,-594.437935112704,105.653413528372,44.6957798522646,8.13046494059684,240.544147923745,717.831696100532,45.8124795802286,-33.1242148032082,796.943414911328,-306.77145352729,229.190668888989,882.204394004858,448.940804014647,-357.090878883489,777.802094780014
-615.676501270922,-570.389524368249,9680.69464791356,-562.177468431238,-542.637223072969,-586.105457494195,-561.951371968022,-568.891709415069,-617.45462596634,-561.558853188376,-563.731669350844,-659.250725492481,-576.875940573331,-554.354808041361,-605.220745969943,-579.543066699705,-435.506287243477,-562.116245539243,-495.285871292808,-517.760573596425,-455.403015018598,-531.515107988015,-477.539371782707,-309.568273625556,-551.95235689016,-482.647020643542,-446.476637575127,-526.053806421688,-451.095061054461,-453.411151756021,-450.178384616868,-436.719198132084,-452.448372797658,-389.85125675485,-446.829736661204,-454.193939400786,-471.336860480497,-493.320184710982,-411.553481652896,-452.59345344112,-495.321488420188,-516.323309337366,-494.90484862304,-512.52435646603,-528.38760429724,159.68526845121,-635.854592197003,115.913998580409,-311.245819057513,-252.352412439354,59.8056911957131,137.140738090217,-51.4774315237387,234.815463663508,674.148712995012,93.8375770162241,-80.7631723131858,741.389705221082,-408.455997707824,172.405827887221,911.246107917107,475.281105222575,-412.98179026259,996.509962223761
-504.450738569197,-473.740413546652,10056.695143852,-453.506007626383,-441.666196609018,-468.597296324686,-450.469554084998,-464.435076022582,-496.647584776644,-448.928073296132,-448.411282631445,-551.289700006773,-455.601272838018,-438.267687935732,-485.515856523188,-453.729442336175,-325.782512168003,-439.565721367248,-338.379871320896,-406.174898763071,-323.417367625346,-425.777867925659,-366.334635931204,-173.071527951623,-429.057735411521,-355.936156143973,-352.08313173595,-407.263005943192,-310.619537681384,-351.831358449713,-323.39921362351,-284.748033662204,-303.38616135057,-301.022888435816,-334.274644038829,-318.508998518437,-308.507179565062,-333.546983540097,-306.407649081558,-314.484770237508,-345.533807717058,-354.768099808548,-334.142370158143,-337.083249861192,-354.808256215182,241.052511605263,-454.930166944122,308.482140904743,-79.2628385031151,206.97654467474,16.1425093299739,347.016736653006,-83.6605756765102,335.965480992274,759.008175085749,308.773225184423,-10.9993298481254,846.175236725317,-339.099486857137,237.62021535675,1061.53630786299,786.235975848855,-304.134156073984,1339.75849769658
-374.819730017028,-366.622336121606,10267.705628178,-334.260547203857,-327.839062307418,-335.264159077834,-327.935830219861,-342.879678145381,-362.500439455834,-311.908183427733,-313.147091768893,-419.507432766462,-318.57803773683,-297.601730401923,-341.233720128323,-316.949244759141,-193.159071841946,-292.15421324682,-183.439456847465,-273.42262916627,-185.887837727212,-286.05726625454,-240.715686594358,-38.9139911410447,-273.750258309929,-225.389333881563,-249.856702321201,-266.257349126341,-178.064734093502,-239.853582362306,-197.827453159574,-151.98908276323,-164.798585600973,-213.338365703696,-219.083934769454,-186.555395491248,-164.225317957249,-181.758211435055,-207.362932100217,-186.77594213181,-199.931511003731,-193.130870591033,-174.506794099379,-162.926963763675,-181.588806611935,318.272702811536,-48.4072987494084,548.216035801187,346.681998535426,617.859906286964,-57.0605888174607,635.619518658566,-149.146643468333,457.998763280696,932.673542557801,545.449203175292,87.8708965363501,942.220278609837,-171.470202825901,359.02292094679,1201.83502857193,1095.31385398853,-94.0202341666496,1524.61764200554
-239.759978861773,-252.700415454188,10377.3141547501,-216.445914267316,-210.403096462745,-213.936291936101,-209.478447386821,-220.862372214492,-241.841479596718,-191.041309029325,-188.708897966086,-297.236450777352,-207.047061872388,-172.453975246508,-210.020160570766,-226.148357898076,-83.5006062057156,-171.720158645054,-116.422928629299,-173.381077867534,-94.5617649999828,-170.734970328101,-143.331827345908,40.7594839226581,-159.054919805082,-129.826061919383,-170.409683927971,-155.668020733958,-88.3300750606427,-154.956145876524,-108.965226523528,-62.5430738643695,-71.1795859114273,-141.644619394914,-127.687196701293,-84.7075286356241,-62.7263642708874,-64.6999058733278,-130.717474565876,-91.8434178553935,-76.0588440578093,-62.3779512026152,-43.0002396058438,-15.0345739107384,-32.186948930754,329.735489247241,412.573929813403,705.383157712992,791.812391575607,904.803373583906,-124.674467693332,919.318041898217,-281.584984631704,499.552372633971,1073.97055039012,748.345148409536,136.052610323601,920.658545577858,-35.6615274937986,480.742475790245,1198.13402606112,1138.32024158795,153.350692666377,1396.68693012237
-148.779053765971,-172.525634404741,10521.1967477064,-139.733387113889,-135.256172050788,-148.035892616301,-141.267404086865,-150.288021427411,-183.267813410035,-144.3571778734,-129.591218425564,-245.075402890721,-169.827586050435,-123.843584051697,-164.483594200281,-222.130080516863,-57.1710700240191,-145.002346437646,-164.273193294033,-167.726433928328,-96.1283824198124,-153.282180888904,-136.418128165498,26.4232282244487,-156.787380035758,-129.89181543066,-161.044472765499,-145.430456654273,-83.8378744104153,-146.947934053458,-102.402143174801,-52.8230973159069,-63.4795586528518,-125.253218675054,-109.493078937985,-62.082106857808,-39.2710689357491,-26.6068246851667,-109.611370479578,-64.5866828650302,-26.706705267131,-16.0092954994736,8.54849220724308,44.6269227472616,29.4064089965246,276.322964693008,732.421718120735,719.440622337629,1062.61022513501,1043.46017668293,-123.782916293129,1103.38711435566,-434.269968837387,409.448856855096,1105.91368168752,943.174814469525,92.83632698351,879.376833805054,-36.1568683422493,475.56076224256,1049.39735641953,935.365831075459,316.623407876222,1062.25261166489
-149.200361801173,-166.58532733399,11994.6085967051,-142.564266850445,-139.919296698597,-164.125654716294,-157.825950606279,-167.505560079849,-215.71266753666,-187.778725710868,-161.709114147878,-287.896416632951,-216.839271692964,-171.905340426718,-218.287279945161,-284.128993646545,-117.500250302686,-209.374094860436,-261.267085805936,-241.879191307395,-167.995267024065,-233.140242732143,-212.000114148801,-63.5926536700375,-250.900756949375,-216.852012786031,-217.494656113764,-225.703768469658,-156.102326331819,-206.685034511356,-167.481421522374,-116.261910228701,-125.626976954546,-173.833234504239,-166.42141781974,-114.497166699181,-84.8098161283843,-63.1176411224908,-151.065163111187,-105.68684305292,-58.0425857796577,-45.3729786308537,-16.8961868666316,22.3763790399565,3.38869357598423,203.816822131267,870.252430587711,635.232550473906,1122.45100281257,1071.82933820313,-89.0726394511193,1190.32320196934,-515.551252708741,245.311273517427,1090.54373254971,1132.00802079758,-34.9976708188778,949.058026195223,-175.573581360251,199.522299586908,868.565692089585,749.097778796557,246.607885166301,806.596258539502
-208.631585993941,-213.497434559064,19298.0544389413,-200.848532905227,-199.755450015336,-225.868204647461,-222.997596216579,-241.259570086372,-290.197835218441,-270.535100828359,-249.167471638549,-364.003095432119,-293.329631507286,-269.549822470185,-275.956543346577,-324.39634628499,-180.911483788236,-267.52229809918,-301.907906680371,-298.775838964793,-212.10143526899,-306.388897436492,-273.435166394773,-144.436037561081,-321.01471956012,-290.410999268249,-264.483792105231,-291.641019170055,-225.06222465764,-256.814291616569,-222.366541146887,-179.899339552309,-184.509060466567,-230.543295009481,-227.612391383277,-168.04392817894,-133.87673388252,-104.896677441347,-202.573060624577,-153.912456629014,-100.618718662993,-79.5455146305343,-53.2676723145397,-3.05144982418307,-28.831035332951,92.5038133555866,861.4897713027,450.758414196524,1003.73317780925,1067.12549089692,-152.519222556547,1199.04614853322,-518.932677809153,70.0334604626149,1062.91816046883,1233.79791098018,-221.106577576093,1060.60260589979,-372.83056226949,-268.595840344648,754.767886808192,750.965309288088,-33.2742295230078,790.10245621223
-224.899741414225,-225.620566277784,34270.4285435064,-224.884384274431,-231.635179743021,-239.308532504846,-241.67715829292,-279.59089542551,-302.303708093952,-304.398830842686,-305.427612102667,-364.183339693844,-308.251596768883,-328.163478710317,-229.067050030666,-244.555497401162,-151.324221674405,-217.564250878385,-219.425279648227,-254.980832565452,-145.983988144769,-278.079948034164,-239.17563282217,-121.233534494781,-273.226026713083,-267.260363001372,-234.430391984398,-262.484940561076,-216.066681527991,-230.529220573183,-197.343309910675,-173.941329297205,-175.105291473009,-223.63559569072,-216.867332920542,-154.959990063674,-122.67000481773,-80.8880522755926,-197.32593611925,-142.87568809189,-84.88493922755,-57.0186126775278,-45.5182103004426,21.3126002641466,1.67002648890258,-100.539589748225,641.114634067036,112.933927251763,671.053649626601,1036.84850691806,-343.981536008071,1012.34300871391,-512.516818307811,-127.109807842359,844.133177168971,1102.66568016181,-407.546285456425,959.683766834182,-514.441994480033,-588.041734095566,687.67680316253,823.84981438073,-256.158720162774,880.312706987211
-148.554752420179,-143.994257874904,45503.3304895809,-160.906951593425,-181.086581708584,-157.983982176218,-163.536515102189,-221.230561469523,-213.366056799551,-248.658777416959,-274.838566574996,-259.520052145171,-226.74199338437,-299.309114037337,-96.7164872781393,-54.3619098494669,-38.5560022495827,-82.7554634477791,-52.4628654464396,-140.940832067013,-9.87682823024327,-182.651951383268,-156.04149111895,-10.9149005211637,-168.752847061531,-196.440960319843,-153.674074174372,-186.713955974675,-164.621044448269,-152.871501576625,-126.780187129862,-122.027913707265,-104.520648507309,-157.159641331649,-146.937378581766,-95.1155526365567,-57.2197902480906,11.8600294743891,-139.868284507136,-86.2866034765088,-25.0248891405891,17.4961626813582,-8.73734638175104,72.9293601068939,80.244150867409,-339.638288427882,82.9955718488157,-317.283353221038,88.6333463474698,876.665137112406,-562.784985817879,423.678277365585,-546.079017808174,-365.559023465483,166.405914979215,589.243711015776,-511.330611131554,384.903537768824,-543.312137142142,-559.183144053819,480.923821669228,698.467681348892,-236.101972058722,811.697010806748
-77.4994299828734,-50.1076149628112,41058.9984784061,-93.7190521704684,-122.355422816535,-81.946143493359,-81.038295134704,-147.102777661892,-136.523036015102,-196.542019224972,-237.750382965646,-182.1199543461,-157.929537551217,-265.132895719399,-38.286208472652,66.246202476962,21.5532561132604,-26.4792364022982,43.1325551286233,-93.1635057282256,34.899969514955,-148.527792239097,-170.943709242023,13.8782220341291,-152.286137080957,-230.142852583582,-135.830675579863,-199.609692725894,-207.770261379343,-138.457902859036,-139.07405874764,-148.667678267718,-86.6725577497544,-134.172397852795,-135.621105415892,-102.775536128489,-49.4749818539493,59.372283484455,-129.421842803094,-92.5398003123784,-33.6226142843001,39.2222484651813,-34.94509137686,58.0593345496399,98.0124405402534,-587.807055548932,-775.955053487932,-715.806226378636,-677.856095237958,467.938136363011,-779.890461393221,-584.861003556787,-667.50552768586,-664.777394274218,-946.781457758275,-305.610767562303,-568.637823347494,-675.545582609765,-555.266711337032,-464.4937182344,-79.0560901794551,133.570812137226,-170.216315633828,369.63746829953
-111.774901964572,-53.9371813030941,28917.5098082531,-120.38482596055,-146.030672169677,-117.901233106931,-102.856144668424,-166.933873216172,-178.883582305985,-248.168815414619,-298.436822120224,-249.210259852752,-217.131728436651,-322.912597050279,-146.892837726606,-36.610975489303,-38.4848936095229,-146.767236104099,-38.0991187987702,-168.392510763442,-89.680506729058,-212.575443938911,-316.083728142643,-130.711114717745,-235.057399170296,-394.879508006785,-228.157109857893,-326.48557829688,-369.950081527813,-235.800700773805,-272.438212423734,-293.540734472861,-201.151739835305,-213.588299630044,-239.397134960994,-225.170737359392,-173.756815576539,-46.4233483437127,-220.000574952256,-212.366073838858,-171.101169142611,-76.9612682737807,-175.279498923677,-76.1173708083845,-20.3015309177463,-819.338209024732,-1553.457129246,-1019.11857441739,-1372.48258306207,-125.723023413783,-972.134000588036,-1553.9854701168,-827.831207181169,-998.125270082199,-1946.52464096339,-1206.63812930417,-694.017568685686,-1749.49936284448,-643.080297854338,-677.302540820563,-930.448152982593,-875.761692391291,-336.697606353672,-474.163475815301
-211.042788552525,-137.32553610602,22023.6403004339,-205.355827294715,-220.418629176083,-231.453546134957,-202.258978209963,-257.653953853465,-294.895308153955,-364.959829349913,-424.487590664937,-409.414563840186,-368.154050064078,-444.167089936334,-346.21949256339,-326.39316581451,-129.927711095198,-381.970378564964,-250.963925196261,-286.867265874291,-307.560258202638,-299.090412558356,-480.743721475107,-318.430447877498,-306.00912747623,-551.1059154926,-354.311163326043,-450.157939112988,-514.803083755416,-361.54925129498,-414.321435758139,-437.338816740326,-364.268627729377,-329.469268268612,-371.446159023233,-369.810013015071,-348.296512258801,-251.781652704924,-344.467926542692,-362.511867838535,-346.665243112954,-268.666276174722,-359.961681893471,-259.863280123366,-214.056046799191,-912.679696113546,-1789.5016318864,-1159.19088021871,-1647.14035999425,-647.67871152632,-961.74593510363,-1863.04646381862,-805.183088614626,-1192.95148510162,-2236.36436098338,-1573.18891754088,-816.136883994599,-2228.53622317326,-709.410194180635,-1069.93081365584,-1743.06048985065,-1929.99539859831,-661.313451351509,-1463.43651092897
-319.048086074554,-238.200781125289,18166.0843098771,-293.308775495493,-297.232172892338,-364.393439851334,-319.295550979474,-360.855332780163,-424.124068485333,-485.838512056948,-547.058885604121,-587.464265333447,-543.378129065761,-583.134589566098,-574.5361052796,-726.76031399096,-203.412315336153,-699.603963974191,-582.242972596686,-422.784125701668,-622.543938889332,-379.025624695093,-653.029704905628,-520.121547462813,-355.462425628495,-672.128972955384,-449.113358250011,-524.044848396387,-606.103623624718,-451.90461699145,-507.498072570079,-529.642864630535,-491.058710595887,-418.71227683926,-467.651205084451,-479.467407174132,-490.25159027993,-445.282115847286,-441.31851278317,-480.377680408518,-479.179527221212,-439.691172023279,-511.019045522288,-416.19903473545,-399.339118041673,-746.937032641092,-1507.80580181036,-1050.53712807987,-1486.01267542848,-911.129863601369,-632.073285348317,-1493.39242313259,-468.835309476511,-1055.85836728623,-1890.4421294056,-1320.51268474008,-708.233168153056,-2047.59835898402,-615.836887117459,-1174.17770719339,-2189.86422052777,-2474.13356601432,-835.942586203005,-2162.58409530718
-454.307593171269,-352.618459617425,11714.97198239,-408.338044285699,-400.950980132859,-532.336527706135,-468.111152855788,-488.488918211502,-596.948885651025,-632.099021555081,-675.634610265884,-795.080785314323,-757.397967911646,-764.497180731697,-865.535255491344,-1221.52386431185,-309.918625094342,-1127.29694931187,-1108.98598183768,-614.20264411345,-1118.50621354102,-461.016258866375,-893.422519226678,-895.686606108791,-460.004761829246,-859.152553641762,-502.407814599451,-604.155136443014,-749.465623062587,-520.329549481246,-605.023760189985,-655.405639786742,-623.164011304392,-478.244345506971,-549.456191521787,-592.774875612746,-625.435529714626,-610.657049250922,-511.58874201705,-586.721411327639,-599.325553658425,-587.428210055723,-627.303429828907,-553.033003680576,-570.649169727999,-387.378344693758,-1193.95021840385,-730.673935371739,-1311.7414375954,-932.980918934179,-145.725422264365,-1015.13678353225,0.614613979911393,-630.417154767271,-1417.28761778157,-850.409336107836,-338.447662846401,-1549.80035842389,-397.90572086829,-827.988263974074,-2029.94287207004,-2229.79899147038,-719.375462343,-2199.01762851502
-618.450315295841,-487.3563685446,5023.54540671416,-564.940181522127,-540.270966750267,-735.44775250988,-659.781495010929,-644.174386059348,-817.311187299888,-809.54930873198,-813.868739378423,-1017.22030440514,-998.084553537221,-971.943968040533,-1175.94954749683,-1688.53923764022,-439.404176623468,-1512.42597805936,-1708.35932029012,-768.519507727098,-1611.20082905343,-496.674509016009,-1068.22128785467,-1393.60855182238,-586.827284180975,-1045.72852627372,-500.352125031841,-679.255622437474,-948.756516684474,-566.463733055918,-710.74560566675,-833.987106667288,-799.234999876024,-499.977296942774,-617.183955365835,-717.407290941436,-781.838887843646,-780.048316615197,-552.587378814876,-683.715556480429,-735.60994986127,-743.531607400764,-731.962731036707,-700.831153887391,-750.164717756558,-41.6335345747701,-1176.96244973648,-373.912788224626,-1418.59402592563,-820.282982815257,227.406401238341,-789.121215737571,300.082574027471,-189.95069214098,-1000.63737196468,-459.864809858499,20.6797327664099,-889.146494694144,-240.221343104891,-369.083599330186,-1245.94078060861,-1336.74327173239,-496.727298043985,-1502.76979806335
-775.243633956586,-627.032006073324,617.31234403856,-718.50139152049,-668.805031646478,-912.92427658679,-838.19513924867,-778.329318625246,-997.647515427065,-944.709734099717,-901.657583827468,-1155.50643367141,-1157.26953894194,-1100.92166569876,-1332.41570710558,-1860.38873233639,-510.119821144751,-1546.82185317666,-1965.78424645837,-724.227591181653,-1681.50429700513,-446.655470687068,-964.69154337221,-1610.27359051778,-629.280554195024,-1032.38346441572,-451.994686578851,-684.858281693226,-1068.36205942358,-575.468248357305,-769.6969685277,-975.073600264386,-966.880090983262,-486.453814928424,-651.400836228871,-812.080661298212,-923.863687982925,-942.299166952706,-560.722525475168,-743.816972609166,-859.658120195385,-896.760037211698,-830.155901473879,-855.33633131621,-929.22792219767,144.709219229341,-1310.29677767569,-103.682946890106,-1550.1326583219,-650.897786793041,392.944767174365,-677.411265256579,325.678631801018,72.3900226335656,-513.34802521766,-158.074435989385,124.214259682018,-114.117849186955,-270.498328230641,-171.830426238618,-248.980081831639,-232.529136390399,-453.228484432986,-419.53170664965
-904.512218130709,-750.931962426662,-3159.57572540431,-820.335290354346,-744.793115736071,-1008.27793739069,-930.692384008063,-840.92353757835,-1054.94208530972,-963.515460387411,-883.338866428596,-1148.07932165706,-1142.37330898454,-1067.57297326346,-1249.07029924446,-1614.96306385841,-519.335264104541,-1180.87224165315,-1626.05073153462,-525.016639091674,-1224.74175426811,-373.106837311431,-651.875460521164,-1270.10526604184,-583.597801676118,-800.149431201892,-417.704798716985,-623.328599077365,-1014.72150195652,-562.702434225545,-757.690907503742,-989.413910277575,-1021.15447805549,-475.245875364085,-655.609688197015,-839.203587208017,-975.927184408678,-1018.97064162879,-554.725471622637,-752.778933244815,-920.863422760226,-982.269242756451,-895.297818279556,-966.735408903409,-1045.22482483284,201.221001372165,-1244.08304562019,116.92433902659,-1261.28794073289,-433.389728081477,469.479743152317,-457.868405026761,241.901127878079,228.1910531657,22.9736248251437,61.4077750727083,52.5452647665328,540.153275403684,-395.54103280418,-207.238504202637,452.178712171441,631.472533821558,-617.920047864508,511.775450065038
-1002.35410513009,-848.613892129988,-7173.1108113075,-865.446174044315,-771.337635157871,-1023.26575532116,-929.641472770701,-830.937942176655,-1004.14160325428,-883.382253783352,-782.886945308543,-1059.45399500226,-998.441331498453,-909.398716910837,-1072.87244782135,-1177.27088558337,-566.578079350383,-769.620493335724,-980.845241788132,-410.52017893242,-658.281895155677,-384.979110689659,-416.72247340675,-631.23409375536,-531.541624322337,-521.96864055154,-439.914669198133,-530.58692240335,-816.61888054057,-538.91585658732,-674.775758066386,-853.063991190863,-896.45212427415,-482.699542600159,-625.197928628275,-772.738110837852,-883.549945944032,-935.566162658101,-543.647940735537,-703.53230186841,-871.153289895369,-933.6746462351,-877.305652628072,-968.97943768117,-1024.98493134271,232.88162631559,-879.030339720335,343.558115521936,-551.204721409771,-188.864411401839,557.371277331598,-127.055655317356,222.431624024868,401.266450703053,440.177208862076,142.936889547774,13.0915776346623,868.272793069633,-444.508299911721,-226.605533428172,759.143409434485,1039.61062747013,-790.931076081329,946.919979743532
-1060.35776959432,-921.518865434661,-10409.2662383148,-881.00346660878,-782.172372276234,-989.46504439664,-887.380333718299,-793.181477947056,-917.982580947228,-787.758991547972,-691.216879840056,-973.995475621039,-850.602232951243,-750.065487894675,-963.400298422982,-852.994884648084,-676.360574204934,-596.561416610661,-541.101128064269,-462.445227923747,-377.191535566549,-450.914104364466,-338.916417159961,-158.541423875131,-448.948220604765,-286.383592537685,-446.80449013157,-380.374188610995,-538.007113650213,-459.952354022999,-510.796507156193,-620.36851498149,-669.584769555821,-458.173612443469,-531.576277935652,-614.956109848311,-686.45298548844,-740.846412310027,-496.804910255829,-590.799100830562,-712.641840134786,-770.584803791901,-760.142542064631,-854.630620679999,-886.061424266122,274.30021414604,-494.033226411409,517.56857819687,123.705874330204,-51.0574912285596,581.230395799171,159.814745424811,228.726463717293,528.24212638121,652.17341893924,107.203868805871,5.4549810104844,909.146958166077,-412.730681467781,-196.111493053474,847.668940870812,998.100491298584,-887.012837574984,874.531046465537
-1058.79315925026,-951.882075740271,-13002.6211222754,-869.455825258066,-783.38471887539,-910.039023530838,-822.752559074395,-749.041813838425,-816.059809302814,-706.626851692639,-646.778251288066,-864.337290709713,-730.786175379122,-644.116276276688,-849.033324238857,-653.185633647628,-745.892282904085,-491.895238811432,-432.724721010881,-501.775829603218,-273.908085333563,-388.924755366884,-217.374450853539,32.6417065117313,-210.921187969647,-23.7103779233637,-307.978969691628,-124.194457629043,-202.944921974858,-271.571452892259,-263.165367200549,-361.426717579715,-468.176231640037,-335.883078714144,-351.901047491164,-397.690498035226,-470.206341913449,-552.030324172087,-371.886590824653,-416.887673391883,-502.917884957029,-576.010392897749,-584.002364791966,-684.268960823138,-716.442132850686,300.110980987858,-380.534795911344,560.366372174748,436.31199724046,-144.68803069999,447.690458610683,257.824473081951,152.519074922667,476.122755805042,664.234799574375,43.4460399488775,-73.1495003072393,797.556880259472,-371.512465703329,-249.391856529222,783.807855682117,646.095825520024,-964.998955369679,505.49192920129
-983.008512147599,-903.151933255089,-15132.9997898986,-795.57143530092,-727.085714104526,-781.230950042404,-705.775375938581,-659.346170660778,-668.613534040931,-585.505269495544,-563.614934900475,-680.363582880986,-566.956275449734,-508.535591454787,-616.905854642262,-400.541122948502,-773.891214434697,-215.181433648684,-394.316869216369,-460.332602972865,-97.7239300371277,-205.821113246062,13.8250933731458,99.1399160129401,103.727671482067,264.395154961372,-76.8027811139722,159.249250395069,148.86176937807,-39.6813746210187,8.76878104814037,-96.5742560619606,-276.471021024713,-162.243186123237,-130.60155249037,-162.768423642442,-255.718526759786,-377.576477725469,-204.6570685315,-214.947201635236,-290.197845225419,-382.340295606826,-397.173786568237,-507.765809852772,-544.06373951636,304.80589486651,-449.340782667167,495.138826458592,499.625041533421,-339.115940566606,237.336866705973,198.017362673675,40.8255390431035,282.219368540504,546.624501005087,-7.47450660569016,-158.0311459285,653.607906881267,-272.274539445691,-329.296210786022,622.166602669527,256.439110277074,-954.60789758136,155.870358988538
-838.418331280647,-768.906490882142,-13841.6107239282,-640.543265227338,-575.993825491622,-624.969336238114,-529.977176686676,-488.760824819437,-477.040079303997,-381.460930560968,-348.394259272524,-463.935834409837,-331.076476767693,-258.081593018556,-355.181275360503,-76.057703284841,-857.808487871276,114.72409613453,-231.642554015959,-462.359361769771,84.4685308937298,-148.20635482464,175.769031596448,124.259403592724,209.52336296998,442.741286048992,12.8913857795424,296.118539681838,425.595733324559,74.9397761200588,198.673555384537,160.914264626775,-8.89729305179508,-71.1996854833565,27.3007324337519,40.8155446325103,-22.8782094591355,-142.317690049812,-95.6019830134308,-49.162430932761,-90.4116902650971,-167.442550993412,-222.242866421837,-329.186972986931,-333.066403600841,319.784677689191,-354.549902922441,423.948699786009,581.469831044351,-286.183050733762,136.535788420993,218.213339355183,36.4307215291756,150.447513165997,474.599595117226,0.0351231542937924,-87.4431414840456,642.28379224288,-41.0724283772407,-195.767921514423,610.013425186556,136.512233922026,-661.278422714476,112.127053026802
-648.493700580686,-592.256061431801,-7218.81398757279,-440.491155004494,-374.81537455674,-455.305661888992,-329.88233816157,-272.649777510645,-269.214268721922,-131.815086719839,-54.7329443209123,-261.319337501742,-75.3177288053749,56.8519729064517,-158.999981494253,219.86573855078,-869.671577054313,343.530623283137,55.6508540962158,-401.571676649927,245.279149180853,-204.360665533328,288.354663860217,221.072550486651,94.8514918395241,509.094697671069,-68.0169004703762,267.271659792435,576.647289966083,48.6238860766708,266.749938417702,354.546856668084,267.574633399891,-78.4043446440215,82.6554811102744,172.628406254856,185.651452272437,115.913146862052,-61.6046797469484,50.1678906265378,69.8200819566408,36.2640315084955,-79.7265845577514,-164.070156127581,-116.165540627865,353.0795517821,13.2717935657214,406.199321368214,746.758399973201,138.708936124949,209.38369315452,469.642053641326,151.329796669325,206.187012857498,578.433390830895,147.695508512359,140.596583192197,852.245234333178,238.120595937565,199.894726209891,890.576425028199,355.136537764365,-104.09560505794,389.681055454816
-457.39903383261,-435.042989544673,-1593.7278318757,-262.185111448943,-213.618029968675,-275.535726055872,-146.806968237673,-89.8545416995794,-64.4458539471597,83.1105551002212,166.968818977279,-54.5281626173498,147.598950689306,309.685456819168,58.9614722687963,488.572775544422,-539.826274434329,594.74517742909,463.363687193298,-1.52918393020083,672.106772453431,-34.4800338610756,593.06846253905,626.531755802669,85.4455055738293,625.259934981598,-66.6286186564887,230.826338481041,653.174937152709,35.4792466153148,275.3877148298,439.175970344662,392.691514092048,-63.3184275686506,101.658346136004,231.478595795658,285.790286157403,248.352579195894,-24.5093625436193,110.804531740785,148.157724956685,137.768997709234,-3.28520928809296,-67.7232803379124,-2.21086699655556,331.33475238925,363.335026144736,376.440196132613,841.737214128579,600.061571240042,304.092656454271,748.542712280219,223.999848675429,324.472610380732,720.139975938252,373.561084934989,326.116955589161,1071.13811515703,376.04607160903,563.666881333676,1162.40188972976,618.173524509605,366.757783265397,641.861710110577
-311.538443842331,-330.450676452958,-4297.5241627753,-146.695203593405,-126.648573476176,-112.132465282734,-11.6424224414706,15.2915095179666,105.014988244425,211.315965578486,253.460961106242,145.950060726367,303.951041340659,438.364966702089,342.859518812842,731.990288450585,64.5059892276062,897.165360372933,938.182252929127,585.99950329486,1334.52920959989,403.631964333953,977.902239206578,1292.80923924718,280.333944690014,772.655709120396,123.502127914651,254.767075993776,700.922181939532,117.886864529822,281.801176819163,440.535824075661,364.233996685271,24.8379238883985,137.281923275081,249.657903948277,278.003624185072,226.342706603322,46.9583283999015,156.334626461855,151.257326857495,126.369211025271,7.69551942772443,-52.8715110164419,-9.6403991738763,184.242140084654,418.437129293743,241.55158962103,734.810887364583,746.531652358431,246.927124940822,761.216030097136,138.92054725321,293.782923166515,639.794194413817,474.08171754226,293.849649029531,954.302981154775,289.938458881524,583.459353163667,1000.93501576108,554.558852028194,433.445413348318,496.208668923558
-213.671224981598,-253.168516019581,-11518.1888277613,-75.2844210722287,-64.5371710757504,7.0860672746005,70.3922877992855,71.2160114862465,201.010344170794,262.002534132839,276.064361911707,272.143626235648,371.178514335275,475.518525678432,543.284494622505,824.684970357251,535.241227764593,1000.85556444097,1243.84954876408,866.341592282779,1648.71948333679,720.293569614161,1029.71120178261,1724.63353700253,415.084921808641,757.566213944698,317.125678450347,267.671617841451,677.196124846412,218.189063344801,286.865424811136,423.758619814513,349.934278868646,127.504591734863,183.99769178141,266.280608653135,267.504804013028,212.034763955878,120.447097001554,191.760925943658,160.76426127902,123.939522852989,26.4960252001048,-29.222286903193,-5.41239443352529,-12.0003947458715,278.991742137284,44.5558263444324,491.904024565339,672.25093367718,78.8011388318856,543.430872587947,-13.3937621514678,114.502657694427,326.245823091719,379.204447787685,101.504822825161,465.371666205691,101.696920067989,307.752287499773,440.019644495423,123.151762988428,183.234714954296,-12.8092024863335
-123.155064568189,-152.810450302368,-15663.5957988398,-0.673774784635153,25.3322405338769,86.4883015945498,125.876422037911,132.954954554271,232.546872680074,282.97369482742,313.508254737128,299.822474510823,364.516490699046,476.176729006768,547.140951292426,702.64989362733,639.442841485545,807.621296213924,1182.53832700987,718.177447050713,1336.33370024824,712.351063388154,729.369315324932,1573.24472037441,356.350035614423,586.863335998924,379.357048889789,253.61805066761,562.014179440597,273.669357295686,293.789289149791,426.901914106039,445.704693697391,208.649147315904,237.628458830892,306.621028736144,329.314750805161,326.395061108125,186.791881184703,235.383032654124,239.802291101891,228.349712076091,118.122988575857,82.1386378937281,113.083091975948,-102.395727255259,204.122177707407,-68.1009407583604,283.068440160689,649.515447684646,-16.5564753190433,342.316444567348,-79.5368110977823,-10.9264100105158,20.9951502830403,200.598324051256,-45.2670174543207,-73.6019634350217,-6.31445481953869,56.4538102879687,-77.364171194222,-372.220455148066,-40.8415476141221,-500.862460527957
-6.5665845274626,-17.4605164498861,-17206.7407264908,95.5961032420623,136.343119609431,150.016128424367,184.745228013376,214.679807771678,250.217725813889,309.226584671259,370.974327105716,286.521284464676,334.778471185449,466.527625466497,443.67736916437,499.740512645071,537.456837357108,546.498469857789,873.532080780242,491.517395069772,839.274037803608,587.773638934388,475.617026247384,1085.84350010766,292.691153513649,457.115431389445,393.215178264265,285.834210355929,444.807712440714,323.845203023072,326.750781962987,446.566854078814,569.72118697443,285.40599484969,308.227791186589,367.286974082641,424.70302529926,487.072822461298,261.84747864099,298.37382236827,351.882218648576,380.255093795157,247.703644647812,231.850133559922,279.581326720043,-54.2212795285998,232.815885170411,-29.5796179040174,187.819742157424,667.15122307194,24.4593882390736,237.045961790494,-51.9870424814871,27.0646606158982,-112.057753312022,29.2697620772683,-54.3712525273346,-366.571488592975,2.32652956407115,5.83090325223313,-264.01738618756,-638.829864118918,-71.850838981486,-682.897029948187
137.527423742843,130.475176164679,-18745.4710056938,206.142566704456,246.046261327428,225.914141963848,261.592668081727,301.691383781466,294.857165995329,353.00771515893,435.773516189867,303.317067792902,334.679889643935,465.97995657532,387.493830916431,386.389989421131,475.264468472551,436.836720108359,609.588780757256,457.505355559737,623.439949002174,537.234199531842,478.169200272556,725.704012053001,395.316167182722,469.356419578921,460.572243383783,407.715662196613,428.227720886692,420.25441686941,402.202704954633,479.441940256246,627.530801082276,372.230095366762,398.46476073045,435.534791216824,493.812478799132,573.70599489287,346.419575090047,374.850628161396,433.807823472381,476.509149024307,349.029622817898,338.155342890734,392.920601882848,35.5421770597096,250.033342833039,86.7747466931612,180.307363467082,565.227990465279,91.8181691241306,161.238075597912,-31.8183925896451,123.375654539549,-99.5892525197143,-88.1566140912733,-18.4024069929956,-380.016651465113,26.9806870544238,48.4110156400966,-219.605284490145,-628.865303609021,-11.1215183911238,-592.530256984938
276.518588354164,260.651286199092,-17932.0103940467,313.088225678172,342.846704214407,318.331238978186,346.418194344186,376.987736134734,364.786285921292,411.796162460321,502.32776131655,359.548132940093,375.703829737611,487.417010521737,410.893334557961,374.395269218693,485.970744383587,444.637372407316,489.036904583845,524.974372585783,599.800545210039,493.306137718261,555.830729814543,565.520328583978,561.013777353021,554.142199204699,528.471724150766,552.598983085083,487.726481057278,520.818652938007,487.444926999174,509.938448129646,619.997063132851,437.323997337843,475.455219308727,488.221538716388,523.466458433449,585.085253109167,408.86552252769,438.853781904426,469.584231243349,500.752462379244,400.229878726052,386.697691337224,443.593295184681,82.5187473193214,250.048135938236,161.852969769565,219.907142256092,382.494782498039,74.5311952309799,119.957869867123,-77.629223488095,127.389477288822,-24.4165245710594,-91.7763573331361,-51.5313496927024,-251.711460394086,-9.54392185431436,25.6394101060112,-158.38520201104,-471.006052075001,18.7585734482873,-420.060921198689
372.547499089474,346.142229298436,-14418.9880434609,388.483290175027,405.738949786158,397.596092940663,411.307346820952,422.138809182545,432.512324039074,467.878429865721,547.299128136999,416.864253164784,425.915711744829,515.252899153184,440.537222891597,356.790413977985,466.263322491379,407.062483413402,368.690049160948,485.450915592582,408.360675740058,366.605832117993,480.135617658067,305.962231184852,581.250863801455,560.633545477716,491.892420270142,593.298095292242,486.8430917112,529.572770882622,505.133534144023,486.37045218095,570.714907850641,432.727754116071,483.728183308867,482.58597749794,507.267311851106,559.774686332286,411.945463802608,441.521402666426,464.706470985309,480.66229661753,401.484118108251,387.277350251575,453.802944612643,84.0282969854809,332.623843530867,146.745684133743,278.916068288153,287.234264368105,-16.6702836181266,149.495458923212,-164.315849185898,23.6969374294356,45.4978735553562,-1.16348020944914,-143.433126613702,-126.920185433753,-81.9525224661347,-66.7856728803166,-142.003184525807,-298.066478698889,29.6491438223038,-281.735000350597
437.922835638761,399.54981238316,-13426.428720271,432.825337025275,434.674437272372,457.923217817337,454.932659775248,444.296382461749,494.664758293627,513.820954726465,561.351120368405,471.523225622671,471.150993069746,536.525532822736,458.993021937828,296.786974709533,408.020581187587,296.295313612499,150.600637107002,356.705379246566,-10.6580423842142,263.81953003528,304.398060907392,-147.703623220016,461.679198108474,436.739602958391,398.609741743931,523.340164831299,378.718498949057,460.680641312225,448.816302481179,405.08851545257,495.286719331508,392.894826313761,439.432632489226,428.336004089623,457.130994665917,514.341086835214,383.796269283925,393.625748217992,440.435352517117,447.582185782877,383.921094772789,361.65847278302,443.786466371739,94.4867681703713,535.573078011209,102.422529446275,352.053229200106,326.238136061878,-86.9853069244981,213.16998771336,-219.126254067084,-70.9615534593205,69.3817766012985,69.976775200595,-183.940102200871,-70.6580705426223,-108.886048525514,-117.544410494847,-103.197186584068,-150.675185389614,94.6467463615725,-152.306494580691
524.73601015518,471.956694676274,-15908.1416144182,493.044849094559,474.656288302245,536.908493951499,512.969042241528,481.745643898483,573.144760591083,563.81864362936,573.865639632552,556.321228599915,534.406919223944,561.97324627544,533.965163176479,274.70670788726,423.081462477138,270.559801913272,-58.4573603428339,364.18197330672,-322.333395516777,347.787878009397,280.636611918254,-446.611325378227,426.562070997953,332.17215476052,412.721020674425,502.842859060924,304.327080025966,453.566419669561,427.031652314771,361.054766871777,441.254296494773,419.967508670751,444.36210078472,417.103660975777,436.974605719012,489.021791093352,408.491503697329,395.906070766688,447.69541915664,449.671528484139,412.78401387584,367.814081422355,459.351673204471,154.814444261047,769.410189808757,111.608137690005,448.661495411036,400.801028805123,-68.4430899405187,259.540957609237,-178.79145100637,-64.4145064364059,58.3648930174045,69.203252844188,-111.354210328213,-66.6123801135271,-40.5734923184734,-66.3434930912552,-16.091447946755,-22.2356907837208,224.293639236586,14.5115461945741
647.281323140274,585.01413694479,-16350.9276688098,597.261941181273,560.412865342047,646.8777481787,605.36986190179,559.378033002655,668.087157286202,629.035115570391,618.504233481669,666.723031282585,626.620677207385,610.406454309209,683.663284212351,364.394499902696,572.721940754252,441.305796151343,-40.294153826088,595.344301015902,-197.290942673175,585.253472111798,504.88089795056,-241.802720573634,588.761115701157,409.151736522307,570.708074297054,620.720260042057,401.421638752444,567.075700946818,509.710925204647,436.398609745253,467.294352830904,529.007053635231,540.064556344973,501.010599295608,496.898606499916,529.336304161958,503.709178348257,492.247812562309,515.095065227565,509.591821982084,501.24450731681,435.672263286903,525.226068084027,218.409275279857,870.27837435596,146.200442325107,505.101245223834,377.740391790779,4.51849033585332,247.509986486593,-68.2816997081069,-18.699368430366,22.666756177144,33.3702078361789,-7.50398926328901,-87.5767493654419,84.5620849460279,14.9866994561221,37.9505346963424,46.4843803837475,347.308341030542,158.574042036611
737.206074981716,675.779285440713,-14064.3871697736,680.803249244539,639.560688826939,728.756814972605,684.299553145772,634.690721055256,735.548878755527,682.870348342977,673.649600203849,745.452871592438,706.423329271047,672.432344361145,823.19850593978,534.868406898149,765.168124427711,700.526150610951,294.901558068226,850.900961499428,307.280787787081,761.542380393647,782.33632653488,347.33051603988,771.866980237862,610.446941062818,706.877416396536,739.893328588794,603.74795368721,675.283547717359,612.518258630923,575.508128031637,555.81599258751,604.050909502442,624.909481520317,599.680144345322,585.274301963104,600.794100281015,571.339749175538,581.336521058714,586.231233626215,570.134130000924,563.705160462089,497.685565979973,581.900289364548,164.037982091428,692.313726985705,61.7558617504165,353.620175281913,140.988830531227,15.2044819483897,72.796818268283,-11.6708527143804,-94.6255072797172,-120.121020603603,-74.088201132433,-21.6413692656335,-170.051412846784,149.271028045652,-10.1757064720658,-42.4527973247043,-22.1842318153924,354.889668656314,151.888912516031
700.461796703387,639.880236292937,-13963.0118543162,635.613583021004,598.161300732096,704.646289805796,658.455580017248,607.739271274477,713.000691310484,655.446998333214,648.634425197826,736.104846601695,701.508290658126,677.148543516196,857.39083936624,675.900674380889,839.486544893206,846.851730005512,713.511351158889,909.805076175837,785.427404356064,719.839632514484,865.741275923657,834.193296897802,745.388842327624,719.949155079724,655.401615035147,684.826971716434,715.463800897372,632.485234533114,605.089371391705,634.47675846693,600.396890136576,550.65772182417,586.586384973183,597.887032262576,598.259341011,612.193799044887,522.490948746805,557.38235843813,575.32627874729,553.031818699134,523.689501189674,468.462734805912,556.055260207877,-55.207163571065,256.667008213976,-214.561763842675,-69.5511711535476,-314.186183613106,-105.835464221374,-324.793932182536,-87.312720575959,-341.294905480865,-442.915431970504,-338.119902576633,-192.278177000369,-349.651400071174,71.6550756236445,-202.424973214752,-256.017442532126,-212.090903727019,176.03871194271,-47.2206163958962
540.679145571497,468.160385722023,-16055.6188052183,464.871914905894,415.835787947476,581.82432256952,516.403893333378,451.049391405544,596.855071399911,527.723352598581,505.397469672796,647.035511257408,603.876403064056,583.276360934513,775.67238994194,719.596952142299,731.461373484911,804.166009311687,896.019316477518,772.258787851665,920.127330868213,493.58820788327,714.549047546366,921.931540911212,502.175990169204,630.29457573918,429.843952549836,458.279062623292,650.339356296358,445.713150885894,475.067727670873,563.813280431906,549.078916465294,404.801387693872,445.017857763154,494.621053519279,522.758993462208,551.9857982471,390.641641143149,446.28887583866,490.608694555544,476.081104463209,426.049216010021,375.263466471355,482.270621481463,-315.027493723746,-163.991375036564,-539.458310371908,-524.941904121572,-758.851994760079,-291.406442520241,-739.916296767486,-208.763389058154,-596.695264344849,-797.383435305686,-631.368408754179,-380.995114978974,-522.329383598629,-71.8032271066288,-453.216664574028,-469.966148883583,-354.933902069794,-112.506012027744,-317.116250043214
401.434312575299,303.789623775954,-16115.3364271731,324.890636177724,242.62991733639,487.3342524242,397.01426520543,301.165386977295,503.783626462655,420.488051792863,370.647330272704,581.547480500029,529.234049120368,501.220805153415,686.14900125559,729.080324434914,569.451029208171,686.854851365845,869.077662098018,598.286719268979,812.825454402315,255.860203774884,495.101291115227,815.232312978482,236.945880768338,468.25238046891,194.399936611211,219.087915155911,527.253720964303,254.988036218104,339.604029537159,480.635138291848,508.13481185639,276.281332623342,318.263638730186,400.557534531104,462.581238611171,516.519242749452,285.514409077214,354.942466332552,432.479014782716,438.294453056166,376.375889999752,329.27601406356,461.017901010359,-454.67398494473,-278.7815066813,-706.757206212553,-686.20905769134,-897.446563598936,-418.029023957296,-850.878514028333,-222.284138182983,-669.517253327472,-914.434187124289,-662.766057839668,-410.504569262331,-530.04545032154,-101.424833792665,-553.105230888712,-539.890926215099,-310.539350142132,-286.304956710354,-485.238775566142
401.885581313821,275.511276755434,-14826.0725280516,330.229073728781,217.278430507675,516.782608608463,416.308154345834,293.132067924758,537.855336952711,443.120268981645,377.979364286677,628.474599154091,572.156885202439,547.332678795116,708.661085422377,791.261767887073,530.772921402034,642.688518673889,869.842395700865,509.487375639692,728.972400873573,166.837115781382,360.574938161078,802.696445767338,116.193296568942,372.264245057419,94.9399245431867,107.384074140562,468.302364338379,180.996131761639,292.551927713801,483.196078151,574.078319860959,237.262438471464,282.428498281432,385.248972463839,483.355129323458,557.012022290899,266.967235655448,338.786167107937,442.971310051068,469.161816450508,394.054441791885,363.814540618239,500.20763185699,-461.821077029542,-125.460243528942,-690.825772568537,-547.160934707091,-742.846238561249,-424.493582491269,-664.051542260788,-77.1231692966835,-552.013590699529,-769.7067214857,-423.260405697942,-237.981807206263,-416.846676240478,71.0844803354193,-384.22403547439,-469.251841509053,-179.645434758148,-183.216559526179,-508.15357562275
483.282620249184,347.382436063564,-17127.3255399453,410.083328552616,298.359197930653,592.280416727875,498.504658964933,378.077299114274,625.367701889794,522.411893911203,474.666111863023,726.351599968379,655.525814878997,643.988335297548,797.36665310681,865.243355807458,580.739844084048,647.810589135126,898.356015977378,461.925398181237,672.615881438483,195.101460318019,276.215255449727,782.176088712521,108.625826150034,275.504082650462,109.769809680644,106.061323386202,407.357032027744,196.29842600116,284.350801585982,490.898415342372,654.99032129487,253.932737192606,290.861661804917,387.578370293916,512.760223014598,599.80202520223,282.900049106258,346.600967846364,447.847593492614,490.046860969993,400.227004479058,392.787507154498,513.168507773528,-434.125339103691,29.3474221465055,-606.168919774756,-374.19799658865,-594.133907459673,-314.809368660985,-511.080683302244,153.174271608567,-351.133404042552,-600.141220311356,-261.397632849801,40.3048182229392,-386.500928868211,352.746557941943,-19.5680646886588,-381.197935543618,-173.838104213061,114.959890302132,-464.580626808821
537.194613993795,428.784915060039,-23763.5154013513,465.092959498303,387.177342431214,608.275368419198,531.836555834489,447.947302633024,651.229624043566,553.851844626871,543.028098633266,765.568408842148,672.356116121959,663.322918277698,806.373670546635,861.966370034176,533.914042121676,573.688945744827,783.813644086164,335.665701905745,488.51504974145,165.684614105622,136.521873721806,531.247442662552,76.8268877433345,94.874627218715,108.852298078357,100.501213663706,251.109482666043,187.725913213518,225.061132935644,402.076152430717,621.340429125875,238.515527931496,259.96150574148,331.62082015512,466.641791056591,570.155112173794,254.042024867125,309.780323100872,392.591002201719,449.269318323188,353.931358947971,360.474783106818,469.488770138514,-396.432319893336,122.348359269639,-488.963690722353,-273.202183884273,-594.107918172871,-112.005643240098,-523.302968638067,381.413665996471,-98.9569340521554,-492.197422367825,-358.429597465877,319.534864570696,-458.135767468865,588.269908633447,367.195712296009,-322.717317025327,-304.378537553925,387.220299833852,-396.728450612579
533.895357266266,468.775195650185,-29308.265753921,477.881408393895,433.452606653673,565.707495375511,508.789896365715,462.784577553096,610.719130876396,530.18493965446,537.867357812469,719.128113276549,620.11225292749,591.180900628861,683.448494467216,765.069725567219,335.670653579457,392.107026489714,512.137715406649,115.520155478626,191.660949608005,9.17917081119392,-48.4232526329583,138.379700741311,-32.0158354238022,-79.4173143429977,27.9725339519073,32.9163973305192,60.451884232689,107.376998760872,115.891769557247,246.355034855669,466.078304549373,158.547821959355,173.985905940445,223.220156941208,344.803078858828,451.859733132471,170.709500505269,222.645182196913,297.432776553165,353.293268968165,283.039567781105,290.272552609827,389.638843886665,-301.921737855246,311.43052458909,-312.059478844213,-129.878948552168,-618.770071737545,97.7594499722366,-475.249748584173,536.378377615495,187.032747832139,-276.272806522862,-491.465762813878,519.601545243278,-431.835157581033,686.643485618034,609.225260012397,-243.975537694811,-415.494117953436,479.588258628543,-318.227892229923
457.125076391628,409.846793173017,-28822.4701884701,414.109720823279,372.948773122187,468.48280862216,420.942563532991,380.614932632884,510.270628380531,430.47201701105,424.832779167973,587.965855589818,503.641401030996,435.909768818678,480.460493493917,596.997966290326,94.4015143687458,183.265685368578,215.992436336951,-103.438469522057,-65.7192759928724,-175.673994898148,-199.491579406012,-161.896339168249,-164.865026917629,-160.907839089449,-90.9422449678756,-64.7578715158531,-73.0301746937149,-8.34818426702283,3.00818048357923,83.3326109896988,231.838917277433,49.0760800500982,59.3144817196417,90.0973045885073,168.460837403064,236.243077631857,66.3922767312065,105.652058596184,171.573204977554,193.000403589817,192.196366808997,183.271108397947,248.315019009511,-175.397338614886,616.801996007042,-131.954698374337,78.7664976754578,-574.250830210859,174.430393672374,-208.292967361567,534.686633558972,377.872508623867,112.722560344142,-428.668189046861,558.515912958959,-221.125158862651,631.505957719361,631.595261747963,-140.453501532413,-424.104300092091,387.644294107018,-292.503950241235
328.173249364074,266.325605352843,-23243.2560252168,269.654642830409,206.516743866979,322.283816431638,268.218568998075,206.062345152686,354.669947843779,252.032472277827,215.12701618649,404.353381040859,335.441485204246,222.918520111912,290.099307596973,401.410205334074,-76.0334458003044,30.4764089851445,1.42485668548794,-235.4361120273,-200.200755522436,-283.903110278178,-278.750979214466,-307.51491193436,-255.619961961651,-188.385116673979,-174.612813445957,-133.703696327226,-143.960634461721,-101.237657739972,-82.5713506849364,-57.6949393974223,-13.8923229746844,-38.4380283696704,-47.4699462676333,-37.4968533457503,-17.0610844618623,-17.5557627459103,-24.6045283248273,-10.6269246418313,28.9583813783145,-0.178508616827381,82.8324751874857,45.860921264096,61.4861782315811,-80.5834615774891,897.396518327892,-8.17041317018991,258.22103385452,-451.165863189374,113.331510513983,150.542209884761,391.397773020835,394.553778625595,483.887296167943,-213.991821215575,458.748113132664,34.3824226769895,493.441337931838,543.698452594786,-43.9228930660343,-309.701059939498,253.266085125844,-312.153277486712
258.058463645758,185.230649064184,-17193.4018476923,170.628463441004,88.3204555629046,217.826678835485,157.746868611478,77.5078597932998,235.561557291305,118.387425537125,46.8325019358162,270.760242890545,215.465446526771,73.5308409280555,194.32575453025,253.421127865282,-140.608290746606,-29.3537027656914,-97.268674729257,-271.540065457809,-228.078771843087,-311.689821525749,-291.111280392985,-361.099206450661,-290.030350865919,-200.854865858056,-193.428074875924,-153.43126712287,-174.281806037455,-140.716286793617,-125.338705929093,-141.252273320798,-169.611865714838,-77.4090395132161,-106.837949269538,-113.007359009161,-129.15743053006,-174.490729411121,-78.6374141089408,-82.4627435691125,-71.9940410373911,-125.336249648892,1.91208087837757,-48.4904513712555,-61.7993928885085,-5.87479044620238,1081.40868023428,97.6867978093114,375.589383927067,-187.562106377258,84.1734063329343,407.985350988413,273.759727833881,351.213996643904,630.860183282614,-10.4497959032417,381.878413871157,167.048873679973,403.334362121573,538.146207385314,43.5694073684385,-49.0465123034868,248.24991449572,-251.534987943615
307.949376335406,257.222525056534,-13333.2085594628,214.933928882631,132.219940762462,219.655446401092,180.436366042581,104.892152277759,229.629593658584,134.095449501898,41.3458392567037,240.27263791158,218.411876020429,82.8580792465918,188.609708138537,200.376221860572,-136.845943917906,0.798937211350636,-80.5704643521911,-252.419966162926,-166.106254835569,-304.082625559797,-248.779845268854,-337.730001307022,-293.424391639316,-181.402912561848,-177.789684334315,-154.292142622994,-175.080700585694,-146.381900195145,-137.243928893595,-166.21793915023,-213.906245518764,-86.8013058725298,-121.289735465749,-133.798846795651,-153.296239409237,-198.343789770537,-102.963283109527,-105.169675932528,-108.217036541157,-148.697002958186,-30.6603564533433,-62.5039139535937,-79.7697716188534,115.813631323704,1158.49133497954,233.498315951578,453.887283315999,221.700504314569,210.824539082429,517.869418229054,316.556521099196,397.554309555036,566.560344829222,112.070710740558,447.818183096678,151.04231598473,425.177099351178,667.707797216779,124.493609656179,282.830602025604,408.696969615584,-62.0145947840759
404.626714932255,394.789279948165,-10510.160658908,330.453112585823,260.551102490165,264.911224656516,273.33769336809,223.811795765843,279.911784181115,237.164708814532,149.524741310427,244.392658555694,282.608312295165,194.031194301527,190.367811517686,215.368418721315,-121.413881872677,89.6635925575692,36.8085504133666,-206.724683202837,-6.58684703744655,-272.370685949784,-159.06084319874,-213.400106558756,-268.742430000062,-119.90154230159,-156.230334884432,-152.900336013766,-152.868147081119,-143.975523954867,-136.133105463703,-170.621214309177,-222.144212167854,-90.9514363049836,-122.012399917685,-140.008986839972,-155.740928913485,-186.776675058741,-112.809048937186,-109.590846594839,-115.616744270158,-139.229183462386,-46.129024688849,-48.2717162562706,-69.6015607102151,333.848266919475,1089.48741447604,416.842995973783,511.958794270254,587.366414390781,453.148144909193,571.088559386115,465.972718465718,556.378647686881,499.773793693289,194.936467366781,611.64134225681,108.805001932252,493.333635936366,827.526167090525,208.679444337258,523.475576112065,631.336533784769,156.499493755908
476.759927793637,497.558661786248,-6840.46999860248,417.228871508886,371.818290830391,278.19127239932,335.393074437651,332.043589974082,296.658260878873,322.729896952421,265.741212936422,216.363027494084,315.721838334756,305.462247615329,138.778646949872,226.295243792753,-112.426272159361,165.844876806254,198.678645256254,-145.184197719065,183.598756090559,-205.886400084664,-51.8454780810107,-40.0078042595845,-193.260797546209,-38.9988585610041,-112.937311143811,-116.028101360581,-94.7632453236083,-112.359127873058,-104.600722024426,-147.20199155662,-213.789344162596,-68.9111661634238,-97.9074183416851,-125.63976025246,-148.564833826944,-185.587657252384,-86.7121333102466,-91.4202803232389,-100.532992320074,-127.236070458603,-40.5269355640989,-31.892960446912,-68.9479905477156,617.497448614605,881.939472612812,661.656752382093,577.67027586285,706.102051073255,690.477687479656,643.317736494787,561.704767515083,741.106347046769,587.57145993964,287.902742180023,733.524357073074,179.433223595773,489.716026850889,889.670323924019,321.746082239199,621.168553361138,786.134797086137,335.435147658028
518.963649350583,558.389031761907,-2661.07266652613,461.216528858882,458.848518175042,256.568792914144,343.457783078127,404.522608907905,260.512772636418,357.002176200191,351.76101022133,159.542153869198,286.481104605789,363.204600530528,29.1962707584331,149.718893129881,-97.8184071191281,125.924144995473,258.09608550199,-106.519368205489,226.322155920367,-132.38316795153,-12.3873502104704,23.4155558102674,-94.10718651952,2.1743684929513,-43.4107848199648,-39.7761762964776,-14.4466174267217,-36.7030764948752,-33.9080692209387,-75.2564320651304,-146.058216470491,-2.00152596994769,-30.5821947277455,-62.9277434107431,-92.2284406740777,-146.486338191959,-12.2162769838663,-34.9330141644524,-43.8195734195879,-78.4754030603336,13.6100289405493,11.4830454414569,-37.324971765835,832.692212641549,636.051987224315,904.571314621007,658.931071485028,605.002578967172,820.27991799801,688.262488690762,535.019866501494,827.625808371599,747.881681645554,379.840179433708,703.696589796445,357.52645578785,355.591247852092,765.758681456301,432.956399804874,682.436275157197,768.650530044127,512.991778298449
475.932653111919,533.829885567663,393.786542623584,420.742796921821,467.628907006287,181.671718976757,269.348977743627,384.044653144681,151.979884506671,284.944194850139,335.919832560329,53.9338056396372,154.555137254358,281.668985834336,-140.748975875693,-96.3931115939658,-93.9110320224798,-101.196750382766,28.3392866606115,-158.525079213853,-14.9017727073608,-114.716082384025,-132.487394001131,-173.153760552311,-71.7923347528028,-87.5442983744744,-8.5119215219315,-15.613097373694,-16.9265364612576,10.0031542045449,-0.351065372299315,-40.9373648323457,-86.9814090041015,49.7902937771464,11.6987895676305,-20.0672116822886,-46.6806334038679,-100.958395235684,39.079210539749,-1.34286851110931,-3.50794091327364,-32.702965417695,59.520820492134,40.1645928702942,-1.46357793868146,848.682969238926,445.205772712453,988.587566247297,697.557431901811,484.183509749926,803.043802594409,625.03309320486,456.227176466924,742.703707436671,782.446425076801,432.549848803456,521.675446794252,487.888986749149,142.50748200185,446.627634559724,431.885212994453,765.574689494939,532.33856811048,668.900848008592
277.129604208074,344.746533188314,2080.02456931538,226.21495959234,295.788525810891,20.0427808693562,73.5271407771315,187.411703746747,-52.2038234598649,45.6893010987975,117.198057818079,-129.596764191707,-107.680379294117,-10.3040452820329,-355.336481234723,-498.428401390151,-121.244028465271,-451.307241783087,-484.535355676603,-299.200148954024,-439.444782782439,-164.567269329753,-380.020484456681,-579.761836148217,-180.870298501805,-325.523079968279,-55.1156129813253,-119.155606783732,-177.759318472102,-48.8704456485032,-86.8482026828618,-146.773053079672,-170.267419677802,18.1550004521446,-48.0942878770443,-91.9040740275842,-119.484416116943,-159.7699040684,-3.66157119906181,-62.1629502838025,-69.1935439527583,-85.8068843848282,8.04217949101047,-22.7278751949591,-50.1350390729021,691.792694497936,329.161286620981,856.184353060884,644.710411412333,478.224732568802,685.559256535858,501.115190701843,399.981728998578,571.570958892321,659.529369300281,453.805734607159,315.803911330443,464.672323656036,-18.0236263526838,100.831315163632,273.566550635916,776.322284433105,185.967549536178,670.135280611574
0.893875428545619,48.1476429116665,3775.83219413013,-60.0905775794899,-12.6451134581114,-169.948728504289,-179.267114805779,-125.837801445204,-279.855231848402,-276.392378709723,-246.49550352685,-321.592642457197,-408.890959256461,-410.659580218344,-536.289802356028,-887.048865082146,-140.316809214609,-741.936238252648,-986.538726227094,-416.004919000213,-782.991324067335,-217.447882568693,-597.057570206316,-941.476943567544,-345.847994647004,-584.622174486147,-137.442378579757,-292.972305277431,-402.588587471211,-169.857185148226,-246.736655207559,-331.35674388971,-362.963857566216,-65.0219199001406,-164.787109442135,-233.411602351605,-277.270159717291,-312.248157260849,-94.631627989994,-174.770467605754,-213.431386215966,-224.935729433846,-118.668734514417,-148.070235888207,-173.142893735538,507.850460217979,235.036064364907,646.174009380424,540.170158154991,509.857047256389,550.476700573113,421.349615318379,357.200980955311,473.83235064048,521.304867585107,453.054399515792,225.919747548542,340.890223945073,-37.2263755560743,-24.7579363076183,66.0309531510662,607.345538166126,-56.9416728124626,439.007473119693
-202.776429490726,-201.011862605622,6094.56236913935,-289.585837929711,-290.903710845678,-292.562941110259,-369.507464348462,-392.125673998244,-426.878276018186,-521.027913873174,-564.189898901629,-426.689933609205,-621.241057614254,-726.454916345317,-619.226565192762,-1099.15738454499,-96.4809189353018,-867.778928565081,-1198.40933560707,-414.931635991583,-915.59678963521,-219.272280377229,-683.992668280411,-1073.38695827788,-466.650297672726,-732.167253279818,-194.25080195972,-431.322692141725,-553.07901074465,-258.98309979758,-365.233154217763,-454.93543530078,-497.72704146349,-125.713069725997,-245.52979458447,-326.554491698316,-393.065499019533,-426.303254477125,-150.85541187433,-249.914106908766,-321.501985322461,-339.611462235934,-217.898960409373,-239.858255842557,-269.819272827242,376.160518995001,61.6944902838961,494.186769403062,431.251894518126,366.926888396832,406.293897942688,330.698827942147,272.349592197022,430.316593800592,405.54738952156,348.806659646768,219.376071131578,182.880975747753,24.8882702072437,66.4690783185521,-82.7686504662618,266.483528682649,-130.813794564745,56.668387422836
-304.304957796959,-337.100865636617,7592.08455904575,-409.723315652471,-450.836159035944,-337.53571151976,-464.034547611417,-533.838850793755,-488.956678870041,-639.976466070539,-729.287477314148,-448.206409538939,-718.656867597749,-880.209305899834,-620.792286541547,-1134.55356333666,11.5885200291606,-884.471479322085,-1145.10088320797,-308.814725063779,-914.257393993136,-160.092427657289,-672.78213625658,-1024.68837820646,-510.462671102389,-760.176526812405,-211.021252710527,-486.988736258941,-610.163293650337,-282.40023796703,-403.199809566823,-485.371979056958,-514.548081398021,-138.861194356574,-268.42882705639,-344.831297884717,-422.202560073721,-443.208178585722,-156.676064664118,-270.437689482542,-338.913410121767,-368.483857934675,-235.791414366988,-261.902235031495,-292.378928878159,270.620075515351,-209.40349976753,384.525731643335,304.468505782051,-7.98842548835487,209.226554999705,101.525131996408,124.024898646816,274.614006782099,203.852387548293,86.1303499046897,148.855152314871,-1.60179407767994,58.0833862088813,119.500978170867,-170.152528063924,-113.086445349838,-141.518218447735,-282.589882319191
