-43.4978627515759,-69.0891053370864,-31.3909576190539,-44.4403164445267,-48.4276205300878,-9.06205473991164,-11.3094443154097,-25.9537247751069,18.051613041904,18.7040809831776,-1.95740382382092,36.8281904630009,39.075580038499,28.9985751677173,50.0225421643123,72.4239414813739,2.24738957549809,43.4978627515759,41.4679624898357,4.78476490267335,24.2863067029632,-9.85951555702387,3.98730408556112,2.68236820301385,-13.1943517013114,-4.92975777851194,-9.27954405366952,-9.06205473991164,-11.7444229429255,-10.5844799362168,-13.3393445771499,-15.6592305905673,-20.0815133036442,-7.97460817112225,-14.4992875838586,-16.7466771593567,-22.256406441223,-23.7063351996089,-11.0919550016519,-16.0217127801638,-21.5314420620301,-25.9537247751069,-22.6913850687388,-34.5083044495836,-35.595751018373,19.791527551967,-1.15994300670869,19.1390596106934,36.7556940250816,-75.4687918739842,-18.559088107339,0.724964379192931,-37.4081619663553,14.4992875838586,19.3565489244513,-3.04485039261031,13.1218552633921,30.3035110502645,-9.42453692950811,26.3162069647034,0.144992875838586,-17.5441379764689,22.256406441223,-69.9590625921179
-185.95237095697,-305.062347205094,-140.394798113759,-194.049114126023,-211.736341605998,-37.1270315389979,-46.1959221713677,-109.810487404809,90.7292427311881,92.6652452212326,8.03881217245157,179.678681373024,188.167600502039,146.587135935466,239.385721679483,328.063215986953,21.9007601440847,210.383670535772,188.572438530988,33.5780659974172,120.965189863659,-37.2861430279538,27.8367287886757,19.9049232851064,-52.9648715799647,-12.5896189477159,-34.2442057236071,-30.7473450021001,-43.3301280573578,-38.6961822070504,-49.4480660688131,-59.5134185865402,-76.3647522142453,-27.1823574750693,-55.4594442395871,-64.4558384340376,-88.3519886088995,-91.8245349083665,-40.8866505018783,-62.0308491240708,-86.3619779264486,-103.720786619589,-90.8509309009175,-144.384568459383,-147.442080920979,94.7803039898775,16.6075104600455,73.9952276408169,174.767411840025,-332.578949643525,-104.736630406861,12.9369728082643,-193.160105737749,53.0670617882504,93.4413047045684,-11.6928810105816,49.2860414915935,143.281993561545,-49.5039776335524,115.44526477287,1.84793089487606,-88.1762922467638,112.058323808508,-317.382372018978
-275.54837274091,-491.473501296256,-232.158794196512,-304.949122307858,-328.860597820621,-45.9006724673649,-60.5962277586439,-157.004587239222,193.857104308734,185.953501165845,84.4838949701379,362.511590524348,368.292997039818,311.903999835472,470.123995178744,577.189516160566,89.5017994745955,423.010282392003,341.60017168826,110.219213069672,260.937756685476,-31.9704815726039,93.1670911189931,73.8339166317588,-57.6418512506283,23.793960327378,-24.3743718160571,-8.08957584439416,-28.4760231405231,-26.325879732243,-36.6897365521724,-50.5736717871966,-68.2359752101038,-8.66164959239201,-50.0880333627966,-60.7422763761079,-96.7365978183704,-91.5156935890926,-29.5493859617491,-59.7585520513149,-98.4693050993536,-119.916998451313,-106.311147156365,-198.831741011694,-195.634220341353,185.896185203941,110.746987340761,84.2073531435086,325.245995799794,-542.473418928253,-247.569397704095,48.6879530793484,-410.653269926953,39.4611975872279,175.953327499824,-26.4529710137869,40.4334554076782,249.934487952888,-115.64305233153,168.801805528498,-7.89345372046221,-192.030975189339,211.687496422991,-551.528185547835
-102.247454612538,-273.28005384942,-151.578140642029,-164.158823792792,-135.642361651157,5.70394493981778,-16.4506450201384,-40.0624446067584,225.470897335563,177.691365922483,243.994219076087,388.876832887915,367.307209697745,367.941675228018,495.07606081881,469.027614274129,206.492528775986,471.814719938485,320.482661703429,221.753209230741,340.592483342455,66.2014445755332,195.771116860358,176.224382842505,57.9359450798229,150.178868345206,77.1600146801174,118.455368581332,115.228771353481,89.9274606947102,107.767406397485,112.864228981292,126.206104969527,91.850653816938,86.5751899414834,95.6008635532563,85.7874037010633,116.678122928943,86.1636791785284,85.9408217670757,71.2480493402599,74.0885380808272,57.012833055264,-9.02269598316274,16.8522843279351,192.698863850521,273.433468076598,-32.8387277507993,269.700430178489,-329.092973843273,-326.446586666252,64.2961543445912,-470.88248008,-122.232330348311,131.681878097094,-69.6171223639466,-107.826504630003,126.932945116291,-179.778705553869,-1.94815790706897,-74.915142186017,-252.99183278741,127.641759621165,-417.637339274891
132.728420448558,139.869249709073,-11.4735105251733,46.4481428125076,221.403108813229,39.0044513721812,-12.088518765809,113.369418730878,127.384051656829,31.4927651159493,367.186369573912,221.692854814641,165.913092607606,268.178666619671,317.320100186837,119.703312944412,301.033667849636,345.76183232246,187.885646942266,300.36134825306,327.410578301146,196.291737305601,278.868510690367,285.679168398168,221.531636609674,299.571973122658,202.694897819871,270.243610442971,306.766520176551,229.796933803288,289.154077768082,332.410940680697,381.34032459232,194.854088873685,254.388914874484,300.555722060012,338.23888830989,393.61018586262,216.331472677071,271.881781505998,311.568994304744,345.554355510378,282.165387546836,286.449595721084,335.572428819093,109.877873607523,342.108325197509,-177.668749763772,3.66509921267094,95.6212245675666,-306.239840511081,-26.8222986943898,-366.432412128356,-376.653315885594,-85.0556816107787,-169.765271786112,-351.565849372126,-242.310853120903,-255.835242978616,-349.859070560407,-215.376417174393,-261.448979445791,-176.964004497049,-57.385044209917
121.427650251642,298.183429480768,-15.2028952996001,39.0132606265706,389.122365160533,-34.5821988089534,-116.140142941171,112.216262352821,-49.512681892837,-134.661688032286,327.609631041431,0.625345606375356,-64.0513548452736,117.57403687928,126.879371806856,-128.247135263769,289.209894375007,180.784706161188,72.2964680220283,282.020867522258,228.576255659934,244.462167086927,266.980613536911,301.32986917571,272.461454976494,336.55130450926,238.103990137317,306.444929876131,365.150337828659,260.733494709761,331.855184011252,397.555904438828,447.586906779254,198.902221718729,283.771588869319,352.911460786118,408.248995385092,465.151158099593,227.515263076666,310.762906946623,385.992447830053,422.81574521775,348.978714177848,386.315912617957,431.611863454639,23.1503021533724,170.723956988693,-218.028324673884,-267.781232556784,240.159835801266,-297.188669991251,-218.26388055583,-317.261519889949,-572.137623418928,-367.153566805946,-305.586270238488,-535.803376065017,-607.145242544507,-347.963207536954,-593.148178338514,-347.79091278288,-266.309235942292,-428.175696756877,108.272287300376
36.2846363271982,300.805357899062,-44.9263900100034,-9.71044101077959,390.755646015241,-109.967855474775,-164.495012050558,72.6717312293332,-180.957554684694,-178.585172839484,187.508352375425,-174.669145604758,-213.053433622719,0.11178181388093,-43.3266903603305,-280.29703604603,173.650505751016,-3.07949330919894,-99.5288596993773,171.205705448408,23.5037261454362,197.163603433434,145.404739304762,153.137437236207,188.970997875879,217.415363890129,182.669084413547,207.731225562563,242.065516857207,184.679503415121,220.529223704557,265.212564487429,286.266269559948,135.589892608822,186.244818662951,235.620885176531,265.010868524909,298.013914394772,145.951922552284,203.796941967174,266.872735091359,278.521153736559,252.065950503184,267.801647844044,281.531215351369,-14.2601543463081,-140.948919033535,-152.574784566302,-417.457473957196,143.967621297746,-278.389923435666,-368.407652304273,-305.196021626698,-599.107699659277,-553.239832573165,-391.337162401735,-549.266408749105,-750.985758542947,-356.638075090121,-574.870220912809,-383.514582747882,-250.150634672397,-386.36438087783,63.0613331174858
176.719373127916,438.843252080627,116.931162487052,182.045250843337,443.686656205897,-21.0035025652834,4.1806302762068,193.375549588749,-151.244129096563,-59.7186086949928,121.912808128492,-258.509884622825,-231.719324113789,-49.7031101684056,-222.839795799453,-419.139137536846,29.8520784463735,-203.16343636027,-333.874436688543,26.4012031247103,-216.184462989427,105.777760396717,-15.846421513581,-89.672652932387,63.6192092171014,24.4372161797677,94.7344104602077,56.6975960692275,40.7759000351048,76.9904568862122,62.3890560412122,56.7208222404806,44.2964210328022,69.2480506152666,69.6080534069076,69.9316100576678,58.3930429360771,54.5372193782418,59.2584758843767,68.7997487724475,89.047731954052,71.8642017289474,110.979859308772,91.692082138802,73.718517407111,-24.5064133017623,-360.707632056983,-40.7000588717089,-431.942239434322,126.071826025143,-118.410713066054,-344.074026778737,-135.462335892735,-428.302273913837,-519.610077134404,-303.14888076103,-389.267270970078,-609.819123796324,-209.086211419814,-377.351997808086,-327.380383940254,-150.98901783717,-152.120479649849,12.850571718184
445.535451563446,620.613758600166,395.180669442497,486.779238978881,537.348596707069,201.528285197322,285.811432892198,399.042976317096,26.8113459002133,135.437055663513,176.342801046493,-220.969590241733,-109.271741685243,-19.9934826867028,-332.741800394403,-429.000029170198,-73.1495716540311,-325.258360394703,-430.277654827242,-85.9177536536987,-332.638490210065,13.4702361348513,-124.316999435722,-256.156510413569,-37.9638449592074,-123.631964404369,6.9115546496012,-68.1510163458471,-115.843082878312,-22.3817390067599,-62.2456499032383,-106.155227814815,-142.729777211006,-1.05387855158596,-26.3457956013702,-61.0199066212168,-99.8288090079526,-133.836775874075,-19.3498143572048,-37.1556383346154,-54.951805789008,-86.787190861214,-14.6129152353388,-54.2064034487836,-86.501958344655,-61.5088256723771,-431.969395147501,18.76654548969,-354.758680151188,214.470517217136,105.303563765113,-160.921772046134,132.450053847682,-148.494613183526,-284.386294259159,-10.3455559017529,-134.148312048262,-264.486942773614,12.5235507653911,-133.459970867519,-224.008949440915,11.0931637132453,46.8007703169156,-8.17361513062288
588.873217484957,647.025475969662,558.603836776396,632.906425750808,531.531011075325,369.67361759015,464.122519398186,483.325139464587,194.064306190142,267.071981258539,204.234521550634,-117.613328461107,37.5820181491292,32.3869421706729,-318.375616000392,-269.086655036567,-114.197822736942,-327.169804467596,-295.806642018181,-129.222063642524,-284.149971127717,-38.4281651798433,-143.776992463218,-251.31951180739,-87.6819278979712,-163.734597885655,-45.5649680684222,-119.745138716188,-163.149236305638,-79.3038164304057,-116.687595345838,-162.364343720843,-206.75539418007,-57.408889835586,-83.402474242005,-118.632827427471,-161.59822351269,-205.897681716189,-75.0633018238917,-88.7872165184507,-121.18302454285,-150.290351598183,-85.6126770587958,-123.613884820983,-156.548831544048,-96.9884956366822,-445.37558854696,-12.2623177902372,-230.432622082471,256.540913777864,228.859601451449,51.8473705263806,321.628507779637,103.052990522906,-5.98111144206561,315.518706116415,140.760716046116,71.3630038991664,227.58088854627,104.650239317471,-101.138799393876,131.82325278154,182.230948439619,-23.1186082847008
558.279451766892,529.904499522414,525.162026071695,573.012145619752,387.853341709481,362.695231006229,448.714036572924,391.783073707199,196.713791846225,262.634220658878,79.3843982179461,-77.2096718947623,56.1465264394641,29.2285828542478,-258.307793833877,-82.3543596248595,-126.627434474404,-285.06788689089,-80.6790073365863,-130.87739020747,-185.458371697147,-42.964300877876,-118.787209619213,-149.31442017227,-85.26711425887,-127.739752732281,-46.0850467790995,-103.383358283855,-123.819949144853,-74.7928543654783,-102.552116809321,-126.317907563478,-157.503698198206,-60.434095789578,-77.5119988267067,-94.0649689258946,-122.908293216196,-161.7755542161,-70.6722955557406,-69.0342156983582,-95.3787371821068,-112.472143857494,-72.0984693610287,-87.8507911331911,-108.493788628657,-43.445452421563,-396.789619802978,-4.98328040033334,-52.1488234951122,220.31958157487,285.715507190353,188.710333496392,434.759538751592,268.708271886536,170.430940162041,466.804842374711,380.787242944503,226.567227959281,443.594021883942,310.845629836459,12.4557893881528,145.544223352273,334.457677648154,-4.97654180785343
442.385011350363,349.270802832123,386.514865390334,402.03164765805,177.266028170759,239.199668385619,299.629017980999,229.823149703763,52.0780045988679,176.372822139994,-103.808701944789,-129.532323523704,-39.0720807335775,-2.30470326317402,-227.388670946999,46.1647063012435,-150.525973394234,-251.852877922052,76.0344147091129,-139.696124802777,-120.780399030114,-39.4330220533245,-102.411159983714,-68.2333985107251,-64.8494507955753,-83.9604514903004,-29.9392773878781,-70.7855040917841,-69.652037626727,-45.4648944691145,-64.2059546410484,-70.3360694441171,-75.7169846814438,-32.5263285635218,-37.9729206839327,-38.2665948484794,-46.7804280933825,-75.1788880065318,-30.6382119958389,-19.9138236419349,-30.0600900449884,-38.6482000293173,-16.336051887854,-6.3361466679091,-5.12402122319561,64.6963549515861,-243.59041676774,115.169225760221,143.322878443966,174.702318668654,342.051048599133,226.377527388997,498.323390633952,348.43149088367,204.243081150486,417.511479446176,513.492873537795,227.578876105775,604.300276532154,436.848117876511,107.842646932402,109.713291356705,461.734076438043,55.8056739403479
318.865103040486,166.134228177977,267.466284634168,217.653671724136,24.1749252197541,151.797928331124,147.235897936452,122.614098601304,-63.8570889389538,120.207868697381,-150.887970531942,-137.877049588081,-80.3367122235519,28.4108631256403,-166.695260752195,177.982571213123,-154.901354281721,-168.099083107941,203.536635724148,-131.480660662503,-42.9504741056364,-28.8226276370289,-71.2091578115376,-12.273122780765,-35.6981966607554,-39.3039382073115,-14.4268271110486,-37.4027696755846,-22.2830296374568,-16.814430756259,-26.1211847424945,-29.4978186818785,-14.4565286658276,-8.44385820974133,-4.91624287344973,0.114640173579991,6.9467999585755,-11.3465124094269,2.02094256715203,15.2069810015708,15.0796347988421,7.8019897994979,23.3386752113605,43.1331812256818,56.403044835852,83.6019047411838,-46.2451742574455,218.261362441367,268.956661807826,172.859087935192,335.100833691723,219.518423468409,454.201765174657,359.292642608957,164.26579276487,306.810620898253,515.475503421525,214.531772918878,608.132447674758,483.594705316986,219.497065326371,134.068105242714,485.696448603429,177.020034171903
236.204195192158,78.768126199546,211.585385036835,110.358995887239,19.8026439990615,160.816058463449,85.6603353463913,111.246167273108,-25.2277962216497,130.515854060641,-41.5871799083758,-8.33583943854187,18.8899022719119,105.41947117564,-2.49906523482642,338.125358673302,-80.9031706760678,9.75514590197842,337.624950129073,-46.6583764795441,92.2086674089811,26.3276650129062,17.9154066515072,75.379829191407,28.5503161113022,39.5139802704213,23.0838351107973,25.2265567025316,47.6043371339366,28.3340693544065,29.3177479366111,27.1596808888689,50.7553032412307,21.9103660888825,29.4233494426786,38.3829945759992,54.7134407074065,47.3622361748185,34.7798636789347,52.2581094856827,50.2318116841933,48.3644044991776,54.8498683516403,74.185419595839,85.8025528655956,-28.3497014503096,130.410995768459,203.332555928109,324.73294617037,228.829889725919,251.887328859257,246.149598982724,329.378058992147,351.111731820569,167.005188717375,258.199910003167,457.518120171733,250.958798949653,478.241591674659,502.076343345587,346.853624923425,208.478736794994,429.033234446556,356.767430383008
212.071503296393,148.987173755309,186.112522234048,130.261293260935,138.280550071109,198.520444072676,118.131270542116,166.47021793523,124.712346944605,175.078455739313,91.2307785929946,188.263029508179,183.424009206014,151.79785643472,226.167164405672,461.561513939098,53.3105018391704,217.61039957739,428.0935138219,99.0518525467909,235.446637234786,117.291183009225,143.230995384513,189.876614445864,123.013153194459,147.164189135207,85.8942501767514,117.237753064219,144.219352349139,92.8377934427918,110.56802360344,121.531289006895,150.005541806385,68.8512289513774,87.3547098886539,110.373491556416,137.449854665183,145.84683653336,84.7665230734566,115.475270348223,119.959532004125,136.223588298362,121.125480379262,148.653705182704,167.086598366877,-145.021868089012,312.559937026793,145.73601454994,361.639879351109,348.162798145255,208.846694037852,319.591887102025,267.640606247165,378.857216635462,255.231488341608,292.963534255327,425.62027411434,320.310496992503,351.953005161733,529.209821115816,456.534697463831,273.925733204424,357.674581156165,528.236310831902
230.911160128411,310.701741160558,171.870597418613,244.31976002428,286.358364867965,215.239462089702,202.473179825679,263.492908353651,285.258298026912,251.458371821598,196.330111646668,366.653936439601,332.307366586345,191.041996308818,438.131958322387,532.552488036414,171.029919778087,379.954525912599,457.803445766958,226.231937618366,335.44932025296,193.111817354684,250.392166803844,284.238684932784,201.953283957601,242.46474752743,147.520969420854,203.284521527967,235.881516415815,156.611473650135,196.204923147114,227.047074961407,263.503527737127,121.045259520742,165.782212498488,204.267447370815,245.549177225595,272.153837891202,142.584127121692,194.274690510212,222.011422517269,260.846015098939,217.716328209528,263.639841303319,304.881443777289,-179.070187878854,511.473510161163,97.8807779370251,330.443829478415,537.901987569952,255.342834214416,391.077629985297,343.578234495311,447.299012934653,368.222609906881,402.426984457349,453.721300545856,444.479757915975,336.64483275001,588.458232344735,572.984702161753,410.03684466778,322.226932424996,664.936447397773
242.887404031413,412.293527132026,166.229598449599,341.706525317674,361.477092851893,217.588917440489,276.761356758442,353.317526968562,386.630791220414,337.936504707659,292.726705409009,485.0973671987,431.356424682392,257.998628782874,554.943388899813,566.149818527393,204.073338351849,448.959703729282,444.362745751311,256.029598333639,360.657871817753,194.218984098188,277.697478179343,306.39577760568,208.170214903788,265.758741347483,156.362575600064,226.840260524747,265.782449670349,178.683184105825,231.444165283329,276.422759568298,323.799337016777,140.298952201539,206.24679847933,252.037563622583,304.86301233894,344.758452493167,165.384671374561,233.664701542751,281.770577704663,333.708026996226,268.692845379341,329.245142383068,390.404815197183,-221.470549837166,620.056831223229,-23.7335037142484,137.714321295312,710.88494579557,272.520453238061,392.741909584204,440.359871468019,472.521822444579,398.660755346468,507.793978198335,488.218211693106,573.032489810551,396.666920353252,627.987854016795,662.546538208585,611.747227048923,311.139918584441,739.658846335219
219.526103305426,374.908617505453,162.406675105941,347.793884131416,304.410433366889,214.692219044422,301.510729260614,367.235170361852,409.209227455978,374.016836777598,349.226102710115,509.580943636016,460.831292988632,306.204101084664,521.679559794127,525.91234106898,146.559080679707,394.60275082575,371.266324901418,174.45871346514,285.2364249886,103.070379870651,196.366232350604,230.584343714356,128.884761163863,189.576572674137,84.9618082692488,158.172180216895,202.667034647062,128.467813565671,180.911011339835,229.105442465446,287.900427589792,95.540233558803,156.580482465218,208.555643153166,267.339908816199,312.462236026511,123.317107737478,192.97563976371,249.274981518446,301.750488159831,233.202666720118,296.143362110462,360.733247745869,-315.754624502973,564.422775546494,-209.650730041009,-112.731608862707,718.044186241439,187.932825003411,304.921291066379,423.449523325028,383.834961348991,306.696684500162,457.652179987854,450.767853786317,544.389982500835,417.875596267932,545.595386454873,594.971014284365,647.344642256698,266.138295053643,654.530009706808
196.603186398803,267.847607109699,175.119027622189,304.82542469891,170.39727533132,219.86351818894,304.065198318789,311.582809159962,395.867652552776,362.682170846492,343.071338866961,465.112317363644,441.962984377716,316.87443776927,390.333018645948,406.91478038275,69.3920050696985,263.617520564418,247.279051458623,61.4274741574306,156.288407542251,-11.6977186802343,72.9776874576786,110.898272305259,27.0776427466835,75.539431111647,-9.60298744206954,52.4294054644131,99.7314335003075,44.6610077360501,88.8216206835931,131.564654983431,194.523640805241,24.5965954599457,65.9824114521185,119.994693958971,181.490882608899,223.025518919687,55.8773049397787,114.781303011275,169.249489840516,216.881692162584,165.087888840524,221.790594694638,277.900024021105,-315.122561087907,451.148116379584,-265.034186241798,-164.540735719331,562.461478448339,124.073020889974,213.083312582032,352.176011855352,276.809647109286,208.337577294448,258.693384120267,377.324175820985,372.401973561643,378.552814002888,403.053379835429,405.158710116258,456.553972716123,219.796101328431,434.94715061577
168.367746172648,147.087464620673,186.638963798561,234.711902993409,27.8329869687102,212.964911098192,284.402229797764,209.580513355487,359.42667967325,320.364459322879,280.117831944538,392.440555252949,384.182399554566,293.180848104751,254.899690603023,261.032020789422,22.8294962932586,137.50319234369,116.367436865393,-12.1420137681503,48.771071508016,-83.9761458265593,-15.0200757320201,15.3078593607482,-44.4640455569805,-9.94257003170111,-68.1521902334168,-26.4532923010232,18.5445448997132,-22.1022400962468,7.74561596014818,41.0574638977838,90.2476394395638,-23.9452568128135,0.114522079444409,39.4061772083003,95.1465272833302,124.894082272166,4.57315106352338,48.1486089136797,84.4030867654469,125.617448763685,97.0489805304411,144.494191726204,188.388575087661,-144.617041153866,391.461847993033,-101.986754997923,11.593972162607,379.556992452837,183.731419290754,188.325477749862,332.390652061786,280.054190880648,218.476203315378,77.9698941464133,348.972763193083,253.607232246128,322.761889738648,357.038169207049,285.988417505238,273.95255984563,246.138408448502,261.60603571146
57.3250009347841,-35.5581687688271,122.247142364137,75.2081787195204,-153.624635299353,128.348862504637,174.60262122037,25.0179361821056,236.997465718263,191.905581797343,132.341737336976,260.712360811622,240.70396298778,179.129798690305,120.109965584424,96.5710723972405,-20.869119083511,24.9236312893522,-19.1049842868022,-63.7811347879907,-40.8476249205783,-126.270721940356,-78.9140565142634,-64.2751157719328,-97.6981175225009,-79.8895872687577,-106.288434585721,-88.1264478749272,-51.93914395185,-80.2584238381193,-66.7851518713429,-47.5442501014036,-23.7603555649879,-64.5154924498733,-57.9538178149061,-41.5866355291003,-8.01480887379167,7.08877898066792,-47.1303299214058,-23.1337622833486,-19.0252608659675,9.87966390869258,-1.08029224231254,36.231603133151,66.8422628159346,49.1749784244413,340.57456721441,106.009054292101,174.909386742541,222.816369447256,264.158284134829,174.855935993853,309.819291574956,315.976048177718,261.72882241172,-26.0299549328072,307.909400825932,228.379244893496,224.155680761209,340.604828166641,260.138582900812,218.221394082047,261.853603855864,195.915752155171
-121.869280149373,-259.066195531652,-24.952641023956,-143.472142556217,-367.854812134881,-32.5593314589557,-14.7102722232759,-211.457484742855,28.1790604984598,-26.8827951578553,-88.8218364202758,56.2876044689724,18.1575483315303,-35.5960203926032,-41.1058904197326,-102.256144991536,-82.5082595071858,-101.363160230789,-172.01124962654,-123.442788034677,-143.103663047593,-162.077800321233,-149.291246170333,-154.628221636507,-145.482682604368,-157.489475544618,-144.814613676057,-154.222660336067,-135.780447084118,-142.456842426122,-144.00871518173,-147.254426621202,-139.866619524049,-114.96891337427,-131.740358143084,-130.33780407002,-127.669845646361,-125.971219021731,-110.536409292005,-110.661212560159,-131.313242157545,-122.759202767915,-120.48694353099,-92.2033985121488,-75.8110207957055,118.601822949633,237.323042012207,177.031925538702,190.157360343863,71.5555838057741,230.228645209869,113.66870252729,203.584100486298,227.056108071809,215.058447274281,-104.839000772168,150.240627088477,175.222603899684,49.0583626125421,155.518336205719,182.165055990028,177.639229375656,122.349869275179,129.486924269831
-243.594398184875,-386.188392798233,-152.898737968248,-279.300019504912,-492.630616372297,-168.462989602423,-160.187153382839,-363.55140146874,-150.672975057522,-211.242686979078,-267.618114188806,-130.21198336434,-171.751598645343,-229.896630455205,-184.976953150058,-275.166994347057,-126.52415583083,-208.778759227006,-294.263543298541,-166.957715762711,-224.263712903633,-175.23495329503,-198.235059938949,-226.374905727252,-167.687757084347,-213.461091750829,-164.899515823846,-198.865270133894,-207.603239506413,-180.336505280321,-201.744189858745,-228.847893482861,-227.699693538355,-147.143085925465,-187.773784965503,-198.95164285815,-218.42976539508,-230.282117674562,-155.984160470321,-180.584731412199,-206.851518367206,-218.772185076066,-204.120159721186,-184.613559854693,-182.700276025866,90.0352454257504,126.038736557852,137.786597948323,142.331458921743,-43.3089709793275,120.603438051019,48.3864807074668,75.9937763444602,51.7588520474665,114.588657493216,-138.248641867019,-57.3039889798965,81.5118438976532,-124.447352126667,-156.141138699086,21.6046424915955,97.8971925714094,-125.75740743095,12.159191839846
-271.765172896278,-386.113208263386,-201.168094917346,-303.535673820403,-484.559590266557,-218.972295536701,-209.323125286314,-388.79122402784,-229.640826465756,-277.976523901754,-332.305113316046,-220.691155951497,-254.667054650884,-307.634437142742,-257.966508046422,-349.493147152062,-133.194513867603,-248.484866464106,-333.438621095413,-172.456130028216,-243.572899057657,-160.143713183835,-200.581097909808,-245.987449826978,-161.09748657773,-225.607552029067,-161.268692042636,-203.072008756947,-237.183117953504,-181.443815505254,-227.14204157946,-264.748239696862,-276.455536090471,-148.378142271258,-202.565950694999,-233.600946357899,-260.882298828852,-283.761592307943,-170.451907592946,-215.966235006106,-241.411885373035,-260.864238414832,-241.600747699215,-232.165972106755,-241.187192363379,63.5182361366597,49.2868666555092,101.545090502931,106.236719409979,-105.317942507593,50.2037444241139,19.527038468945,14.1118108694552,-52.4124191931533,55.7780432660094,-96.4183853903629,-160.993958851503,28.6375896010676,-201.810177107915,-361.778170073787,-120.30610672162,37.8112782435089,-307.801654375645,-97.0245135220459
-289.607591151528,-374.849515705892,-213.976986142074,-320.575161359368,-449.17000835988,-224.846014487726,-235.644354136036,-389.047900158765,-259.575185448931,-291.112921770936,-353.79995829978,-250.097868907541,-280.29695755266,-321.020988237451,-283.970098763907,-360.338025933132,-132.113344787774,-245.936313063601,-323.786476232401,-165.500853127125,-231.143142583278,-142.05018040775,-187.932850135311,-233.886812906435,-153.827811544853,-219.448598400357,-153.039550971852,-192.3306140818,-234.318805536695,-173.457081707231,-232.781438366583,-264.589595079601,-295.850553201527,-144.967512746846,-199.462566806558,-248.370466678041,-275.028535208044,-300.341020588862,-173.314132651252,-232.105629865189,-266.266824328539,-278.020739527652,-269.050787433109,-265.759214186897,-275.868931041045,76.8556645922727,-23.3340129460739,100.941942319357,71.5025472354279,-172.496825239272,43.6366873935547,0.46806341493124,-5.59491995689161,-39.7291987032903,46.583590341153,-50.5327493331627,-134.14265406969,23.2645150030292,-194.374045254483,-366.63604955158,-176.21731495276,9.44351754806853,-347.612053084947,-153.272374550928
-339.013906827599,-410.801357604474,-243.648376184556,-373.30860075351,-451.965370825532,-238.800984509602,-291.326466508357,-426.617277835342,-299.793778679735,-329.917458078441,-410.412375918121,-289.892492910496,-324.693171589869,-359.067090756667,-326.61488644998,-396.621392380588,-152.140648908884,-268.413821759082,-340.383030958766,-180.234455742202,-243.790895262843,-143.591038076526,-199.746296713829,-234.861388010521,-163.966932783387,-226.39920481456,-153.632246492463,-198.010127314775,-233.289865068904,-179.748574733103,-234.916333364029,-258.830089756331,-300.495305051781,-154.089287387072,-202.599769756746,-258.068572290853,-280.574943160618,-304.777430880418,-178.328521208692,-240.811937811584,-289.97426114406,-295.692025987314,-296.216093982656,-291.619610222897,-298.712443053086,99.1174101269452,-113.765041556543,100.590265096994,28.9218781498665,-267.436259661394,38.2276774081013,-33.3702902542109,-57.882748675663,15.2876123929278,54.6189764039573,-67.7648472663972,-73.812603213746,22.9838290610476,-174.634040195068,-261.205157886666,-150.023290735427,-23.7465034205745,-298.016018738998,-158.778918652451
-396.203990163944,-451.014354510639,-298.278696972325,-417.589914536876,-456.559077633895,-273.326296220863,-347.446777721219,-461.491316584561,-351.976574492638,-383.270423226412,-476.001163825142,-351.730676744831,-390.611373559985,-422.035023092599,-399.001604473294,-467.639758383516,-191.792094755613,-327.320036391891,-390.855169529266,-216.302611608048,-285.261981222308,-166.983854983522,-230.53307640928,-263.0972879793,-182.166181949688,-247.027376003278,-166.228219734226,-221.029541141891,-251.66474592021,-196.240337602486,-240.188753364783,-268.127040121832,-305.501742728205,-169.11128304784,-211.729508287228,-266.85761403828,-288.093209975218,-315.352134014129,-186.282193057963,-248.43111707918,-299.93230007959,-314.819080443062,-304.127163822251,-297.77489083071,-313.238254178981,86.7424567312092,-202.897495475653,66.5604125478103,-31.0431684633294,-350.772471486144,-32.6193328125013,-86.5949448857105,-173.33448510288,24.3382523635215,52.6491785776607,-119.664582909389,-79.3822048840266,14.9936387052874,-204.216445123004,-158.151949471777,-78.777509179668,-58.3268962887667,-245.480713787676,-126.675748927825
-443.118091775182,-465.526389982219,-351.210257886684,-427.816367880896,-433.934672063074,-308.341979537858,-365.565569548627,-453.454511517618,-383.872696114918,-401.33822820338,-488.557190275184,-385.941174501251,-420.855923503806,-447.968140243825,-440.489594488898,-496.78142395176,-216.155046223391,-357.697476159837,-405.307895012937,-232.506602812368,-298.194566776106,-181.005560105931,-233.436383843448,-275.314863259226,-179.216816923205,-248.003526869481,-167.283056258766,-223.441134635704,-254.297432642653,-192.151701249583,-229.697592528486,-266.403606451328,-295.858741003138,-165.67429841208,-205.471095647008,-257.190051079922,-284.258464294038,-314.477214532502,-180.616037393622,-243.554064289698,-280.525050856594,-308.435071452401,-281.362884296665,-278.486272508038,-309.766928498869,47.6767203501661,-282.182540092392,9.64151422350194,-119.409633534389,-423.092135898054,-154.569774073986,-169.464766684191,-314.444358186753,-55.4385659755202,0.331053476805108,-162.892135686006,-203.010369414015,-6.08292776791402,-321.539511674852,-140.770824350522,-3.6080802711123,-58.8357212641683,-262.447328252956,-65.5105245382522
-478.616325229339,-469.726482687189,-381.140729142074,-425.601210690394,-407.397443948648,-329.149465271689,-362.967717917024,-429.889951178343,-385.145018786955,-395.938533424069,-466.331492170522,-374.482275195911,-402.702610261142,-432.629181820182,-416.596915827289,-461.113197437328,-200.030980765636,-326.118781624273,-359.665334594252,-206.219445821019,-257.1398321515,-160.174837927856,-192.853103115387,-238.333137182397,-144.045986080023,-210.754402895787,-134.048001711519,-183.30971946197,-211.029844644108,-152.849632884013,-190.315908021082,-222.665487624162,-251.365385025339,-131.767790734516,-171.780232810114,-219.227827509768,-249.841270418696,-278.922952420331,-147.270502902227,-211.06132938092,-237.422447569878,-267.161720996994,-245.827723727384,-246.333246148415,-281.814355725228,23.181393645416,-369.454674427695,-37.6724559296365,-217.41541027578,-539.863645039553,-247.086333034497,-287.310076749345,-427.645469086763,-213.644710034268,-125.790203891186,-227.628622059003,-452.556366598689,-72.7126097179315,-535.646013298687,-301.52030647584,34.2321689193718,-37.3283328553977,-414.389843542949,1.60171429209202
-516.894675885349,-487.08064301459,-415.872893996316,-449.107704356699,-416.601213448621,-362.808927798796,-398.948855012278,-456.137755883966,-404.347819526556,-449.983112076451,-495.070288391899,-383.539204607851,-413.493729064093,-464.687352448027,-394.330804548456,-445.134059269043,-183.186861774614,-299.82287331099,-333.540225142916,-184.167116549322,-225.787418430456,-140.718244722688,-166.618989106242,-200.429849830819,-115.292356823475,-174.76436069711,-103.106513636734,-147.261362574064,-169.647502371811,-121.223632240394,-157.776766660335,-176.443889410679,-208.512927950983,-103.10858768961,-141.198340741182,-189.169671705805,-212.322249343504,-239.995480734243,-117.433597576701,-182.261341540771,-211.322362964235,-235.703740114333,-233.496168373046,-232.098959755218,-259.400988516043,10.6222372641141,-457.340993731335,-71.7677997014724,-295.942208312337,-693.150680516709,-270.815862265546,-413.187330395577,-485.08975022883,-383.19768001734,-280.671536377537,-350.430083941648,-739.92037208658,-194.237168245732,-778.245494835504,-640.305023715399,-4.24943498239301,-55.7948054657114,-704.841351533059,25.3738763140772
-566.863362278179,-522.824124853921,-474.115850793913,-506.594305795792,-463.792678025414,-418.597842762709,-477.637862871598,-544.134088965086,-464.77789314606,-578.063153737682,-585.105385006889,-442.527879836225,-481.235928083267,-574.907995277079,-419.348312942004,-480.241424065955,-199.949839343201,-319.741431808228,-364.03264251132,-197.840879711066,-239.623816485658,-151.887107615056,-183.317876907741,-199.721388389839,-119.808614770203,-172.045640840084,-107.974512739986,-150.858391008014,-171.900251181611,-126.986010220495,-157.202785351457,-171.002422215446,-204.90779964556,-106.440274588488,-138.23617569034,-189.857886581977,-203.819193658571,-232.25368971124,-119.639913868479,-186.24019172487,-215.930473499321,-237.782534174113,-240.322035560801,-236.632549008352,-260.971896491157,5.25270853216049,-483.112286937116,-76.736600232251,-319.788979053429,-761.809083426234,-228.982552563624,-476.892318648925,-450.002586176966,-442.063365422939,-363.843914792563,-457.476815820702,-859.141981136548,-289.871883220949,-890.475961269344,-928.087641568529,-100.758689646353,-122.41456513728,-974.894521067726,-21.379776062178
-609.453392326177,-565.350160044403,-517.610503769303,-563.242018198261,-510.494381795764,-450.889354618026,-526.474973112467,-625.619045805136,-497.164794193185,-661.574791948524,-645.973128243772,-473.528835720146,-511.427730845055,-657.227785696874,-427.331252098497,-481.498411179154,-212.23189098098,-326.155095262505,-377.812301488433,-207.857535343012,-244.478442495568,-158.801202650028,-194.034886318366,-200.700583325197,-131.907735671809,-178.947763924483,-116.927402633638,-160.494398256167,-185.609187198769,-137.864427632762,-163.109015509399,-182.859983236248,-220.057542712546,-114.493605349146,-144.325000837433,-195.106839051227,-210.467459410304,-243.070261606855,-129.173634343922,-196.748159306014,-221.496803329785,-246.85538360645,-236.511754985459,-237.611586911822,-272.093649796108,43.5843893658134,-429.191571903353,-22.0806255068613,-265.848838310933,-690.660137600173,-130.719473058893,-436.306964558339,-314.462469203504,-337.806382833702,-328.496349389631,-450.136711231573,-698.698202945592,-284.337408417626,-780.682305342928,-919.829924428466,-185.825402489199,-185.938146205087,-1016.79088119957,-123.232360005933
-627.877912052438,-594.963860687586,-526.300935402138,-582.656377592088,-530.128294255381,-448.886337033921,-511.710953167691,-638.123466791169,-461.035723250499,-625.200071846355,-637.240618582291,-440.892103441579,-465.731802423901,-644.115518268281,-393.898691426119,-433.563717350514,-205.294789156471,-302.791708422673,-352.901306415679,-203.587681830454,-233.571434072106,-149.26898409888,-190.746996209304,-197.553338613567,-142.182799326266,-186.590549906178,-116.639045126187,-161.543868552601,-194.902286912852,-141.87140682283,-169.13353008047,-197.563814224982,-239.515167059622,-116.694025251497,-153.891934463333,-200.437278956575,-225.052710285803,-263.77494701037,-132.863792536186,-203.871685469263,-228.266621392497,-262.013311985387,-237.911123479296,-249.838426430129,-296.343516991538,110.107138823472,-392.294011464716,43.7919342944192,-192.241728604521,-597.930766877854,-33.747312819133,-358.172105547666,-169.483799928128,-199.920669396648,-261.453020196334,-383.72176561019,-429.321233642894,-252.859745943445,-558.818734043203,-691.043297526823,-251.325210892724,-253.032202676663,-837.977782084362,-261.374872055629
-591.568660731207,-548.151058507165,-493.993437274424,-524.572036207361,-483.41322111481,-431.062941983049,-455.11752620051,-558.791330400585,-406.930527670272,-533.464611005413,-587.108681736112,-408.400297317666,-425.227419218702,-595.203138256484,-389.725261788165,-430.84065761426,-207.349396975275,-309.817654355727,-350.841326136198,-207.184191723838,-253.574649149924,-140.055840928044,-201.464131124432,-206.916963350851,-147.987411117311,-196.433170612751,-118.665193400448,-163.249927113631,-203.114536599291,-145.873180692956,-175.029469740561,-209.782120365525,-248.756366081041,-119.641302292936,-159.696479090719,-204.140229367537,-233.182863531764,-269.844926789907,-134.71656720786,-209.810514230323,-232.862125878579,-270.848297492705,-241.033449415202,-259.124624532775,-307.659166989467,143.283740455856,-415.473567876135,59.9698185961195,-172.975346034821,-530.12129810665,24.8939546000023,-308.57338007372,-69.2726187253899,-152.205167855182,-249.725489016057,-362.522648837218,-266.305970295005,-302.81022667126,-364.987893656836,-495.842690534126,-325.844940748301,-347.687541319977,-630.703975982711,-368.176402208586
-464.961672638825,-369.359019581898,-388.241720407987,-369.262145737354,-326.507573160081,-373.760718112374,-364.402356564757,-396.835027924135,-370.437862108156,-456.322355542683,-497.597933901328,-409.684929247475,-426.961617159283,-559.044889020282,-436.255039334692,-493.101695163778,-200.838930469926,-354.828892218109,-371.052651528865,-195.427621339409,-278.540931363107,-108.702182113595,-194.979973619381,-186.997403663974,-109.770568023797,-171.23023421668,-92.6816972310294,-135.334700495544,-171.256460552681,-117.73358465024,-140.220850631645,-172.206420428585,-199.552030299963,-96.0991206004366,-121.492898921329,-163.255377279691,-184.554923981964,-208.58628705878,-108.341164656299,-174.460954402354,-188.71604956565,-215.755781066107,-189.794748495189,-200.300338145596,-241.544604726513,125.340257759833,-402.155667428458,68.0574709524213,-174.127877978886,-355.345335728294,101.5867794016,-234.408173365169,52.1630851183317,-129.038887451023,-240.132223113265,-337.919061836594,-197.105481203587,-389.345765868899,-203.271845854681,-401.661780792163,-359.758331925738,-400.508063675327,-508.188891243999,-331.006264703701
-323.355386959136,-172.078292920146,-252.635474465214,-211.191652910284,-149.093596184627,-289.921289964832,-270.952305975597,-240.781456383276,-346.783167161638,-398.687413812651,-396.089412431957,-417.509121023976,-432.165154401716,-519.197942154856,-481.601105562833,-531.579821343464,-175.282910438079,-394.699026008429,-361.356625458496,-167.052519109494,-271.811276276502,-59.1554821171497,-160.752610256582,-132.663991039677,-46.1417973918686,-121.726838622972,-43.192276253214,-85.4286944517404,-109.45351387941,-67.4315984118054,-81.6580948136672,-102.748992671062,-126.669664098241,-55.2939196790247,-64.8334447768599,-99.0030600994031,-109.727027996832,-127.993235812524,-65.1225756447195,-112.655984464963,-122.888635793473,-132.569278795486,-116.561740049262,-113.128874630453,-146.728820515131,49.0994245598214,-317.214408752587,120.240043356535,-115.475998083662,-78.9725792295408,195.659340795769,-86.3896821270592,182.847160319031,-38.0432960539916,-153.210992977164,-224.329756837498,-118.580182291099,-401.225458551034,-62.216740143996,-303.650907271067,-296.276725755396,-354.314540435286,-432.482229765395,-185.905442070314
-298.071821707639,-152.839753967244,-199.547438410439,-176.598254613997,-122.340997696894,-248.917843951912,-227.646644054789,-195.732914509193,-325.944159004877,-339.657037231714,-361.058939224889,-400.494849740224,-406.627027612639,-458.600993581075,-477.175300439916,-473.234231812489,-178.5565179609,-400.930263504112,-316.493456232691,-174.71497904549,-268.237780090304,-56.4282163118686,-159.186073562473,-122.505544042017,-45.8710364065134,-128.356859088503,-42.630554521321,-87.9467840130832,-109.286885943524,-68.8317247755086,-91.3165849211398,-110.4397094731,-149.205055262255,-57.7566176901253,-80.3817350267493,-107.538750188207,-123.547230605075,-154.881375099924,-71.1721463149541,-118.142721643839,-142.000474031361,-149.597147547357,-132.699713699987,-129.139526462699,-166.052681851423,-75.3647501018947,-244.692748540723,200.087465483976,28.2916515998922,70.2258585942737,203.687738493412,83.838629205518,199.618913085534,94.6645053515895,-8.60275910385004,-62.0506188394284,-9.51066938972149,-291.626001909309,26.0948675847234,-134.914820414168,-168.395163439896,-262.540445098335,-316.361756788163,-124.833221614298
-365.198803967048,-303.51686178881,-230.594562157013,-234.162148806979,-251.557387258739,-243.910098598469,-211.220089410979,-233.736763877922,-276.492824567616,-251.919124411006,-387.734278681115,-330.477253295211,-324.436568205016,-373.182826431972,-401.543068668696,-324.591456465086,-218.407569005944,-354.618381685616,-258.769782091091,-217.456710920092,-278.435679625591,-117.847591251578,-200.42694587404,-178.464359486392,-117.86557046411,-201.243745060255,-105.611654128174,-155.051443075395,-193.05309506913,-129.784670142868,-176.993452560787,-212.714998777216,-268.740489426037,-103.461475267211,-165.0576654009,-195.926086274266,-235.514181847022,-284.935209168814,-129.025702942551,-201.379428166489,-251.170949098896,-273.656712536128,-235.092227619855,-251.925886058167,-306.515140745492,-160.76746599127,-191.551205386786,266.341120446861,234.405963772865,6.51891008452976,110.002116822134,227.887514907247,102.06922601819,205.943198918415,136.293929699328,86.7746720756862,113.078034067632,-67.3812265172964,80.0189117935795,80.2874272281163,-41.4948755711374,-182.187135238545,-122.531647590565,-216.710098788412
-377.876255882189,-427.076792400466,-238.026190472458,-251.734493182888,-369.491788276507,-198.43953129328,-156.053524015695,-238.909616831905,-174.132038371165,-137.514333007285,-370.613635614357,-200.673923807375,-183.825664247805,-263.727760239096,-271.596524928016,-152.166552015046,-228.250101810649,-251.522913439924,-182.958358063282,-224.248158870786,-238.917069041473,-170.689456773564,-209.152946508364,-209.657783746915,-167.141761236595,-242.409277078588,-153.600900081645,-200.062463934497,-258.502669090227,-166.449274850521,-228.29516726929,-281.929837663412,-338.71595620761,-123.642276510218,-207.843311260763,-252.286784141591,-310.548873833612,-362.347828492914,-156.432065484361,-250.604299061009,-317.594449438879,-351.140732524417,-292.503328983096,-330.033862206568,-402.278172884139,-161.8301082907,-56.2066666741579,237.418055259847,445.200575815871,-70.7929948814361,-9.79555171970137,356.468509817532,13.3163662018407,242.290087619353,254.744918450191,229.518015679911,213.707919425667,194.679427715101,133.134574247494,253.228994866937,28.5271285289111,-116.60951064976,73.8909100505389,-337.076077870677
-312.35741059286,-439.347613412207,-203.797736743643,-219.183735137072,-387.892802495833,-122.059061982816,-94.5252652333931,-198.994431240571,-67.9148378499367,-63.7675343459744,-278.356103252647,-63.5115390797901,-54.6731339934604,-160.779815443594,-135.312546287374,-25.7215303313052,-171.25153644203,-123.147064044918,-74.5364699145035,-162.863870186509,-118.25957811045,-155.092462783148,-144.68066242387,-140.661064672074,-134.542523370108,-184.142444493372,-133.475473857617,-161.27306926469,-219.74863148039,-129.311481666588,-177.414486799734,-227.164449456283,-267.814912050841,-90.1243986356425,-153.234845231792,-202.643680718938,-253.821681338151,-288.961238024629,-110.984987994701,-195.622886214247,-255.965281930626,-282.553619010223,-234.717228926878,-270.854030159505,-342.027390035539,-154.773651589307,175.686150049864,27.0369832640309,571.665411612231,-10.6733626536726,-152.506976564199,452.937571118392,-31.2236562696139,164.66590056437,325.070297125754,338.449362072471,232.077738212254,329.80272082944,154.513504250809,289.627326662792,-9.82001257317968,-103.223966901848,149.535991167844,-404.414827821354
-302.672684261607,-448.006809190746,-232.832399037011,-256.935187664933,-386.996189258085,-117.643754584791,-132.785921845782,-215.036897553295,-47.0390634642762,-99.7189118484356,-208.365393474844,6.90505409002274,-24.3428585789179,-114.525540489347,-29.5115262714353,31.8835887123743,-90.5992400635692,-16.0866599571571,41.3175706073975,-79.6460118752325,19.2849215479954,-98.3565656841982,-57.3851156082992,-12.2310954442545,-59.1216279528351,-73.5056567148932,-79.4191104977784,-76.550543819091,-110.417546989498,-61.5597127086843,-81.0327638200866,-102.106051345764,-120.265218675892,-43.605562478866,-63.6484278968468,-95.9098820539118,-121.88015093093,-134.066529557433,-43.2735534168921,-93.724054479254,-127.822327541481,-139.178425901402,-124.380460638407,-141.387377070333,-194.615058202432,-151.234874731224,365.776772148322,-250.588212186815,547.211584823817,66.2815739266473,-307.653701901887,439.987339573221,-77.2150196220958,30.2616077009259,319.54029319224,314.610334733231,168.168588538376,234.051556813343,114.919654833389,201.322821241308,-135.024411752235,-197.842067557662,94.3239610256215,-463.584349901512
-396.882474811306,-512.945054451325,-348.331842966472,-390.488524047653,-424.660619328492,-204.565933075073,-266.360931221365,-305.062510732373,-113.883085413009,-204.18109195875,-210.714438617372,10.6853146883613,-76.6410994101732,-118.795744065046,46.985281256124,47.3001930383698,-26.1548193926175,58.1446626833484,116.106749094469,-15.4060356824532,105.000606101295,-45.6800814193397,4.62183743787441,92.4251526153632,6.88172596424712,18.6836572189903,-32.8664228360032,-3.24265202176531,-5.34375113054514,-9.1576397664618,-8.50320471662723,6.35289518634371,6.17757920321362,-10.8569006898492,0.372587735169525,-7.39961970094518,-11.1804277407872,-5.14284470065719,0.904647226920801,-17.5229737604662,-17.4274956334666,-23.3384999799473,-29.8315004186443,-28.9526971556509,-67.2342600171802,-54.8556261349795,398.760876974783,-313.503198875801,388.942342612831,-4.47267228727553,-350.151976875175,283.296255699922,-119.594526545396,-35.0783454344551,238.111630915123,136.352812321581,97.0405523097448,12.2849893404738,53.7703718115063,106.355031622553,-225.832763716662,-337.007783536086,36.7975654960785,-509.504369002911
-446.146373472342,-520.166206731395,-405.863080025895,-466.071247289363,-413.328662199692,-252.198838132354,-343.917239798383,-338.145503081793,-148.307444220805,-246.314024630734,-188.111024822746,32.96061333406,-95.5026268024048,-96.1005530775533,120.197275310246,56.9394219782568,45.4875113438662,132.717646395701,137.329941680408,50.4797136061862,152.453938244556,14.373581248349,64.9366218237365,154.780487852445,68.4223436121776,91.535674466929,21.0050378662351,61.6361086451858,79.9686640613371,45.5642282990279,55.0415690932616,87.9583998596261,95.2183152981131,33.1119229788069,57.817443113722,61.1175980450149,67.9912743153664,86.787038429507,44.1435435889371,42.4957553682773,68.56777449963,59.2843305970227,51.2284929269227,61.5360329569594,26.2160601198866,117.902419639208,312.698001223672,-114.208975785368,179.654463811922,-172.826323104128,-231.435716798131,64.4475242871639,-125.809442605092,-8.68872736870062,116.900581428788,-71.18440156457,60.2788373957189,-139.854261529126,19.258569906369,84.8245659268312,-193.781575732992,-370.488496437369,82.0319126259295,-439.967590663133
-328.338066736921,-370.137398214448,-296.433314509024,-359.679004038968,-268.342734879302,-157.265793902807,-260.805409572188,-225.825976692071,-53.2022110922869,-164.816659228506,-55.2433742914603,129.672460506838,-9.24895586695974,-10.5724063483693,198.272483918656,64.4789656368008,139.369836986893,217.615107424201,122.555429775702,136.40429936175,196.078204837413,93.2262344243773,142.739894863766,191.603844116764,135.499140971222,159.483066256756,89.5521839702303,126.66142151726,151.913525568547,113.285892216125,133.022001930364,157.669409543619,159.539789901752,93.7611211827665,122.890453461951,129.517920082218,136.262464610976,162.01668679202,100.341069602843,107.047721093651,134.929423799818,126.693586250061,119.220153068104,130.648619051038,95.3469150277103,217.573090242026,201.535147114772,63.6635546287888,-23.3484759187803,-271.589687113846,-92.4549475541256,-112.57519177298,-108.490703162691,15.93149086777,5.23882008513306,-174.45258601049,33.9804124518126,-160.593540495604,9.82387598879091,107.180080957514,-92.9970220596339,-267.284023215136,189.271285310193,-251.314766807661
-136.459650394561,-145.853923051622,-113.074483275299,-150.702687887751,-61.6099197080241,3.11886323534964,-92.2061138364077,-55.7795378224294,108.793613110013,-36.6913653300168,109.898795176147,240.478846011399,122.10531239393,70.0560180908597,244.161326419345,38.3340779746107,203.076295300905,258.043007909974,67.9692730989848,196.033036560356,207.555203493289,141.970933533265,185.872804260653,187.739387276799,165.921237776202,184.408672638386,120.877993423233,150.128692376804,174.040325879181,141.411988726418,173.750603717197,182.489050844369,166.869518063412,117.564087134578,145.325730278608,161.857402488263,155.947634215252,179.109450941921,121.917174846686,134.058865948616,149.601039409815,144.163713502617,138.181037370777,141.690019375918,103.663788468893,160.571897105647,93.2307738722374,12.914398161657,-224.668142657606,-251.320385406708,-68.4006156935815,-242.554902951236,-104.081234428378,-15.3608400628569,-66.3856818699903,-164.526412022598,1.45139133269306,-131.257483972854,8.44105761835669,111.950812185995,-38.9934523616455,-157.879527971991,247.308202235544,-111.426874988075
-20.0139592787078,10.8157361183196,-5.81922907329923,9.01329866692366,75.9233076719762,89.0033006471432,30.3220029023748,53.0107428086587,195.13159058916,47.7933082313583,183.950197324308,260.083740712181,191.279876089549,93.1128485889757,220.356596976886,-34.4260115768512,197.330175146311,215.778878797947,-28.9695815239016,185.768734009478,153.363833241632,126.207057357908,157.613461367562,134.401997647246,136.079123413002,144.16490108941,91.7832046429008,115.958849803521,126.79251018381,106.276369045433,137.380484757081,138.7910502319,104.951672000263,85.7088063103872,107.105063945174,128.657355008518,104.640038298049,116.316101467866,89.1547595394364,101.70457391386,112.904912069574,101.213676697608,113.266628381591,105.522746313193,52.4176149140709,8.80522692155544,-6.10137295120327,-181.543728184816,-413.613701322835,-198.002640061216,-141.633902543911,-372.177974030821,-119.984170225123,-73.7553763892791,-104.961099164619,-126.908442830554,-11.3463379504573,-117.170484859833,30.6719612350199,99.9993034096464,-50.4725252882603,-130.610403944824,241.586550922972,-126.057691502827
20.2454489235577,77.0553268737381,23.1092517941115,88.8425505771777,118.648974413974,89.1655332755535,82.9729501171964,105.330140601215,157.18215484273,91.7269527261199,177.608935921286,164.415411653743,160.749615791376,112.183475280993,141.639967260166,-118.262762664986,161.787112291175,131.482905340015,-119.581107182632,142.217818187803,72.9215135423961,94.6183872878885,107.575277735002,74.2306897892072,101.193670869842,91.9358130352829,65.7904022707938,83.0772913790591,69.6958764392897,76.639542919749,84.6365368494504,79.9202887803519,40.5782078147304,65.5165970239961,77.4415726917948,82.5777944336122,51.7943918369585,46.8432701675833,64.5185211020338,71.9592056047068,81.9196706423892,59.5828180598121,103.593626502306,88.1379746402204,18.6245350971381,-123.295248938619,-81.8063694203604,-365.679191496166,-552.067915183979,-209.581154779854,-236.889418739226,-520.794569664301,-159.200785767858,-148.283073855441,-167.215604214132,-170.229987026727,0.999262262217135,-121.126280165806,86.7459021613015,104.890230293227,-45.438920530973,-113.302097841886,263.110582723443,-173.999681482871
47.1258962025332,90.6874094947804,51.7686812968661,122.627888048295,105.455168227748,79.2816726280239,96.0964495375636,136.649274241943,44.0611542054018,109.545218610975,167.932732010687,4.08615409228226,41.149350743512,162.94658568841,29.2282438944308,-205.337639473662,131.45281127744,39.6657245674518,-172.506781867288,103.030816823967,8.14359938567101,87.1770366510443,72.0515202446185,30.0344925558314,95.6384810149104,61.5046326722978,76.0999943437461,77.4279404601108,44.1417154618168,89.6675747382444,68.5312521330294,51.4470594507643,15.6162532430533,85.3529176937317,87.224185583071,67.3127187132848,42.4745404021538,20.2491268384773,79.0670735580324,76.549169205468,73.1074515567916,45.9054460676846,111.560309145846,93.0888713481531,24.0958834595054,-189.623044212838,-198.722996548321,-491.234072262554,-661.173225984223,-369.999335996616,-342.892253426924,-734.404830415303,-272.339982962003,-292.108670130863,-373.230095114409,-402.312796207073,-42.6737387987696,-189.931608780283,100.443798568874,74.1627659959388,-16.0482979872836,-49.607893708434,325.864548242919,-124.626703812883
60.954160713194,53.4064194514606,89.3977053949979,102.093170730686,51.6331485189325,84.174523132349,65.1207219581795,120.673039055083,-89.649517249463,68.8867559764322,157.133721773917,-162.816177056309,-139.351742598609,177.404758930602,-114.699755952009,-333.896220018918,85.1224734174371,-70.915308799319,-224.408808271943,46.2248415863635,-56.8453923670108,67.9650227130598,19.4243076258187,-28.7968423420399,76.6263078934786,18.6073131907974,69.749628068281,49.8205784288591,11.3144399402411,84.1981615101409,47.6598917682834,22.5558409127827,-12.5943465518727,81.3925523596837,75.3549733344811,42.3114480596142,23.7483999329497,-7.82529558417231,75.1180291785537,60.8421526980857,43.9806792060587,16.0618758300252,80.1506043725593,63.4764415408796,3.18753826353851,-199.237420482657,-417.091542457053,-517.085584350184,-732.951801583839,-698.118469562308,-450.005747926843,-1014.05373652443,-470.924350314672,-499.435750487256,-762.850075886797,-792.770082331113,-210.102049210503,-383.8081061424,-38.2947082468593,-84.1172788066026,-70.1514336021387,-37.0524279472232,319.635130835222,-47.7763920891508
81.151609120675,17.375131578805,131.604314214807,68.0215101025338,20.9572507158329,109.577825403619,35.0221272188946,84.1332812768994,-164.022854999261,9.19785939134516,136.782619906611,-250.981934380139,-266.74361690079,135.291686762238,-222.47768873252,-451.202199664765,38.4279969372421,-156.402449502209,-266.791561797884,-6.23589978622351,-105.410909038715,37.4955231542338,-32.4726940956338,-79.6128696809168,40.3420740181825,-24.0497673647173,40.482235914502,8.41659169090421,-23.7276240255553,42.5104973845382,9.65126052058558,-10.0544860548289,-45.6020932402113,38.6957988567848,31.4825394283256,0.294884860852896,-12.7065562408308,-39.3949788150255,35.0215880995145,18.0851971677274,10.4202423102629,-15.6723630364015,32.8017044582793,19.2283917875683,-36.6359221291706,-126.888470582652,-580.256073025612,-351.372455567438,-600.989646229739,-994.082582945997,-452.586520111433,-1126.11658260886,-611.024104532923,-599.360248637026,-1058.5554748348,-1028.66980537613,-394.705419309645,-562.969580133488,-293.081169922123,-294.268003268505,-211.794077832016,-118.083415744546,211.662496237426,-32.0393827483642
171.460560747572,89.9994603290249,216.768759640588,128.383856937864,119.550450748712,183.626705072826,101.480429103882,131.966436409967,-93.3516347779581,43.4367335278819,161.864967855475,-185.100647582449,-213.635771440192,127.370487855598,-198.950903676574,-421.903531006942,60.7999468521628,-135.611637828846,-219.073080492891,22.4740678869967,-69.1451209346697,71.4467853559332,-1.11630520843546,-39.4341220394236,54.0493923926782,9.60117140062041,57.9832074552843,34.6611727907112,16.3075862812799,38.8766075461636,25.186731656505,18.4293699222935,-5.55960115283917,27.807434784789,32.8627097728803,16.2189976996859,15.2950949349309,3.42387861968073,24.58240186569,23.0255362313327,41.8332424157305,29.876849797795,54.3279823947351,42.5632740579535,-1.17906437479305,26.1366448222138,-467.441975208784,-17.8791434635291,-182.670889289996,-949.904651298924,-269.574673860027,-818.456833545683,-519.630650088767,-432.142602191616,-876.42732042583,-798.668919347107,-399.748806287806,-466.552373549092,-449.057419323556,-342.038715976407,-276.452067808574,-124.502279860504,129.285935107056,-14.1358182447827
305.307370023856,259.118542878102,323.326332489266,278.768670701621,325.708223083909,273.543851958661,239.44355739738,274.864220852168,72.3000049183177,171.362655594109,252.80179693071,-27.5836847506444,-29.6391181674486,185.718425102972,-80.9249394637143,-235.257242021217,154.076898236665,-29.0346661232171,-72.3513050298824,125.552367830383,51.2077515673677,178.000977055608,114.71122487766,91.1403009380262,134.450468621203,120.6381519777,133.803599398644,134.376529356685,133.061767163657,102.415165568991,114.244990077582,119.134775265072,121.023085102571,76.5559790753188,100.833075555128,108.456921572866,123.660312181617,128.23477957606,69.3073395031748,92.0951855607945,132.415848947873,146.585183845873,133.301077677111,129.154304223212,113.495319665573,136.925216995047,-165.39766595079,259.724384813243,254.504724033775,-533.685966391278,-14.327568860657,-252.189055944417,-241.116768761792,-102.562271228007,-301.475641579426,-248.428340026087,-194.166803779735,-110.407239334938,-344.580907727675,-157.376568918499,-172.728158493796,55.3098513727179,169.628664001961,70.2453562127175
367.599015725804,381.238934502697,353.576335147088,381.008741055135,481.327778553559,293.391189072039,310.939018013476,390.893227011049,174.356631115757,265.381817602548,333.054185014648,69.8529016390587,108.917915177408,223.820869217015,0.445092963309824,-34.9410448169115,222.633144326561,59.0937849760187,72.5598951729458,200.423318599651,159.308551735353,254.379260661222,207.939002014639,199.509046574217,204.872989392361,209.694865154229,189.778563684359,210.236466821042,220.607586947001,162.320497283472,193.377037651922,205.366266521219,230.499915167822,124.342048063661,157.36597730062,186.110576318361,211.059933220298,229.452599258402,108.892677421927,145.184702532485,196.542992314736,226.718219312178,171.6456852527,180.908848011789,191.798370034676,82.639845449752,-15.849530063105,273.626914471618,362.823203189588,-68.5982451701007,98.8756106491269,131.035768187613,-22.4400055659666,107.968540295929,141.152030513755,148.432526941592,30.8708515026363,181.531989436345,-87.1447369963369,84.0358916973901,-3.35568192464646,244.821154049112,251.960514700521,158.226241402187
320.786251835302,377.112831839216,280.192007740651,363.650637917626,490.789086776213,229.849851545068,271.604965522059,398.520055602246,158.764217515508,263.129709629676,331.630423756968,62.594479241744,132.505198899618,188.036917719468,-5.20247949738817,64.5068123267442,198.571378003151,75.3122542319547,124.500569387451,183.887889708956,178.431388571058,230.89721023719,203.27574342193,201.877448192915,194.579908984048,207.391019697172,168.85965334548,194.126122341334,206.070368249549,152.891904826276,189.62427420539,204.693803155581,234.372138501065,111.837898040148,144.30868200631,177.995294888373,198.379444615141,222.227538435189,94.2747050371306,127.127925317704,183.427131939311,206.692531203803,136.27260567824,149.285059116771,162.795682664912,-81.4671315045504,-166.290938521667,71.7093924931092,155.34546984442,161.642116737166,16.5424448532672,170.050770073733,-5.85243415340322,85.2923699717494,192.549992471522,185.155362734339,108.768637843285,221.196767295016,92.407722191423,202.344942227984,105.299259930113,240.463803906279,260.327745007078,170.721582892064
241.004870732042,301.925200725648,190.867542408078,285.515135779097,414.210143231684,154.612597627068,210.511134251077,348.454130925383,119.128047354972,234.547138568198,284.390314707146,36.2713932318353,125.788637001017,140.686178979657,-39.7571981075348,78.6502545944782,128.77741341859,60.1630424265402,97.5776150583032,123.472092711016,140.791273267845,164.363908711869,149.484294584295,146.444844565186,133.626843103457,158.395054288424,116.103953868291,137.801400375853,147.866680885963,112.131622278625,144.41588720393,157.796535827158,173.270215472298,75.8536817866416,110.002115378536,135.244127633993,138.609007415874,151.829240202732,70.755103394823,93.2115818218966,142.099817798219,150.098815058862,105.805051631414,106.556316526947,96.6269034991564,-173.152831438228,-371.887214017298,-100.635331121055,-42.0199647854197,225.003100938885,-83.1310669863484,114.330247274551,-58.5405380230823,4.22244674294835,112.361879463689,116.857569328605,108.69995417517,165.180683265783,157.400746254273,247.792391765095,170.919852991492,131.508427209012,244.695933763627,156.738519823322
169.545366268017,202.105512835857,136.379081155509,180.481633151853,330.198055485576,99.4383587610148,173.527207543148,298.225025009256,112.936057273494,236.415185560686,262.988758212496,30.9998908877555,154.641791656497,147.704382221089,-40.0460528466803,89.8777489929486,81.6726788442888,73.4449810099737,75.4259649971958,89.876979672651,124.768397855908,129.46527392416,126.556041629094,123.290411572522,96.0930239219418,137.102469455829,101.125746058011,124.751440870744,137.140029716727,110.867653208312,139.900960889969,145.953480003735,142.133322616823,87.2202726977899,122.892615815712,138.306483617437,127.871161675026,120.8474647212,100.683781673696,118.41383909736,145.400788091089,145.021673157583,143.560995595297,128.974361759382,94.3861867231735,-119.722009859511,-357.019679251496,-96.952265626829,-35.6577893487762,327.594452073335,-45.3032642045752,178.535711046824,-15.0410873555716,44.8291459610639,155.957708678429,200.378980084003,162.741681698801,201.108916224459,212.748601879608,338.928220400698,273.720286715573,121.486804691894,295.048837170065,220.80376968736
64.1105546672574,57.0612233985922,58.9025263958728,19.6639304287599,231.013080714279,15.8437629472312,104.971619008878,226.084649373628,85.2853849169807,231.399993168262,269.277572726639,-20.8384138768245,178.037280961942,191.917238771789,11.1102692462532,155.564396617024,46.6315664740534,127.355500162803,112.025404392896,83.0252484663764,145.955554085682,109.072484186146,130.767660915505,134.834496353113,88.2542193419033,142.473854187799,108.919534667734,143.794795211994,159.945639835385,132.216140140124,166.561563354838,164.08438668366,158.074874129542,122.262857367091,158.385389655033,170.864328573508,161.759215725575,145.943830795451,149.080717082102,176.698858382867,185.307744366399,180.278905326385,206.684097733278,185.16669390759,150.28393985651,-41.7440223342047,-181.9266302226,-18.5849011512896,53.1929836765463,467.010988979869,48.0711469420024,274.257224970635,71.8894574335821,138.261713078332,240.818895621843,342.379116214989,215.647530394851,281.108683190134,245.138361387865,402.481068889502,388.664425619894,206.138574012335,335.01283872661,339.056770284987
-57.3602787525431,-83.1349550118949,-59.0451753837644,-135.465147943757,131.029186423965,-104.978672684635,2.3509011115164,150.494413198046,1.7416840008507,203.861546406187,298.339690587307,-139.240702906268,148.118519477248,258.289389568791,116.749632173776,283.683887719413,6.70795038083508,215.691363045757,215.018217397953,85.3028243017501,187.298015909164,75.6045429063693,137.308949959522,152.660360970393,83.9030888723823,151.837432743103,101.443321711964,151.460161261726,169.53440919322,132.918159967533,178.587638681451,174.436284821816,190.946124300698,126.037316003689,168.961474621138,189.988728186874,190.166536695959,186.258435904634,160.49504875574,210.388310137423,220.496550450474,213.15461204483,246.770014150249,225.980438805502,209.206917951342,-34.7232264672466,-33.401609352151,-7.53194231386166,84.0881657540144,536.184711437225,56.2276821923816,279.442233606443,89.541037891296,126.732720573191,229.221832047512,375.286922161177,156.005312535263,288.516557012762,194.563680608703,305.113847146338,427.755654563346,259.152451416612,264.904887501936,397.548098185766
-75.8918683197061,-90.9461242321031,-113.719465531672,-145.545021700936,121.171867677673,-170.268800712258,-34.7529664523369,168.685907862683,-78.934290940471,212.918068748614,400.537762376232,-212.865482217777,81.8126754614993,376.524330900222,277.801522930514,446.663768922373,3.66157361892457,339.677594688175,378.343184551942,119.028242078401,261.309856132512,63.6390941691395,172.637246733974,204.39964011239,98.6349428947389,189.495309643025,99.1483023114353,171.893141162261,201.651928137112,136.771446991746,197.386197457076,209.992522428876,256.465911383117,120.040967320473,177.637876982508,223.02004028218,238.679881906009,257.587276061539,161.647305969378,237.635663034894,267.465273108065,274.956981557879,291.266222413431,281.127833543044,284.522877051592,-26.8411814201864,105.539885658282,-35.7853822491904,106.645203948375,587.926419910912,17.6422915099276,270.532721097766,84.1205904001706,9.66477924326444,165.97638387605,366.208421241659,28.2633838764483,249.677328761264,123.337265251297,83.2202206241599,375.756357551182,273.94340486915,146.295705478561,378.206985550522
41.5146838167611,19.7108820728618,-44.8691237437745,-16.2794050502297,193.544570950099,-118.352243452222,26.2892167810725,270.913999744111,-94.8661479054946,269.819264642222,549.617014130375,-142.008464614818,30.0312134346323,512.428138094925,462.842788095429,596.109840929997,58.6444532615913,466.413238670923,562.404346719229,186.674018116566,358.073710272306,92.0945531479641,239.740842613292,300.394269031833,141.953388664844,262.358889065469,119.573202777042,226.373463457536,287.073114267899,168.389871997434,246.796837620806,298.355511164081,367.534754043971,135.650794660023,211.803050968228,291.599627276034,337.858894193543,380.425572593306,186.008378232003,287.180889367813,344.745689711925,384.759319389918,351.885164928561,366.826485332607,396.769422788148,29.03753937876,304.565512455407,-30.4469486879839,172.006696076081,709.053572488433,29.8722174653474,332.882046718816,125.936267420259,-111.313468632307,127.24983802519,423.047565217692,-63.807504758238,236.528027697206,98.0584525646191,-123.693558483701,256.722590010725,302.647733820483,76.3914136245426,326.208538665223
162.093409901964,81.5005793689445,50.2333070799828,82.3339715560516,188.670415951745,-19.9016799849555,86.8391532358283,294.694294829876,-47.3004298214365,296.959101969174,575.864451014902,31.0790519442432,47.2955352099371,554.751352071915,606.422260109278,693.026587873686,117.297776225253,530.000679182146,692.931342386924,238.003164778373,414.894166318442,119.332018027697,279.703437664262,374.405328649787,171.630566783527,314.083674067445,134.417590406665,266.736794064591,354.822378701811,195.717189025325,284.467523000991,370.640309360465,450.324442261707,153.305961483693,241.839327892786,341.454058074708,416.245483708606,475.958390518186,205.791555822098,320.361507521993,395.920328819371,457.197768049323,372.985451389964,411.087908336383,473.997020766547,29.9304445816822,464.502075105613,-40.6729912752741,191.920769254427,813.206940846849,48.3501769406637,390.690873133851,133.306517605967,-184.459830587829,94.4821694494759,464.183759926391,-103.086989369959,211.922499530729,77.8416590313489,-221.464838064224,57.0935825917922,265.775203692845,43.9116504777173,186.055975782243
211.885408578352,85.8963739650681,89.4290338615711,91.4691245532573,81.4962568150362,52.8823358914394,94.5157189780867,189.790680591811,52.2000784017312,257.080563775947,418.405927807875,212.543584988763,160.153696610795,484.389602943691,681.632554037652,749.354064106903,136.058789100762,520.666875383887,747.466299949448,248.496599917742,409.715057973149,119.32661212471,269.127426773147,382.590184997576,161.87242292264,310.392826208241,133.036042310578,259.322677972845,343.078885313834,197.886859515668,278.580880151722,362.041118586009,436.96323130813,160.109642058366,242.597912978765,333.108153234596,404.32113094522,467.939469138449,200.469945133937,306.897478649175,375.096534166751,433.383838285176,339.239085328943,377.064590963494,456.852570650357,-69.1930461652084,488.976943846626,-120.248093046592,91.2755633305077,820.140831655942,-0.668485110024652,375.623480089913,41.7474546809471,-197.703870744998,53.8265628198414,409.188360192935,-93.1236496544046,118.191118050458,52.4993302910604,-180.183310519855,-192.280203539465,70.2998088683536,23.7347845215991,-88.1132407135187
298.458988837727,231.735632585963,140.462618988944,152.022690606714,100.398888888344,136.731727950116,123.847059143662,138.28923225897,209.627696855505,215.122696434156,296.159222242767,382.626641516965,328.093533596695,429.14324143385,733.89354355407,814.513865278663,152.841722530852,506.715108300101,785.152312440085,255.753247531004,399.569008688062,122.827626156129,257.352548176489,368.396018788711,150.715590019722,292.513082754626,143.501944886033,241.289578397853,302.407066284045,199.826038363076,262.090515364349,317.677271009358,386.410604775019,172.596165479689,234.387795528313,307.265212076986,354.623096627863,417.895851026583,196.347709481451,286.093911449109,331.821016185535,385.662514426468,311.507064775975,335.158695305142,413.238884039227,-146.449207005668,430.673072652869,-214.891469579444,-93.2314502811289,805.246260519347,-60.7649408657253,329.091207891148,-28.5814068090338,-157.704580687552,23.3440431879418,353.045119712801,-8.66747223589285,-10.6476253716139,98.7683941184356,-36.7774313415644,-391.460345471391,-162.100176934454,46.1568668092084,-349.227175414675
486.609339659761,560.244344161006,260.4055761962,345.11073537745,371.145041355958,262.01559255525,228.028535990766,280.066370869873,389.952350498778,254.057284148227,401.93931608973,542.042623406134,480.257283030527,490.381395452288,772.895763291647,894.753726782608,193.805536013142,514.414106631439,829.657932518033,267.597274118814,406.642086108447,138.036573764494,258.842802382106,362.608820723891,157.830969254389,286.166638388062,158.242870112529,234.032264155096,288.368057448193,201.679934036166,253.207132354078,298.930207574588,381.354133349475,177.993904614305,223.060358044759,292.380604043619,337.53460451606,415.171669714942,195.641328424688,277.55587389478,315.141438614011,379.76301861226,305.272719061669,325.926691263929,416.325048368983,-124.885492955585,340.527147460816,-270.973217359542,-284.09186845593,754.548209633313,-73.0232534813473,237.466989577029,14.5469249734688,-142.524550610674,-47.9178527567396,340.883786247927,90.277310291694,-152.768117498579,202.78912188232,89.3312992070251,-528.349378620234,-253.998420697106,83.6284046330622,-461.99304137394
687.968011106649,873.58231203135,397.564777554684,579.501279890078,708.23385049333,387.833118759101,379.518081346278,526.447829854341,537.270426237711,402.040326766962,621.896737043025,659.910900485232,606.102313812944,640.26784060474,751.629644727711,952.986635439917,216.85150546644,507.054964845014,834.319887169162,244.432465087937,394.819909895336,125.475000250142,233.244435086895,340.493026493241,145.96709213193,262.522247876164,135.532524201096,207.238201746829,277.985726355341,171.909347486169,225.829457501049,290.760289923831,399.330452671787,141.213083295362,185.189818801543,263.108196460817,336.648344282182,437.310228875182,164.233498202045,245.58726379135,303.167071326164,383.276158521931,278.866853495204,308.953209632014,431.230672522407,-55.8881144642936,213.142447534569,-267.550407372669,-383.237547349873,491.451797999826,-66.0014809235128,37.9028477146025,84.8884986024275,-205.299246831154,-215.572682353287,234.75526962858,91.065559092597,-330.788789514311,251.658724331471,113.784640794446,-645.720561590629,-231.083620162935,89.2511198177506,-481.822792619065
847.851704528725,1068.50790852057,526.125116318173,771.442674817136,915.519525172724,498.285303812968,545.790129897259,734.257906058497,652.549154929429,603.329958518312,749.6946126164,736.615328514784,734.174171707038,793.977118411874,701.125957094608,980.279311944746,225.026824704233,502.290031514649,794.094840913507,211.666022174225,378.654239199914,97.4448866447807,199.005400994521,311.970172024987,117.019692154985,228.683856550604,97.7574919625805,169.848252170565,254.947062150342,129.474818549074,190.063597363318,271.797261047352,387.730276355691,87.7594962603063,139.792954918337,226.359040224067,322.33458511348,424.627899924436,118.660136656657,199.752509512371,280.942671481894,365.68991394718,245.154466634862,277.174062146771,410.969766371091,38.8667294314127,99.0971981510495,-157.775795294429,-316.775791520495,38.3503262230359,-22.2952331074144,-185.88746671421,129.119928932388,-239.588226707394,-394.929370038006,-30.919616751626,38.5379680074114,-476.295805748424,248.962320886001,105.395946991947,-665.293847211021,-203.689592736623,148.94101853577,-433.544626810813
1006.55880423043,1233.23395782681,675.053864348787,923.644420957966,1026.09542799263,604.934973649056,682.298874556772,864.512777874774,738.997837365924,725.995891725579,764.871745662081,779.441762492423,813.173311169355,864.908845281315,681.525792897228,947.734359615767,274.143276268503,520.797077623887,728.255243667306,229.710064335782,382.935770876419,109.299947881637,205.834571149674,304.6547984618,117.510306764003,223.091449279627,101.120498944691,165.783337672491,241.032583180834,120.928442254871,181.789201936998,257.158522707975,350.226344471286,74.3065332986527,132.702065995453,217.992405779629,304.830393133987,379.839820436241,109.619958415327,192.09086687583,266.596369196054,344.420763947795,244.98516643338,268.070549575581,378.766221756149,165.19208909269,67.9681582807476,31.7360370462113,-168.670760175264,-287.271800541828,104.491318079113,-285.171619841233,215.496304917021,-139.171720056706,-459.32642237993,-303.855178655645,76.2107983042167,-486.478713516849,301.778649110728,143.803727104903,-521.198375549725,-163.896438248308,317.252449745062,-241.566364128604
1164.72656803418,1413.95074080591,817.918426055913,1034.86952743027,1136.90889933741,669.970379905454,717.131153049244,923.404079708494,732.308667381666,677.893944979467,765.113938286828,734.33655484314,743.916950183359,797.22279635478,628.593423893159,777.303878577771,333.605736739686,477.937204821631,595.388155302159,257.129524060758,345.759736960973,138.021706660476,214.004491383418,279.45004415335,133.364897659846,219.814932266567,118.190725731914,174.314335434883,228.930688239965,128.300208157381,180.822995085116,243.770365130416,306.576455590267,84.4966702840718,148.283093157098,220.452831003626,288.039859841234,332.148115215764,122.077365097693,209.125463133407,258.074297184724,324.32386093117,257.422272138471,282.362944448103,367.453223486771,258.275080778581,96.1364211407859,171.551925996783,-104.477118457774,-284.664116326615,263.341852369989,-252.064173698425,365.984354047432,27.4641186825217,-398.641045606254,-383.258726526274,202.871963043821,-366.426878135355,413.914674708286,184.246090870349,-304.915438135616,-23.6762795081883,445.226793578805,85.3278586203048
1247.9950547397,1518.43198662031,884.586773485853,1067.75560427156,1213.39446067803,647.97254334947,639.577128676518,892.310575847217,603.052635472926,521.859883692873,764.108060837785,576.1058539687,552.090895516254,624.001809938807,467.314357956934,500.21945493066,311.876677800714,319.962812502451,391.522679171864,210.221632725374,222.437329709775,114.769124168128,157.437542970882,195.532849479719,107.417091445651,161.226969079853,82.6332877664817,137.153529383734,181.578817241787,96.1346524690807,140.582216921343,198.421816144259,242.532812188869,60.1107169977814,126.827726165773,183.216124661052,243.395003249119,269.792258960557,98.7820767698974,186.067688139739,225.483343428154,275.079366593409,231.819704177039,275.441004580558,346.654346751357,285.226046399911,125.682349442939,224.61985313454,-109.784877703533,-84.2883758515977,392.921433418259,-141.754728572055,519.924244023432,172.734385426449,-244.514599953327,-200.802388617499,321.002431856568,-160.3434525119,498.704293878357,208.669885332493,-77.0191427978565,225.293574156176,433.804880910828,436.402308365678
1198.38162906358,1443.52012732707,854.698991459206,1001.05045964625,1150.71517787682,563.724039654138,537.721329030075,766.549316302181,448.66040082706,406.138959144641,671.281228396724,401.718715743838,390.046911514265,444.37100139019,280.68242511733,296.425087300431,208.788303888912,147.557178114135,220.117337820747,105.329043153262,81.4919647748176,44.0816177386345,58.3228150876834,84.3432336080889,32.2066534867116,52.1032724319632,0.28782474754955,48.3084934992996,80.0825468547581,13.2072810427566,54.217645554134,95.4277945522887,121.859161032339,-5.799768765894,46.4198505827504,86.3250394273971,132.293811761925,143.438361355628,25.7966100159032,97.1436917756134,133.087425288045,157.778615360083,141.245903039457,192.321934776268,240.211781740296,306.941696815602,143.747304000096,272.014387873301,-34.2695216948874,87.1054745644601,497.836518952414,27.3420352572512,620.064954049455,312.970553837098,-10.4958384147819,110.303963761052,412.576484530362,87.0813378830423,526.702440230916,292.969675655905,169.948620388328,421.307435847698,400.005276086537,639.506307032025
1043.42597563647,1195.63539706266,772.057686489722,872.789699016095,927.980354603292,484.814523830146,503.455425445852,608.965139145226,386.799484236707,404.725118754942,465.810266415907,327.513758542012,354.425837459115,330.901733329974,192.025527501184,268.664073699532,108.244113607904,69.0732516495549,146.731585617904,16.7569162142142,-2.50503882393579,-24.8329631194024,-27.8927691545588,-15.6234404469311,-59.2765675934551,-60.8431398067509,-80.9193408479496,-58.057839555145,-57.1798533091946,-86.7838571537295,-58.1686189347707,-53.267562920615,-55.9357577951899,-80.4574114264944,-61.6974246077152,-50.3239367311311,-42.0850130761847,-57.3623888562867,-66.8295786226225,-29.2647803677476,-22.0288040771824,-26.8114566972375,-5.31189087146061,20.6266113400506,32.4210341826292,341.917531977745,142.133521756308,327.366182564764,116.597850915905,123.350881431594,559.360594184087,189.439884345776,632.571188522477,447.92542733915,218.85313144245,327.034289438348,489.952600001353,281.288989992845,515.423371281163,426.068141076479,331.531814122684,406.066496490213,422.817355301134,540.567991877369
871.911024199043,892.814111923988,695.329505841017,757.138705299286,645.736962822573,452.988017035567,541.792486444776,506.104899378383,424.286422409476,473.082813626737,280.887247753905,357.241259932054,409.091238853387,292.490683392713,191.817003490734,330.07165868053,54.9823113085199,66.8266515937358,127.64875387877,-29.8495315241486,-29.7230744342477,-75.3828939391535,-83.9680148266756,-92.2637573355894,-136.809960393488,-141.860355139589,-138.27804494166,-144.307700184412,-170.746702763925,-162.211684099951,-161.252969588726,-181.757324325942,-211.729787463944,-138.316935805927,-146.440073718368,-169.12854792537,-195.476087907818,-237.674465432686,-138.038058862466,-134.353417492488,-167.633363596677,-192.179543662706,-141.819758722536,-152.192811084281,-158.5627229361,349.287012754729,136.693546640632,352.888551096278,216.319274861243,80.2763550778667,557.879901129374,277.098839759326,570.777177729815,539.117824284972,355.666819104216,389.443375169182,526.354098134877,384.868156756311,475.194361989166,503.157111042462,318.277689325944,283.754959514686,428.315442435454,248.295670230494
733.136984336154,644.459397441536,637.792445987408,672.445683238453,426.205052357654,452.713982759888,575.697332943939,459.317237368792,479.749872443538,513.831023629934,225.279739861213,411.981766277928,464.949327071948,295.359232719315,197.247525032255,368.030988898553,35.1384080834035,81.0183380611533,133.024076375573,-45.1267446927526,-12.4392410147971,-103.333882620688,-99.3258997696794,-112.719805606868,-169.740389503265,-162.505319867997,-161.608823580533,-171.082839575355,-196.096458609971,-183.22860135498,-202.501072925409,-214.023601437089,-244.498428377956,-161.097589646366,-171.725898731754,-206.700746203909,-228.684170504517,-271.19321463062,-156.24826791275,-163.785713845755,-211.165904675958,-228.504700636503,-186.364164602063,-207.124517328282,-192.679652300425,334.354250837665,194.744819209059,381.936690561184,261.636751226289,103.422768326303,542.84583525856,341.092474322953,494.246648401704,590.804916741786,433.673131101773,426.776935033225,515.779633505755,472.484085756101,422.35146353026,498.234559847407,253.194021890253,280.360106743998,370.732196153973,87.0188037414046
576.010964099521,432.672819149724,543.519142620767,539.392460484996,283.387298080783,421.242376940583,517.01719444691,376.230213441122,473.567882628494,456.7518653511,227.23084729103,424.738037780242,457.250074251147,286.955168834686,185.679597356037,375.329887956775,39.0846846045337,102.980235177083,187.20929646969,-28.6643999092377,49.8763811871915,-92.2465068060043,-61.2221849582074,-48.7819063497925,-142.13073405825,-114.857204481944,-138.434462728478,-126.478598931547,-132.132885536159,-148.179762023341,-159.007862624583,-147.204936639094,-148.460740968611,-137.469358806491,-140.046096032198,-159.675979901619,-146.327888765946,-158.027657479668,-124.486102033201,-120.14605684756,-149.050444035308,-136.653386330806,-135.039037538986,-140.039562442229,-83.7743811423071,319.606782207388,321.853467880976,434.095720707515,327.150260302819,230.197726956818,524.61103232924,432.891742455281,405.447023009602,589.588091991642,489.790976814304,501.06023107196,457.712654353669,554.162036028115,337.663301432548,433.24313804571,262.44904755438,382.028656857762,249.060148681371,132.348964500692
329.847988590326,177.43004044002,354.027305443042,286.102816470522,134.136390924615,305.222092166671,339.566475586421,198.180774900586,373.598549150978,310.012208027757,163.691449857168,371.145949692772,369.001222362106,228.05917000667,180.131139016106,373.961127240459,65.1749007945957,136.106211590757,261.921419641395,13.5443795898281,120.057302307038,-43.7761137673007,5.56443280013479,54.0430816196138,-79.4520904681067,-36.6592357914193,-75.0073590427899,-48.8035768889735,-43.4588333891374,-82.883810958867,-71.8781087254995,-53.3831076899162,-23.1342552482979,-76.4991897766578,-80.9784076257711,-82.1870440123182,-44.9078848714295,-25.1050984058814,-69.6240860160839,-53.8775666157017,-62.691417054678,-26.4766860239551,-59.5618833565383,-51.9076322027975,29.8945585867176,283.575790912973,429.689513948762,434.315275137697,403.934444808761,340.836559287125,422.64591127335,482.053632964997,238.681330775894,473.079505588502,465.784078671665,508.159304842105,313.547271861276,518.974881882823,161.820012853247,275.357449994148,264.134423591086,374.920484639858,30.0444662745248,117.711659437876
8.99186483686827,-121.839544910976,83.8580653529655,-48.2730268632392,-64.8563603724529,109.126101221482,85.6192881447948,-34.9971017367439,189.082822126339,124.8768586723,24.2213296600385,248.279117893996,214.063812514383,112.260899279952,152.352287446512,313.973714486846,71.0249388813805,133.607227251717,246.001360485407,34.1221522105529,119.39265209954,-5.21148915323631,32.7503930916104,90.7341649831176,-40.0288162712873,2.19917730302027,-19.634717384898,-4.88932085584461,-6.0362322060145,-33.6065133784141,-21.5123679189835,-15.0689432387646,24.6733483468835,-20.2361509607272,-38.2558499039451,-37.1184361062023,-7.07670746378715,17.9813800043783,-23.9450471368342,-16.7697705108107,-31.4550595770352,4.48164674918402,-33.1985854557888,-25.4037653228842,50.938699089814,191.815307141172,461.080695477404,323.253468258617,428.089044715873,361.833031493706,204.663721147642,421.421242108921,-13.2827008961233,242.800283837497,333.565500588558,367.825568543003,73.6928554843692,325.759215255322,-101.665146744951,15.4952834282825,156.917610786403,198.358890156184,-258.753705330238,-79.5010434163278
-303.195447467859,-387.698437508418,-191.348757485689,-352.766993080592,-263.587261802349,-108.748389550457,-170.107459213429,-245.641357065547,-32.0182753126012,-65.9995417148798,-122.926871070119,73.3799826640449,25.824912712917,-41.2830599536725,45.7304827066679,142.519592020382,7.83254929617662,46.5736165390017,80.9299870376993,-12.9105515088271,12.8142188084787,-29.776374740938,-25.1477660291204,7.29046344896252,-64.4608063242885,-42.4055293206671,-30.2976124299195,-36.7997826976116,-52.8381112715759,-44.5448074549999,-56.2770829855413,-64.1567131271273,-32.2365489617058,-21.0963260205278,-53.9699466248518,-62.5756879351636,-50.4625765969913,-39.3225850498475,-27.1473253584995,-41.0698090436875,-75.6032361455181,-53.6891689956056,-76.4337136410174,-71.5543198563189,-12.8189252735862,40.8141632077538,429.191499120058,142.5516975371,366.509767267179,338.526574168402,-50.1919931714953,301.924137022881,-272.671285851615,-13.7039867047001,169.474587417692,146.095410747473,-211.854599289588,80.222059670783,-380.233464061046,-269.917493778899,11.2188620933976,-0.822986424738747,-516.17186803701,-242.946579578398
-514.235977187095,-544.252320198495,-381.191392039061,-526.575252292501,-386.042974857195,-258.926273030515,-335.898659357068,-365.17594470525,-189.52218337205,-218.621281179205,-210.414853315008,-80.2703598193669,-121.357005994243,-180.185138365111,-96.354341573083,-66.0772470607882,-74.1114351005586,-72.3354948833114,-124.888252884633,-84.8310680412648,-116.095758340342,-89.7967370499232,-111.093712526843,-110.910112043205,-113.336582424607,-119.690555575717,-82.1926001798256,-100.369420840105,-127.875080572209,-90.3303017578474,-123.295862100544,-137.934085059,-115.113148376628,-64.0356043331926,-104.046028932857,-123.117521525225,-120.096461349114,-118.389586443353,-73.091198763775,-99.6546542058388,-137.969681262728,-127.301830626845,-136.801413353148,-137.663364514439,-88.2118658142672,-107.293676881563,350.682764708883,-11.4349995679499,251.282131266465,297.135150268874,-236.203022557053,211.413520433095,-455.108055705918,-216.225734416419,57.9645064954428,-52.5632942739294,-476.005968159639,-111.077941878011,-610.621040820616,-503.172491731159,-63.3222860254365,-143.987925144173,-693.76151624927,-206.040808240613
-582.494119134812,-577.505318864891,-444.470580667066,-544.682462697366,-420.565607945702,-296.269069422361,-364.850862097833,-384.309832507457,-218.111636917453,-284.627526221536,-229.817983354872,-140.148169363431,-173.195422889038,-259.130763169151,-174.224024660746,-194.588757766312,-90.9295054203279,-135.429024225444,-236.376599453368,-110.062404921749,-170.743624538791,-115.445484285459,-141.502698666022,-155.105514454406,-126.964012925785,-150.804031341573,-100.954689047471,-124.624974091377,-155.552532929919,-106.962062268236,-144.284380052072,-157.90493517867,-142.609754097543,-84.99875673382,-123.769061411487,-149.210494908471,-151.664892690016,-146.255672780842,-104.633442145134,-131.377856429968,-157.577242310469,-152.00361054029,-161.65957673638,-170.999821096122,-121.388116129937,-156.217067143378,221.096756779721,-71.2527186335356,150.738406373767,202.717994459751,-301.37305291914,164.555697040813,-512.629020966459,-330.338619028388,-1.35593058553561,-195.136806600012,-646.559935698209,-236.284454085765,-745.433016800836,-667.383275318684,-93.931201334682,-300.566143709236,-798.808382760695,-90.1917205857749
-559.852716907231,-554.279637916993,-431.166565409902,-485.494578264661,-435.674126350193,-285.787051159328,-322.939388602403,-383.950064484278,-189.000597832568,-295.178900217856,-259.882858053599,-145.657392761166,-183.635930006621,-312.323686750987,-205.60112703382,-259.7976063156,-85.8415967612939,-171.978180042821,-286.533544362663,-120.256434260161,-190.970264298836,-121.284831688942,-146.97978507677,-161.73325994056,-136.434722131241,-160.633653641453,-100.418130806544,-132.687635509433,-161.761611069171,-111.349507961616,-145.254134280372,-154.776867739601,-151.657871351462,-88.9022663068623,-126.766223651343,-154.045536626025,-165.843916080962,-155.232132603796,-117.138595280328,-142.750454439454,-162.530768762807,-160.123197917177,-176.355979379252,-189.415412943822,-141.529634599377,-84.0566493376128,56.1385739936285,-42.2095457096605,94.4581841927432,65.011278186089,-259.600468781521,133.632296682659,-441.05732825697,-346.940424968219,-45.1914422807259,-265.429324608047,-666.402372755376,-310.935899385418,-743.83377139911,-759.835866606867,-170.216062002152,-478.799648354771,-823.370383433326,-70.9397060601892
-519.27905555819,-546.900820745559,-405.981490600315,-443.418300623974,-480.897142364929,-305.768332269777,-301.96997257729,-425.343661663912,-199.86487589687,-316.564471564525,-355.550790771426,-181.590752170447,-225.088186666353,-388.749963985435,-278.289491108453,-335.798271252541,-144.417333729775,-255.870116581822,-363.76928972609,-180.715766831588,-256.413223063512,-162.410405527149,-198.982986932986,-214.585778406206,-190.717113870252,-211.211037251692,-138.864701445998,-181.276713989999,-208.791076730231,-155.689939125359,-188.254372328427,-197.823813785631,-207.95552382153,-123.252824144591,-167.074344410869,-191.70049561833,-215.284047737544,-209.88632366372,-151.72642285494,-180.792270234213,-201.948591124119,-208.352349495,-217.066194061351,-231.634163672745,-197.439558414511,34.3082869428484,-72.8338987608479,29.4626188874808,80.8221185377169,-14.1297331912107,-156.393313349073,148.05444590579,-278.980081744456,-269.980921154082,-31.507015646222,-200.692726180053,-541.539472125379,-308.464485971156,-604.457591194195,-742.794752443544,-274.183507321369,-564.213346055779,-755.049424256918,-158.56639836466
-479.639435700161,-564.671887061018,-378.3890589306,-438.789832449382,-527.807405631662,-341.518537435031,-308.898323830348,-471.473936279392,-238.266420254413,-347.014508061183,-454.362595313792,-243.633530869036,-270.572421846906,-452.96907282451,-379.543012905488,-391.521517098391,-226.487888200407,-354.428401002685,-428.727047189816,-256.392869719975,-330.025328556832,-214.430676082618,-264.62544592903,-279.10216561247,-245.534229759669,-272.288352748278,-188.035835888651,-241.198032284292,-270.333216919439,-209.834065776606,-245.986788333896,-263.792309741836,-279.913640369171,-167.466910781466,-221.757282973353,-242.775845725305,-280.490857792539,-288.539931927853,-195.013413556971,-230.912641963782,-256.060770896754,-278.824723138958,-261.00697520863,-284.997176032379,-271.919442625239,117.835829749054,-99.5329380910542,104.708165881772,126.470613912289,43.619292126923,-44.1450075314043,259.536443189388,-100.79290371205,-128.791848305826,120.602424873738,10.1654978058591,-339.991314439331,-204.022711779596,-380.778471568013,-585.474157928982,-302.158934348243,-502.839727371326,-609.819291965575,-263.319985458467
-457.94622325659,-592.605368743097,-360.732693437055,-459.078429361192,-547.061511370278,-361.329309085799,-324.268404826058,-490.276600511433,-268.051378481373,-363.282841674141,-496.363213750356,-290.015696026063,-280.755940887651,-462.849817669442,-436.294915157321,-375.615444597413,-250.926191405686,-394.385901983232,-420.085365610718,-279.28938870771,-342.240219027706,-224.156441180991,-276.162723728311,-289.636622340217,-246.475037515938,-286.559554801855,-192.399683399538,-259.386551667826,-291.645059323535,-221.040494897168,-265.472963014659,-296.384898734728,-318.830776203714,-173.951633907262,-240.134537812473,-266.07354216685,-318.616588980036,-339.413259852199,-208.226315170252,-251.442443630903,-297.804655148315,-332.543695937329,-289.141461289208,-328.258951779728,-331.516501571709,137.237197237888,-74.2360897732473,141.850902618746,205.152218060149,153.669076649239,14.5911019597068,391.382470746759,1.14888554819549,-1.53668332212701,339.200734221686,213.305721437369,-151.159467439247,-67.71183641736,-161.49822265846,-342.253101664101,-226.671156834036,-391.539000571053,-429.912677515638,-324.880023441177
-491.373372667085,-624.794618760909,-393.213447239224,-509.056327886656,-560.93833756964,-393.477854933754,-372.695694350994,-520.275346450768,-324.419391552557,-397.602833411242,-530.581220210784,-341.623561883037,-309.352195077413,-467.189300561456,-448.141882060904,-351.497276215491,-239.354731368284,-386.289914052778,-394.725044067557,-262.818019776257,-319.629771367572,-204.468479927258,-254.807490213821,-276.551406146599,-222.760435150742,-271.01746553927,-174.857887013639,-251.700279531711,-289.794881298882,-207.68924618533,-263.614196792113,-307.662422981505,-348.045922352928,-158.653913064306,-236.394140950547,-278.872251491095,-344.751398939302,-372.309182664257,-203.59949655949,-254.630923978621,-340.358851688707,-379.001427308107,-324.46626312969,-373.284505356329,-387.055090999321,100.714011292016,-124.629089214624,98.0656467021122,200.484896557572,136.428910182504,-26.5552873359849,356.127489794696,-29.4406460578845,16.1584127394245,392.979420796173,202.507956062813,-58.2896213536328,-43.6087461490032,-37.8993979575072,-143.980507290726,-132.395979836611,-360.687669217018,-274.985965541584,-343.452472301821
-563.333890681096,-638.514039900728,-465.251080009769,-571.126958352641,-582.235647158129,-453.110369741795,-458.387391507842,-575.766038884198,-426.921617891805,-474.563893204176,-602.349101695853,-423.297790510403,-406.610201281652,-520.757331449525,-453.978125542087,-399.674172302259,-250.937907961358,-379.252119312429,-420.785168046829,-253.253920383417,-315.595451662544,-191.872821282268,-252.413204155526,-289.11557929798,-216.358054448114,-265.518196414569,-175.330419868204,-252.713635714576,-302.091642237046,-204.850488046617,-271.739948537991,-326.158316702859,-390.383694598092,-159.895711130181,-240.969955883817,-299.968680489962,-380.52645160609,-410.672542143476,-206.091705827519,-267.660264707066,-378.224379525554,-424.798546638645,-363.95845275127,-415.184574969762,-440.352377054735,33.4614165232219,-266.632405679035,-11.8483817270965,42.6353929444978,-47.9255349413625,-140.113099198833,105.359828314309,-151.147574796101,-86.5711555940876,181.734038747766,-19.9857219794882,-93.1294362487921,-171.021546959135,-47.8402323698752,-85.6325493606929,-91.2948159404855,-423.31384775173,-202.726004640922,-336.849127825781
-593.218168451863,-597.323044594806,-502.583329544258,-584.551729643446,-567.772428020802,-482.581193299239,-513.59170887696,-591.053212966788,-502.926691367369,-532.948551106837,-646.889869603967,-478.581665799787,-501.703731980984,-573.693928698984,-436.109950379871,-471.658466294608,-267.674466397218,-363.567280340082,-453.48000000584,-241.910410659946,-310.75429916094,-177.91676099636,-250.69048932298,-299.327784846495,-206.63502652064,-256.682869177182,-169.795186752031,-246.66592739449,-305.442975050972,-195.850710751428,-267.919443545468,-325.062635177146,-404.910824222365,-161.967143994399,-232.502796789961,-297.789712619817,-387.528636706089,-421.258575301691,-197.798932073998,-266.90649482365,-367.828205141191,-425.483948013665,-353.183652814698,-406.686723732149,-444.164003156581,-32.0701622470684,-357.162607416669,-113.756792187345,-160.680999871339,-240.257153433545,-240.001263834885,-164.219895585745,-254.305850802906,-206.139104690729,-106.05548226085,-211.264634978374,-189.839201657346,-304.463883569859,-133.57021709907,-139.621455812452,-92.8602142243194,-462.014332480833,-221.619449060251,-301.168830894839
-518.158313425298,-485.192905614385,-448.32425149304,-500.663386768978,-467.698145675064,-413.98034623588,-463.814342731813,-504.817953308661,-462.73341464228,-486.583173220837,-578.046163682175,-426.854547607456,-477.019836598688,-526.21217310055,-346.826294334327,-450.962960014437,-229.157783695673,-290.55216886892,-407.494161519693,-188.997175155522,-254.394503276462,-130.075353921473,-196.825903284571,-251.783705706306,-151.942634162389,-203.542833095124,-119.184779340506,-192.705616972829,-250.481685547918,-144.585093550338,-214.133003477517,-263.526510874607,-339.97239684582,-120.802687618748,-177.326891720615,-237.545665084478,-315.190010371878,-349.568577063705,-147.897923661357,-211.786731022115,-285.282895851319,-341.690697039741,-261.7623259928,-316.927090753152,-359.236753850695,-76.6282518052288,-282.449261466799,-154.314429801976,-238.428744394676,-292.245009281282,-267.473514902817,-249.483624552844,-265.971210066596,-235.749820743392,-232.518776873983,-189.584993886829,-230.592534997334,-300.657069910253,-185.01982162149,-188.607178796017,-95.6464236674944,-379.596468658108,-256.958268760012,-226.94160564287
-365.589473101008,-327.31872582652,-320.770417245492,-341.459430197341,-304.541928768171,-262.318699588198,-323.356164192237,-348.207258014223,-317.40128771391,-344.890150501745,-421.194389438998,-285.257562746246,-332.675489234836,-373.940294064461,-205.219697055227,-327.996285410721,-142.711234548751,-172.598137858347,-289.854692900565,-104.029428186829,-157.552651421154,-58.5958521486186,-103.770308066469,-157.550449225934,-68.1647134023695,-114.466254353268,-46.4168377628819,-101.215499681936,-149.568181608805,-64.2899955549056,-125.608388945195,-159.93420460437,-215.825852199248,-49.3524549043019,-96.7630914086697,-142.975223659204,-188.974960303344,-210.687877440275,-75.3251011465518,-121.901610782852,-172.991862460367,-211.193357693771,-145.146539441804,-190.625565737118,-222.625474475421,-113.84692319994,-117.218834621888,-154.385781422596,-180.762185444619,-237.648826723466,-238.296703260023,-188.098018331027,-209.723201236548,-177.870428281851,-191.985844499591,-62.1344987932916,-173.394012094244,-208.189474444246,-152.077010100967,-149.102992360844,-83.7318198851432,-237.092963030866,-221.55546192527,-142.636535994484
-220.328874062312,-172.96092332496,-189.09533342979,-175.153621728874,-158.860221718069,-114.374909619179,-183.512742550626,-204.690569778896,-169.978875230149,-207.960537345476,-281.9754551218,-152.623655055446,-194.093246136735,-226.138763887047,-94.2758221209379,-217.274044781572,-78.8908013095868,-91.6950364489795,-193.227976009539,-46.6175159797098,-89.6426947328231,-17.6705493866698,-44.9625211181135,-86.5061378945904,-17.6634908071141,-51.2747905594098,-9.34767094776204,-39.3291970824358,-73.200393022054,-16.2426327030012,-62.5290859909671,-78.1115833156853,-112.699214446067,-14.1026709431312,-47.3089345580895,-78.473307192564,-93.2410000357433,-92.0846675641763,-38.6593093859683,-63.9127489423893,-101.894301674989,-115.973663427211,-84.7252155255129,-107.486605978747,-119.212322306848,-159.713534904598,-27.2883849089849,-166.605835977318,-133.158291070765,-205.732211003356,-206.25698280355,-160.655100781878,-158.145819287526,-112.639136244522,-147.512364794874,-46.6552188318175,-87.1961181505202,-168.790531165141,-82.3425857005218,-44.0528278975781,-67.9227613260917,-167.528196775058,-119.89757609891,-97.9024812883071
-113.278978723676,-48.0142724913111,-89.374270991449,-34.1296012692321,-67.3798246008576,-12.3717277497317,-88.3180457801683,-104.565635256388,-73.6574797155183,-132.017760308366,-205.408621918453,-57.6689084957614,-132.784245199525,-157.489497335853,-51.0444282279445,-188.880513578469,-54.2043749504818,-82.7838506540749,-167.720574219579,-34.6746026055056,-78.0868855439098,-17.8051293838799,-39.9657696260093,-66.8432897133492,-13.2909156181032,-36.2820463324393,-10.6070315674705,-32.3447693648376,-46.3185109924044,-18.7774086835358,-42.7830186535388,-40.3634973188352,-62.7544674940598,-27.606285289944,-39.5401012332393,-58.776436156074,-57.3034785213025,-39.3084413974083,-45.9607821120439,-52.6473681129008,-80.7723805670293,-81.4870763298853,-80.4641359746188,-81.5454073123023,-79.4513787142723,-190.437267049251,-52.6586732122798,-190.075618627285,-160.278772019098,-230.871741828047,-190.397962296032,-211.258298922762,-136.771211252114,-76.6733225922481,-162.691213308452,-156.450293391801,-29.2825362472976,-195.598926973688,-25.1758696494709,72.1787949303153,-49.4923377620405,-176.862844272105,-7.61258655256576,-90.5576403234076
-25.8367788562984,35.4850060667367,-11.3850991739614,76.9285881261865,-17.1511920827101,65.6925214094712,-9.18007970288272,-36.5707227558686,6.72033344247509,-90.3755813367892,-170.953822851386,45.8834980240349,-93.7612587891088,-148.636770944888,-51.4182752666619,-207.873590137577,-29.4865004437665,-108.300327473617,-189.283786199742,-32.0289045447591,-91.2182096357794,-15.7281290764522,-42.802789690856,-70.9333320594011,-15.2035509177947,-35.3708499770799,-9.75418818222125,-41.7480486626224,-36.7939731341856,-27.6214278221878,-33.9818826793019,-24.2220301755931,-40.3801703652125,-38.6776210164588,-39.9804473520104,-47.035085136684,-45.4235952892825,-27.214641922579,-51.502495485751,-49.6056433069507,-68.1081726492407,-75.572587311807,-80.2346414035022,-72.8740294347972,-73.5497084232435,-193.030577047215,-101.669942795482,-192.050586197848,-185.23064661661,-251.748585970237,-177.63762491827,-238.981898038441,-124.40457258094,-49.2853498528814,-164.216522834612,-237.309990469191,12.5142965593918,-198.102971097635,16.0375694121354,180.700327500575,-20.9392444599921,-171.849172860826,90.4733173932179,-78.209748963432
30.1002402461602,63.7323898202663,45.6335602793827,134.559187896168,-7.7824426797114,121.902339567348,62.0995093493631,-10.3089050339528,92.2927060629505,-58.2583289668603,-173.550518174965,145.395233963782,-17.7108013274987,-167.622209542197,-81.7885771939906,-235.428149440045,-1.14065470946656,-140.42019983552,-233.62879397184,-23.5971484155164,-109.026080388829,5.82204614566939,-35.7224200885929,-85.0206449101156,-8.84864689711871,-33.4653451342518,2.08657263659297,-42.5731339985087,-35.5415022141153,-17.0859219717548,-22.4386897541666,-25.8425053007346,-42.1278638137237,-23.4982369528265,-33.4052804931439,-34.9784486604916,-44.2915179549124,-40.3965623994403,-38.8951785435721,-44.5601847864642,-52.7769017739949,-79.1028567244727,-69.1926845404606,-67.5909236299439,-82.9277803089547,-201.051623971259,-119.456730869427,-175.536002123967,-163.942386706121,-243.09555827538,-164.068035975176,-212.128293774894,-107.840049416114,-18.968302883212,-123.813748951291,-235.449464405449,50.7886449377341,-159.106994584187,41.3892771850022,267.541516238868,9.2314892281872,-133.789842291831,160.402498425763,-47.3026197369588
38.9472098204186,63.5151874947114,75.9207474540066,137.580798202217,-23.9204269220776,141.095650109203,102.558577682039,-17.8859340222254,160.132994000881,-37.9194163381384,-194.624098647233,180.079830035225,76.7211948723638,-190.459239097654,-130.416094055425,-263.499471686438,12.4557166266911,-166.60499444162,-285.72947888982,-19.5673974244623,-125.030426188411,29.1192625546929,-33.7643080017798,-106.01893873754,-3.99052391072213,-38.5069461583837,14.226791446903,-37.8044259881795,-48.3627274774124,-0.51914866635766,-14.7154447871362,-45.7406712706348,-71.9259211855298,1.97352448141713,-25.2894703373432,-37.7585670055766,-62.3658478118469,-75.6786091316588,-23.5022629562446,-48.8282413196981,-49.6875920419381,-89.6580939283695,-59.5238318921814,-72.9358756690729,-100.334802183148,-219.346104693797,-133.417538856559,-148.184423712997,-137.903536319822,-228.99161201174,-134.535555455746,-189.35816837259,-65.6737696969206,21.7765326791379,-88.2382846855258,-221.848257551197,83.9331182535193,-128.90725051766,61.8474415660693,313.399891282198,38.082125139654,-102.811708429058,182.774692560937,-4.68449228349606
24.3846799380464,72.8473913494465,86.4416765277934,121.777725760156,-19.7353478002451,133.493131544869,107.258811353612,-15.4692678577069,185.03430560954,-25.6138044914466,-176.370753866418,138.592392575,125.69318250621,-186.387835314236,-169.218579555213,-284.029374451119,16.0586489653729,-169.755426023992,-326.054746413384,-21.7192654841828,-129.28520487232,40.5338948292889,-38.6766390798689,-119.579858973984,-2.07376922855706,-47.4362387785263,23.9215642466531,-34.7565573226758,-61.0913190374449,4.48684290840605,-15.0531170903211,-64.3662968382426,-103.232596799059,15.2816629616682,-22.6651459258141,-51.1224293854864,-87.8501271141261,-108.010575875226,-16.9737359700696,-56.2445217133764,-61.7879004382635,-100.429803299092,-57.1554548120446,-85.6172909799803,-112.11626519824,-202.795196491959,-159.654008789661,-96.2450522438107,-116.416978183976,-217.563265183334,-62.5386430099621,-180.190192442616,30.6710092356222,93.129174790626,-63.5744701161618,-220.051910883027,140.614683684805,-106.895115344534,116.908266663366,327.761488035917,82.5959642233899,-65.0547753584352,177.696098601677,51.6571525992726
20.4866676488996,75.410035168059,90.4172383241798,111.779673182893,17.3700431702998,122.258211676747,100.58060414657,21.1176737487549,163.899472038434,2.57190587033595,-92.1389784340506,64.0904876732569,98.8234401913141,-143.58403470866,-187.035020592633,-293.386785202973,26.3199014733558,-153.516910002939,-351.124232608485,-22.1528393177946,-125.540246327153,46.4660244989578,-39.6815068351908,-120.975251970617,2.64999623373757,-51.1333905589609,27.3453613614586,-36.2732780696085,-60.4298826652775,-2.8699674289171,-21.9836872406863,-66.8204830832831,-105.221274231292,8.41823794368402,-25.3626884784022,-55.5046665838886,-94.1832208913047,-110.16843267554,-19.8078133928898,-52.8567569095815,-72.0146065425289,-99.7795741457143,-55.5559736395151,-88.9452034876238,-109.739221691599,-129.182166130697,-147.219117652804,-13.3313326357812,-28.9225261699551,-182.327762523858,47.1318859985189,-125.636725642503,168.749347976868,204.444338732235,6.84726778206316,-171.014572855514,271.762642431004,-30.3999943788315,238.823314535352,373.875311929036,167.228212957257,28.9026524405063,229.043957317525,133.555566957251
23.3319404851826,23.5633486934204,91.2468052883021,96.5581741049149,30.2457497747881,109.18140953797,103.606842114432,63.1848968473699,106.922409721524,58.470683369361,-1.27050578526201,-11.7690354424345,25.8696100656506,-88.2555598352406,-205.605814137751,-316.301778361524,37.9447175136478,-151.009547281232,-380.646581248873,-24.1873350299106,-135.849880218512,51.1746898260448,-41.3731463099743,-129.842710900143,4.06014420911159,-56.8520138761679,17.3001460050551,-43.2300951568421,-56.3050438599763,-15.1142646715322,-30.7737865705745,-63.7613744708062,-86.8742825956584,-9.40865126889135,-30.6921629851522,-47.9691485254205,-78.2728244661135,-92.712674289985,-27.4914884271203,-44.3034311334107,-65.0986634531135,-88.0122131418918,-47.6644236429987,-75.9328318018071,-99.7858448423875,-45.5919121064516,-60.8639557414631,75.9761437160301,149.560228628675,-102.948118308686,139.468782591879,-8.49290894988832,278.860641203998,319.472311096253,139.287583841611,-61.0966261849456,448.932318917444,123.140191956782,387.701446612856,492.988532846819,302.492193600028,167.388338890864,390.523196407472,250.59449955914
-0.822545292196239,-88.9919257715515,78.7815521692559,55.3651160401247,-39.5437423464697,80.788686363902,106.612747910262,64.9425536789023,30.3426115284403,111.731270536519,18.3666573309898,-86.0132491525318,-47.5226773746121,-57.6290698894974,-236.497039326963,-369.988391613581,31.5049480142555,-174.04380509016,-414.840171727737,-34.4035444711618,-164.547158070897,46.6953508305901,-50.7230420068256,-154.675779545631,-5.5056451375434,-71.2225787626261,0.577676620949885,-51.2773240745055,-60.9360062556585,-24.1919345327457,-36.1704771049159,-69.8643078423471,-84.7553227505372,-22.7567435242236,-35.5634123431493,-41.826101733041,-66.9303459969657,-90.81237503056,-32.3756821150635,-43.4342679850598,-48.3633827028271,-81.4135655388555,-36.3117912942443,-60.4143723600691,-94.9384908980862,-24.0711659558963,42.5023076366441,123.295332279218,312.229777741031,7.9225213053592,149.308290069861,115.522202968833,282.140580545147,361.883286851139,265.05376964054,42.9114703273199,526.705029260279,294.613258977962,448.900062694977,587.823871650091,465.977638796757,286.472130532859,575.84153150304,393.084970773043
-52.1985294639897,-205.385541142976,57.1195628763337,-4.04392635175312,-156.09637077672,48.5080215237303,91.4479073361948,27.5726210032177,-29.7633326887763,126.622798666089,-16.3184179229462,-135.599038482195,-89.8378436390298,-52.5527897503223,-235.638651387021,-403.225022274298,25.8790583025974,-173.270221118232,-401.693501571335,-24.6233064468077,-164.67170791338,51.0092079481347,-36.6615137406235,-151.496795471002,1.55329538218304,-60.5414358338427,11.0262201373503,-34.0145582267324,-51.3794089545889,-5.32715731180995,-19.163542494206,-63.4378559474932,-88.1379377486322,-3.28586087133455,-18.6206254089354,-23.7730258504576,-59.6047445478443,-95.5355853929183,-10.7886069155484,-28.6707261728975,-27.3196566928107,-74.7344057234955,-15.215197679808,-41.7316580872865,-86.3795135236676,-75.1560600931292,102.964427937806,101.081025656255,356.70687325376,143.04563680469,75.2434633316697,213.760325871841,171.062046586964,297.67531951791,336.216431486235,124.399915872604,411.915879553544,433.54006111917,356.742014207099,507.29761794936,610.666511078893,372.522787048869,633.503417372602,532.847282238557
-117.63064797751,-295.556507375118,21.0004611325244,-78.4082331576828,-251.51026328792,15.9367580535428,35.9659890470289,-33.0797461411345,-69.3129574611408,80.6585343856163,-45.1458611631135,-152.434585127465,-117.155500525613,-66.1377363268999,-184.509072787047,-375.121183994982,32.7623690788098,-129.2075803105,-325.910311003985,14.2338859984029,-115.912525676482,74.7164630694919,10.4325444679243,-100.135996525641,37.1693224572967,-10.9275279888476,50.3483791469116,8.72995739333229,-13.6052475930469,39.9281032389974,20.7401732870198,-28.196618194656,-61.3733489586169,48.0789675739576,21.5359167248508,15.2502664990751,-36.9118007502895,-74.5963632378217,34.4499192222809,11.8265086309906,-4.87389135247732,-54.0636367369763,10.4527343277048,-16.7893393335592,-63.1168225585338,-165.121187436903,128.263549061639,9.31263274396522,297.610464040586,293.950599656316,-40.5529012989194,287.699171954909,2.05777964091468,168.061958833678,371.596507756223,231.327020024659,183.870304913452,524.354271957324,164.876369170525,245.595617059427,665.151157453397,442.408792319451,493.638470017691,614.556304062031
-210.333092994285,-390.114901978399,-57.8790433395144,-179.362458476185,-327.485586137222,-46.0045865084126,-67.5067341632733,-128.833176184246,-137.681311583753,-28.7002387697285,-75.4011631293492,-187.934713771452,-178.3610016294,-115.509705215804,-159.92974109556,-342.164062543531,4.41549130153466,-111.24797335448,-260.726289103395,22.7686024069474,-79.117458227596,76.0565213645509,33.3996410303934,-59.9481826682111,56.2976833175084,23.7521914381448,65.2290196094689,27.927864607722,16.4588049786863,61.181452459285,44.9005313343648,2.87709134631341,-23.4593433349576,76.9385721329921,44.2756888855929,40.3248478484499,-12.9538079919157,-39.9762160025543,55.4451993373234,38.5527434206265,4.58885932437473,-33.5233210163285,14.3246497342343,-3.00515821613277,-37.6886163204965,-278.865549143755,139.497290135492,-135.488450006492,192.773199093051,419.912098378983,-171.435439578698,308.160341500238,-161.653442241994,32.4112198647607,375.381802658166,345.692696418021,-21.404061785893,533.132901751358,-31.8164650044235,-35.8519902648094,581.100098752363,463.471550864741,216.04987120845,587.657364922292
-311.458701432979,-478.925285661156,-159.706888976444,-272.077906184492,-400.719386909048,-126.793101160649,-165.612757657816,-237.810543709459,-235.074409991369,-150.203558975724,-142.197853724034,-266.235261760576,-267.356037235182,-191.886392781594,-220.958810871536,-364.1977915134,-75.7621238486776,-164.326078018048,-254.566232085936,-34.9029136962293,-96.7015200163871,34.1262062925098,3.555353059388,-66.0833958938878,38.6606507367519,12.9182254709386,40.8153218918743,9.71489812105074,17.1710394537233,43.5791585332441,36.4827955357156,6.34508760292199,-9.9219044485042,60.7833219749708,33.8573778630887,32.5437279004698,-4.52846449565357,-21.6739776117342,39.8177116788104,29.5524538352148,3.1712088331184,-25.150797695859,4.01367370697134,1.97753308018143,-18.1418090512515,-393.289325272074,123.882578988251,-282.690137467707,58.8575698606205,479.678589046972,-283.713506615066,234.408930825371,-260.981632387223,-83.4128857681221,302.521229861292,369.345309028584,-154.089050198365,426.484762968855,-177.471175519437,-189.930323588539,406.221987939635,401.236165554105,-57.2565274714635,475.862834779075
-365.58648964953,-504.869361682461,-218.552512691987,-304.064732256954,-446.833098540547,-168.218182195326,-195.590085235107,-295.851766905789,-288.144267278804,-215.957923384777,-231.911508083994,-333.487522867846,-323.876235973292,-251.535098359504,-309.073137704808,-405.317461036376,-145.389082702497,-236.097031604664,-262.758452082268,-105.348339356784,-132.472370614098,-3.45712199674371,-32.4960003599672,-77.1000439043461,27.1420413860767,-1.90361191798177,26.7889416285053,-2.21647627246959,16.6064582156801,32.7765297932253,23.2046587854919,2.54022230997436,-8.74300331365582,44.3925615554263,23.3073636175945,19.6568919352387,-0.0524392930348814,-21.8699289212798,29.6437808595707,15.8832273462721,13.8948955637141,-15.8392039695852,15.7328760683206,21.7832401752462,3.0993074993028,-452.439919241026,46.570980495962,-374.245468928531,-110.730384271262,443.844956236088,-327.363363511935,66.8702727176414,-263.974758789523,-184.756967074186,121.80917483261,243.045288918716,-232.259462336946,227.420875842347,-252.897576510457,-225.46364226072,229.313537658127,291.650700322448,-209.58898937861,351.7528781618
-368.108105305218,-470.618777623084,-216.226349396376,-289.024749439129,-451.20834674706,-150.708221436037,-165.62375984504,-282.772410809761,-262.249295624175,-213.312036864483,-293.329439898466,-333.708963976693,-314.806229779427,-265.493881188831,-327.53928320249,-384.36353107075,-155.252980067442,-249.406048692353,-225.185595783293,-120.475839886525,-133.584501946899,8.25277935738366,-29.7511763865227,-59.8066672965388,53.2779288927014,18.6871041615679,51.5173023251367,17.561425881665,35.9978703128586,55.7631073055261,29.1807569634637,10.0310131828509,3.95756170063492,62.241358777985,39.5585884584194,24.8877252256107,9.98133080703368,-24.0224849693871,50.009104507277,26.4830336986748,40.1701172721939,2.15425646836573,46.9681109522721,50.911915572224,22.4117216013021,-419.04036461512,-93.6684057764932,-393.012763940348,-277.858034133582,293.000989291819,-287.062419958905,-139.746293169041,-193.898845762576,-251.333944018387,-105.191513792663,28.4022354687321,-248.129745415269,32.8442534443864,-245.345336556329,-217.860972513612,95.3880459376568,211.886368060328,-217.021176886185,254.056911234415
-374.416079283075,-451.054804611298,-209.791007293475,-292.830433647274,-449.79714271582,-125.549606012118,-141.084501101661,-257.514661033526,-217.376078922455,-188.188260836332,-306.923306490594,-285.621014120934,-267.959405087857,-246.903824308626,-277.75028172922,-289.441866323672,-143.48099120913,-200.734927378362,-156.039482570012,-97.73880930116,-100.692350405932,36.047059230492,-9.98930063969308,-46.1446143363841,75.0414041122236,41.794190633663,75.6253614128112,33.0936828410795,40.8375486710084,74.6333286445847,33.8806523888452,6.01952416204202,-0.738900279237988,82.4478829411454,55.8459282012126,25.1148741167748,2.96883446584248,-34.7531237089874,70.0200772574095,36.9997523523423,44.1117876964351,0.424332181094033,48.0348265973415,43.515673577359,10.4288839936541,-327.056095333679,-242.972001153048,-363.262029608343,-376.124559812246,51.2077197279548,-208.278767912754,-311.374065427997,-113.101358630639,-238.313728647565,-258.067124633985,-157.041443129552,-187.890342749496,-53.6631749851566,-175.047047170919,-180.046115563447,21.5230006710446,187.98980659455,-130.351718710715,167.852654088694
-392.185517879291,-470.436590319323,-236.477500526989,-327.080031430952,-462.70773598233,-133.086066537225,-156.400842511507,-265.739562099564,-206.135364298488,-174.242555744428,-291.003809478559,-244.830258877836,-219.620464020264,-215.687036474666,-233.067084366626,-178.094283345613,-159.23687831008,-142.321036928554,-98.8079733686409,-90.4537641286944,-63.4154819507985,25.7425125945806,-8.39800384350377,-61.3179184869921,47.8939982797581,20.6018545022807,62.6272374740023,11.8904933259408,5.17155908966219,54.569456356763,11.9657133112247,-26.9145655083342,-47.813024653717,69.2268988099777,38.7284915990072,-1.75158734656178,-31.4264780262869,-66.1908438481105,57.0046988386568,16.5375402388657,8.71164437953613,-35.4077252132688,6.59952647427343,-10.5729523443955,-35.1210011172438,-238.453301547527,-333.605660048018,-301.648492489522,-383.263478385723,-187.686851040785,-131.218928457264,-391.468920880276,-60.5963843527129,-137.627502072653,-264.165427443012,-243.38937005581,-87.1255941387102,-7.53302025007472,-98.8450899135009,-92.4000334248941,37.2422811550408,182.695421418803,-18.6891784319916,95.2391730874732
-345.751024148961,-438.210649911244,-238.644087494664,-307.860129816981,-423.141664968748,-131.216113555367,-158.03928823437,-251.178889607738,-180.252940649151,-136.808267418383,-226.120251484554,-200.61513061329,-147.693817719123,-143.708839226261,-187.671731356366,-62.813886665058,-159.576470621715,-64.8875795393636,-16.7390814539695,-64.5649413830263,6.81264728897027,8.96235048860334,16.3739253897103,-40.3823520248662,29.455805453772,9.04725824351975,53.832078486602,6.98462290289251,1.02929313498502,43.5528254372058,11.5990284908678,-25.642303489941,-57.0613214908438,62.2541635478646,31.7026774406718,-0.925487321037769,-25.8288705344946,-58.8890141744888,47.9549509846413,12.5066348980301,0.737965827061163,-34.6363614474498,-2.50656276433648,-24.7837206034863,-34.9866205432339,-158.687240225712,-316.12227290272,-185.982505464782,-309.051649577293,-300.667260755667,-26.546082701155,-346.521243748311,-5.95860874524343,24.101682403772,-126.890818885292,-208.449488026017,23.4496237687018,133.765247436572,-31.3155617719269,34.4202829998442,169.487092647986,197.254416548322,80.5061449649387,112.026433376872
-216.155505373973,-292.930543336866,-169.929874456476,-192.197338233386,-278.80228438844,-82.9323062990046,-99.5351438443828,-157.174479538689,-95.1791059330189,-49.4381664041097,-91.5499717936309,-111.111458539758,-30.8904063652211,-15.3162982289857,-82.1373009455964,80.6147555732697,-97.2956321438994,78.0960482314887,144.189494855048,30.1496563687147,151.733119579089,38.8907104196442,111.171280154633,81.3012079621506,84.9658201602346,89.6964131375259,88.3402817377385,77.3857642515523,103.368784394755,91.3258117803282,90.8360714952818,80.6688832831807,64.8574035590744,96.8553935454089,87.1479678508502,89.6409614630186,89.9773190094374,67.5398977328601,84.7684065633732,82.6003820590776,86.7129360965606,78.3919555734358,75.0528112860404,76.9204593209711,84.5499521398831,-61.4958403949032,-190.653316767705,-16.6976058335351,-169.670680765531,-254.118333070792,118.891185293413,-201.17371368042,79.7278361411035,192.605825173074,76.8952994082065,-76.9695886481315,139.129778109816,306.711255287473,54.6665752866467,158.561631126469,375.650949863698,282.162304391216,159.508558469869,274.726667622263
