-146.007825969458,-142.310507635574,-131.43604194768,-125.636326914136,-115.849307795031,-123.606426652396,-112.94945027826,-112.87695384034,-114.906854102081,-102.219977466204,-102.727452531639,-105.482317172572,-103.959891976267,-94.6803479225977,-92.8679369746153,-83.1534142934299,-73.2214022984867,-85.5457967447666,-82.3559534763177,-86.9957255031525,-74.4538417431147,-76.266252691097,-75.3962954360655,-59.5195755317402,-52.1249388639722,-75.9037705015006,-74.0913595535182,-76.8462241944514,-80.5435425283354,-80.3985496524968,-85.0383216793316,-81.5584926592055,-84.6033430518158,-74.4538417431147,-81.1235140316897,-87.5756970065069,-88.3731578236191,-87.7931863202648,-77.1362099461285,-86.125768248121,-94.027879981324,-94.752844360517,-92.5779512229381,-72.2064521676166,-97.725198315208,44.0053378170113,35.5232545804539,101.784998838688,147.457754727843,88.1556685098612,53.4298747465195,160.652106429155,19.7915275519672,67.7841694545397,162.537013815057,194.942921564981,17.761627290227,151.372562375485,-8.77206898823454,22.6188886308197,101.929991714527,39.5830551039344,-59.3745826559016,3.18984326844893
-679.464458807395,-662.210753410805,-611.989094118718,-583.527124899073,-537.450424637371,-575.635208974792,-523.763163311943,-523.056687178263,-535.588375129377,-474.66447053554,-475.694995823659,-491.376637463934,-483.645289572741,-438.961596788756,-432.464144886323,-387.528899385818,-340.61921836011,-399.82315323353,-381.787562177076,-406.630535677285,-349.149483612547,-356.806878521688,-351.881490375572,-276.401823745406,-240.22699488008,-353.781972918723,-346.26957088542,-357.311440498859,-374.130167267935,-373.587172255606,-395.7477775528,-377.49615372672,-390.856452809446,-346.902094037049,-377.679579637716,-407.062601216537,-409.396605843071,-404.397264714904,-360.064848595661,-401.125176027814,-436.953097860792,-437.928158412373,-430.508197606634,-332.250977684893,-450.799470675176,197.27739042963,165.222196456719,477.602761087469,681.414579910557,429.533583883254,237.574320447433,762.725558716966,81.440959412728,302.205292355877,761.374907078603,948.198575775209,51.0026512955475,726.016474104103,-53.8751652424868,69.1929842085618,485.902874957162,191.010536738142,-292.025534389079,-2.48090087470615
-1257.74900062512,-1224.68230375305,-1133.0591441216,-1076.1729021655,-988.759520600461,-1066.53684732145,-962.062645166964,-960.117944038156,-993.437029375704,-874.40284077519,-871.904954585599,-910.88014313341,-893.458331764052,-806.354480298635,-800.417525282723,-716.577829883483,-628.679465554769,-743.472650282799,-700.975636691191,-757.047821436062,-653.782255103004,-666.600545544722,-655.117581042668,-509.228130911527,-436.922790963529,-657.400090123355,-644.689816066451,-662.0118743825,-690.984707328328,-690.063289393001,-732.90022314134,-693.413265387281,-713.641291720729,-642.973449960572,-700.336306752186,-753.130106460626,-752.057109215552,-735.028170092907,-670.679124398287,-746.510223715221,-810.071778287716,-803.450659351643,-801.116434371644,-607.445083132555,-826.463284722416,331.467156416548,272.853395279404,885.625583027042,1219.4229952329,838.924780713179,390.446115461896,1434.6928423165,98.2424963516601,513.111572930073,1403.57813469357,1866.05923205852,-21.2030361812708,1388.98065015833,-160.143800898275,-18.6091461364033,931.61894690212,370.770137556354,-608.796194144392,-62.5378950035208
-1178.30178805774,-1143.31112215869,-1060.73194773614,-1001.04330540308,-916.483449618925,-1000.43374881439,-886.688569671804,-884.284290910553,-934.157193256226,-811.274084123917,-801.493119409494,-857.050834894283,-832.949904303249,-745.255132197512,-750.438252396119,-667.349610845316,-584.759901688463,-699.135039264607,-646.86996503615,-715.884576664358,-625.495789568157,-638.418865012525,-625.697359038803,-475.332465431651,-398.796139655256,-626.276392310767,-613.298217706005,-629.151921430217,-651.349957496609,-649.606485240922,-692.891314500751,-646.828337560532,-653.810498841979,-608.199101776575,-665.280481114182,-713.383710028403,-701.463976672215,-669.540368820695,-643.449748423309,-719.271392761359,-775.013231793274,-752.851346809501,-778.149363415259,-575.055229077812,-778.401979344074,220.750546366074,88.8041724271691,785.913281150279,976.750490653777,799.012994653883,229.65241522109,1300.77703604665,-56.7391352907329,377.091257361894,1235.98487106482,1858.43357413858,-273.541894414646,1295.32892379684,-314.715545560708,-365.641158792845,914.425203346733,344.639897106387,-747.961135988769,-164.29904815563
-660.025131796586,-634.504818371131,-593.426288642759,-555.175242474626,-511.39935921468,-561.552619731874,-484.166928169676,-481.98578536153,-528.38324322991,-449.777137885635,-439.712739449148,-490.120703513988,-464.670832428611,-413.407538311013,-427.707491306828,-371.769576212054,-325.341264511731,-390.119388144797,-356.355082926629,-408.481372488663,-363.740894288824,-381.084140418752,-378.194417790074,-274.084766271836,-224.931176217535,-377.105659401501,-366.767334996483,-382.383358121137,-388.879938651869,-386.527269323527,-414.113490603227,-379.013352836604,-365.678481633232,-364.401710486454,-403.833461944825,-432.912988637543,-415.951290633787,-376.478158930154,-399.905293115933,-456.01311449118,-487.151943588577,-459.549149755156,-515.31254298635,-380.280073998575,-487.559828129833,-33.6653333876252,-359.838845847172,264.858627081883,177.51343588338,282.10665808188,-126.986865450409,480.871127389948,-300.26675120935,46.2356250238504,464.493630027054,890.843084440833,-511.895922407403,500.432128701827,-470.368449058459,-705.193381284325,505.152002516225,68.9407626533667,-722.442820825874,-190.0215822621
-423.469088830397,-408.539711097203,-382.255665375894,-360.859629195846,-349.159819464246,-360.418343801039,-315.894585979915,-313.947733484047,-342.39320998734,-297.371833676111,-297.386069350664,-329.315157475838,-303.913025615855,-276.760493173793,-290.621789461431,-248.637102030416,-213.272720774895,-245.12737414066,-231.989728053537,-267.159889578355,-232.463048715948,-265.196737756425,-276.429007158199,-193.029383524696,-167.005336261146,-270.88037240602,-269.455175787997,-287.892087739432,-288.454011025743,-289.923018848027,-309.075703229182,-281.411925614044,-263.983423925597,-274.237701370231,-306.593837766017,-330.600407058783,-323.399014423364,-283.753119165704,-309.199598929271,-361.056216358082,-388.325394681635,-371.897991460465,-440.114606946889,-349.674884839849,-407.596808226321,-193.535151692873,-724.929911884596,-158.09491910734,-320.988584615879,-240.894992398018,-369.908376334168,-164.35588836426,-455.978330531198,-151.13235371932,-22.7050886465341,-51.0208757536923,-577.009813255597,-170.880425949034,-591.342072188784,-726.063345151468,165.081703588324,-279.128162304143,-724.955482108506,-126.128168857392
-411.299207866429,-412.316432728788,-370.313024436327,-362.319394800447,-367.550399825618,-346.321714014088,-315.200356919135,-318.703297266627,-328.822668672683,-300.439926540363,-306.530760359149,-323.394160619729,-299.824754131901,-276.820486827357,-289.802882948305,-253.508648105939,-205.856854065759,-236.778112654411,-221.696461447288,-262.055184373415,-210.837116053059,-256.423578033845,-276.586945356705,-185.105547313403,-169.861706392463,-257.902987365206,-273.815029688784,-288.687634677474,-286.127958254098,-295.242337225569,-311.835534239654,-282.843777548539,-268.420490442134,-280.526798324365,-312.276927521259,-333.952705471487,-336.191181163252,-296.072363443593,-313.082163630845,-365.71199378801,-394.306433813217,-385.013254739044,-460.374456042,-371.984410639178,-426.476960363193,-327.003474219639,-873.223524466254,-444.881508548507,-547.698042528236,-584.2986250003,-520.708730725217,-577.307363806442,-536.984795779461,-318.113844854222,-275.991046497842,-679.683036854172,-585.061629336371,-562.918408203152,-639.398582869781,-564.95688473456,-141.769732079566,-568.30273363317,-674.323574041598,-136.486692828536
-222.827994297299,-249.042416823349,-192.551101908197,-213.515322560026,-241.029043640446,-178.04200992836,-162.502809139802,-181.117344968927,-174.284533766791,-171.799559547441,-171.332115835658,-176.610275156797,-164.575527884938,-150.732566695164,-167.232463537893,-142.773718251765,-94.7778389254422,-125.506944996141,-104.36231471697,-150.1854180236,-101.45681345159,-146.616813143041,-169.42239997846,-77.4814085695837,-78.5146511381483,-134.255944506626,-165.406180231044,-168.45932118512,-156.653569727756,-173.212756016005,-176.770544147353,-149.815069022384,-129.628262859287,-171.450100493028,-190.716984280067,-196.818758458314,-191.308044697875,-150.543044838449,-195.702452881186,-229.403327296062,-237.77902565144,-221.959666026109,-305.359443759685,-223.571257370709,-259.813337836537,-532.010286898191,-915.283619271197,-766.78289581934,-970.362914891586,-840.365917280336,-658.123854478341,-1140.26902031641,-575.702197913284,-595.932642119219,-836.835067556804,-1360.52524344492,-560.095531005006,-999.25395952301,-485.935636922539,-435.127617205441,-585.798756130183,-710.77933306164,-338.22029667114,-224.007574881178
121.100621622765,67.15462346043,122.305208087868,65.2246409725118,11.3408475432195,116.583296499619,108.053064746706,73.0362756933607,94.0164073347219,66.6465365495038,74.0709575954514,85.4597860408774,74.4422012011502,73.7014718774884,48.5126161368134,67.399550141854,94.505121250662,78.186549085257,87.5383053771204,58.1087406006082,86.4694027602016,43.0135067295057,22.8544979975129,107.085150427986,82.1940735505253,67.064408755328,23.4842991453134,38.7093467713806,60.4671355446988,31.5556821030035,48.0665796682821,71.9834544205227,99.9619160234944,11.9882861159391,18.6696985518736,30.8724330420949,57.0796868573196,92.2919209341895,1.35273031201989,3.38255003742761,26.4712746756581,47.290972708514,-29.250824802926,35.4255295259176,26.6676158460306,-634.041312054222,-805.898786469356,-920.26435477902,-1378.09067885412,-1006.56279106433,-600.297786907246,-1619.60852579335,-432.117678171785,-767.964731231224,-1543.2638069265,-2033.62990605386,-321.291667663629,-1358.92303957976,-40.9828945350221,-232.726710613883,-897.234581024554,-610.658894300187,275.006347060658,-147.825678165155
427.092021678347,350.55117384787,388.281499810232,312.014140402244,242.182669096701,358.99671695908,333.502153029084,292.551580543016,314.957283748695,270.646251536398,272.911632623919,303.23575571131,268.315931610607,262.596027333578,223.72219200849,247.174366244367,245.565878314588,245.12016755048,238.925860163033,230.176898431802,245.672119625755,197.770959958024,182.892061738836,257.016576873277,218.759666813203,226.741472296829,166.939536501121,202.223699842708,227.870177621201,184.602626773248,213.029470165047,240.820460091695,270.218326768855,148.577407328589,182.801233889345,207.017735388357,247.615133880558,271.421887539951,151.673657300043,186.686004167251,234.042419826366,250.905894837898,193.651501954975,250.171404403015,253.217534691869,-523.331518601784,-487.71516654016,-718.368827079549,-1346.13416933332,-1067.93817567286,-272.886662147879,-1596.19632104626,-75.0736823176193,-674.647829039194,-1860.5701361094,-2297.78921872819,84.7220403320038,-1417.09801441918,470.282825883386,104.40411687404,-919.347115866773,-398.015666864809,871.493237051729,29.1706373193494
598.783159420801,515.945755400115,526.269256686906,453.64792231604,383.150691189335,479.763639332197,449.370235801456,412.482478222223,425.379108696155,371.202303328894,360.158432677107,404.710320173866,356.107297180119,355.128630487096,311.468164179356,328.420919825106,311.837170784616,314.218962377177,303.155858185077,302.055690852403,311.331679361774,270.586518825414,253.143591373662,306.239012706613,273.774651806306,291.343303814991,230.056752093518,270.780333784236,290.273672755323,251.539750378117,280.101995094971,308.758234594328,331.303512111832,212.070831441006,260.767433176497,290.584770977196,325.78757401197,338.526329132356,222.487302150413,272.763241038356,330.347125405674,342.343584023344,303.561628858041,352.074638973434,356.302705641944,-353.830358823421,-207.816292411076,-439.718961524237,-1038.51909995449,-1048.08042544262,28.7346402165837,-1221.42625360453,230.272436384253,-495.862592882048,-1717.09155514867,-2100.52356337378,326.264274219823,-1405.92023491256,671.597145654646,340.812140942583,-1030.57455287257,-471.727030162453,1119.88424618771,-206.424105736354
592.594368957748,526.956800376704,519.305919072566,456.902748764989,395.664013027395,476.901572848813,440.013952505737,407.654508516997,419.979266412849,351.178403640857,326.946989024378,385.365749958599,333.845779708794,337.284154071365,313.461679059465,302.113882070827,295.110386247875,292.075489803688,273.581246258022,284.717207612164,277.415504877153,266.69838556246,232.636150815259,256.321113160505,239.979107950863,264.634360628373,235.529260040667,257.070519913716,263.934052630958,253.639735166031,273.464379985003,287.700394996047,294.392655380173,224.19847561042,265.329716699851,291.305419963436,307.251734031862,307.4455327839,234.707407327253,282.268703988429,329.151985159421,336.099482233196,324.676420398271,348.49135539023,351.928947044518,-229.780988290231,-174.74859071809,-411.64943465733,-820.183178781112,-908.591662581035,53.0807091754808,-930.642187823664,285.579393731537,-418.324567674292,-1469.05951409586,-1754.01137440854,278.776682421682,-1561.80159215507,530.204796280958,315.5101006089,-1461.68595442938,-956.773568254472,939.63724465043,-979.205903387589
468.975143843814,426.451558206449,424.881443560175,365.582427841637,313.234561305601,404.644099089727,351.18125582194,317.317874564372,350.057106345365,264.152159573538,229.551918922812,309.325738517056,256.669766431184,255.24317435505,271.671063842209,225.12977932004,240.215673504998,233.249459672522,194.099668330829,237.390195596218,204.681333049964,230.519698563439,177.259739340246,171.515143919224,176.313016768045,202.727576860474,219.068077533167,214.269896521673,208.598573137297,230.836788672154,235.798072707941,225.331800172828,214.405607724599,216.165526237299,237.044555865924,254.416839429732,249.128497933971,227.759270748887,228.32784551255,268.190512377801,286.740637900896,278.656599113344,317.404731324019,304.548054917721,302.382642386,-73.3497705429522,-144.190680906215,-511.877210021786,-627.224255469491,-588.455491405971,-29.4506895050644,-801.326507744711,250.101999439051,-362.062739538695,-1311.77024581242,-1404.99402685684,201.306518523904,-1640.43093193577,374.214168259266,219.168048442138,-1800.20097699425,-1364.49061069089,568.963678603833,-1614.95815834425
393.721067142037,358.840126369784,368.943908136625,313.211186086501,265.312713331323,367.59316101051,296.764782537445,258.809808312225,315.640176542339,220.417472417704,181.074251439677,282.068341327276,226.374551672242,207.586190852836,264.757965577536,188.419182126162,222.43197776914,212.252116231121,150.57031950728,228.454102601454,176.601462422019,226.420950004207,168.208054115988,132.527830727213,160.550910244292,182.586272652856,224.995468472755,213.853506811055,194.036477971722,237.653697786133,232.515601564703,201.669502790616,177.603149364391,230.132669858488,242.942643327223,259.45935927644,236.465395759465,190.266485746024,254.759341683938,297.323556593476,295.163564929153,264.825067974198,360.324603280881,314.989547896731,304.324093225074,121.156259006552,254.497258672161,-458.151971879237,-231.857760749652,-85.1344212319607,21.4331328602037,-597.137543411101,298.731898633577,-184.183682265251,-1103.02105402961,-953.456073810441,307.178371100648,-1365.71762156632,404.340865849745,307.121203353697,-1622.39726476108,-1222.16610771729,325.052041355677,-1497.52236336507
453.078191627254,413.174959727773,416.100132470804,372.03258035453,331.510629572124,417.284570921499,341.381349907441,303.422774351261,363.37350437752,274.574713349652,236.355194259238,341.921486214027,290.912029670658,249.10035820089,328.272936727682,226.926234645683,272.270338435707,261.222528517262,188.26284609233,281.325467038989,223.672148764801,279.964051003164,235.832377413231,170.819888348588,213.053440535753,238.059258706117,277.998749326782,285.373819445489,252.070607501866,301.893549706873,304.326283328107,266.635010358863,233.34948333003,291.109357180965,319.486983882172,347.093087241645,315.084726130119,258.270380778296,335.529736434381,399.02555677005,403.836830348348,361.978107549655,490.114938261695,430.948538811197,419.77524086061,182.870757359461,968.570421755403,-283.889219215049,283.848152240087,481.814682663074,65.5565303020602,-223.872593848811,270.04244299753,48.4641328826241,-737.727577680371,-427.829817851194,472.434614703268,-893.718597712006,499.616032036272,588.717621991443,-1031.0427814469,-699.002020926794,389.671508091271,-754.60451660554
577.861459001836,527.351947978847,513.346299446303,477.655050998845,447.225157521194,501.838810504096,430.690732535704,394.896140841085,442.91926122665,372.98493012641,334.086669460293,428.095277858119,393.501561904705,331.393973422597,407.580684719021,290.369038098882,340.17712115305,335.090458063447,262.340294003111,353.044533211329,299.012231440122,348.836147137871,332.155788731111,242.299160236211,284.695979257446,326.269575467046,346.312167692365,378.156088324704,343.202343552275,383.900701667401,406.380393038426,373.996857919672,341.160017459376,369.297417167931,420.029431623772,465.315442592684,435.189339562972,386.132849144736,427.369748760457,522.809481876845,554.127620969201,516.902477245912,651.401693614295,597.943172555107,597.593740009048,16.1346684733969,1589.088214988,-181.397194731921,683.203893692419,899.478447755842,-122.683735519744,208.503986360127,-15.1345225090002,178.405736639774,-278.28761533391,62.7665885129573,517.067386777921,-390.119113366879,525.203234515841,935.259011893828,-248.30459919495,-134.132185407272,772.30183149147,159.001414114387
705.693811020004,640.830850619644,614.28534997234,577.594075754932,546.400224263117,581.253609666009,510.676588891553,475.195942074192,516.081280309991,462.043479552235,419.482483891815,495.504740034692,478.686623615728,400.459058305999,456.649719423651,340.3314699928,385.534971399489,389.451890238032,324.255370872899,405.291464064585,355.462462034991,395.566622952571,409.281981645828,301.415710934553,335.624027378427,394.049238119854,392.796743637965,437.961238427676,415.122598126821,440.168744192703,475.120025971948,454.210055774956,435.369987382107,425.10184599175,487.995873634566,550.612992126692,528.834380435577,489.910565020536,486.282873739068,604.183964112382,660.202246819856,633.724812467507,765.720565827986,721.85148462728,737.821490746012,-199.263765885277,1809.20031447085,-153.897141177235,851.276490048542,1038.34709987869,-378.555066521244,580.305784553389,-330.76332841452,220.915286084843,266.48726363268,553.772347597912,494.217060324953,294.52714091026,542.666574038749,1240.80184880938,646.890848023689,517.189441282601,1259.76325068225,968.91714330069
868.993249602757,801.574442344775,750.481184809634,718.140921937596,675.28006502963,693.745978716821,620.015436128067,588.861586725636,618.470440028476,569.238361365091,531.921608108356,576.656069303789,574.548106027159,486.24734233798,515.204277214001,412.927977743278,439.598761643936,452.347155110067,400.36423041787,466.49848904611,417.269966892685,445.780899680753,482.087516252006,368.156324188663,387.598422376999,456.889465767126,437.594156800066,484.025111992746,482.29263812004,492.470733916208,530.13960228942,521.749515487035,518.671507642575,469.683751884585,541.558519861975,616.644128425005,606.928103195936,570.983692500454,533.359068397934,654.406876847683,722.215461708821,708.336941961622,824.963590004203,785.028949191284,824.075961048248,-263.732108539819,1559.08256663048,-152.574119582217,689.551304675671,909.374354206494,-409.144136295988,728.036964248436,-347.32927289941,257.342865515131,806.361744403156,960.348735338819,498.798285896314,1065.10958471253,600.600461120627,1339.8035932301,1347.41183146889,1229.3320746382,1469.02112992898,1477.53247115049
1049.95900491526,1009.63630302503,906.810793471295,896.09825655866,847.726064519845,828.76766634143,764.739374923284,749.086474871258,742.496575015029,700.665184865097,680.087888597519,673.037140392322,689.563388427712,603.761035833666,600.958619897026,521.541251003861,514.211432349771,538.970030416434,504.65155200681,553.116903934698,502.256884051151,508.798774998448,558.751439297016,448.801393512116,449.60176086209,533.224043532146,495.009664750777,535.22192863277,561.592335545455,552.224499242502,600.125733773538,599.639421596813,604.787336299321,513.000578427135,598.616934038858,678.369536873447,684.652413609047,654.086259433088,581.964576585923,699.671701893014,771.246623931033,772.196197462664,851.462854565331,814.628110365466,885.703378816685,-223.640931721216,929.927650073315,-217.376779376788,177.723135887913,603.280319419577,-246.924153972356,501.745340643284,-149.390458373163,220.626812205752,1019.08645272408,995.311776029561,427.829970804216,1408.51402325227,528.656718803063,1027.21756192966,1424.80846450748,1567.16898433553,1159.38265392799,1488.79596353165
1131.70267564587,1140.85190726906,979.326713557079,1000.99433976564,959.840129757399,888.936885414466,850.434135568605,855.396297348146,799.488758837558,778.281051070478,773.574967846452,711.898192716238,750.867181497272,682.641008658695,645.402575785159,599.675198774916,552.964562260761,591.503139589591,573.938045484201,609.242620052,552.101786815278,534.184912188322,593.158087210168,484.039913439433,475.183204247008,574.577245597104,524.858962295839,550.642527426068,602.319602094786,571.848463092202,633.28346403839,633.275348102629,645.446792275266,522.133112350552,613.562069631565,689.081112953265,709.28020698531,690.556634930179,589.670459767879,703.481062308329,776.980901197968,788.823340470404,826.902709419762,791.988712883468,891.362634267427,-121.898674376881,186.055742818719,-242.069343288745,-379.020760372959,231.58848928411,-67.7783872672476,32.0749269332162,-34.751770569001,49.2255942711821,783.351358835038,648.039332295519,152.60143637425,1168.71889530691,141.330345831462,320.015740564654,937.584177735254,1316.77990365071,458.383119587301,1065.33957921433
1063.5488186545,1119.35097094566,921.695146324969,972.514798565311,946.267624458511,835.947719854716,823.192087278757,840.329844284841,753.361948830033,750.334105477935,755.422545444177,658.861176981699,714.943170144146,671.236853129568,607.27749134053,587.371656389236,524.806746565044,570.677811046185,554.271666596458,591.796037529653,523.200704230562,497.60235015619,558.379704972505,444.966820124533,439.190483112289,542.06593165215,499.758936902512,504.284047098984,565.440928539541,528.350540574818,584.26284114601,581.277747056819,602.334586472929,480.557812240691,559.233886350781,623.878029313552,645.741964718471,635.040973895279,535.515950706232,632.329228548296,702.181570443124,714.591307148443,728.849441563916,688.476595423072,798.480759299909,130.752229792203,-398.418495572823,-58.7627345759638,-637.751453146291,-199.227044604991,94.3843119103535,-371.770072331218,-36.8717592400385,-155.676957905556,381.851856143996,288.561420533102,-251.959593136886,763.843618724768,-455.092850098571,-498.373352624948,330.381854162223,866.501073315971,-305.171713815034,557.014852163388
919.780145141497,1004.14469476999,797.198883367556,863.070590697042,856.397034119827,727.947088666715,730.82005133421,749.051197767465,658.556328753503,656.058860986547,669.160706198968,560.209031620187,625.173357690568,598.084771929655,527.761338813905,499.821238270361,458.430717632739,503.477792389489,470.051134064036,526.375802064102,449.74490946834,430.671620896781,485.0355677402,373.742515636918,368.097314841065,463.545576476639,439.389631736116,425.457888746548,480.696681107629,451.77034169532,487.264711768302,478.337757555825,500.971103669764,413.462134147394,470.144196287564,517.647181707532,528.297674845086,518.14854780461,449.551917063127,514.486128624006,571.366095214032,577.277822302836,582.405184839834,528.2432447522,638.623402773156,440.937621554771,-716.050891650008,203.137930188724,-601.451926012325,-660.859261090741,226.117835584889,-533.042029367609,-0.0392101802912315,-286.620591880824,79.4271681431833,209.684882212882,-583.718469959358,539.28426433827,-907.371929066445,-1139.00850671223,-118.353397887555,673.700197832044,-880.294833240703,298.832042354654
766.550685793692,862.385979319904,661.756600777106,727.320499276864,738.40368783565,606.337632152897,614.545061108658,633.475506475778,555.547808372199,544.185707806367,562.808842349184,456.545284027111,524.998741536022,497.846421272669,440.589736511356,390.538382836404,369.14601680161,413.157236761198,372.483585405631,439.886222670491,363.544024489938,351.728459362645,398.590890060562,295.117008923529,276.156518753485,366.836750632773,358.874775063514,335.631683870189,377.113258095015,356.627668851747,379.297413954765,356.468648661246,369.447138365746,334.665982905878,369.024634317906,392.604845283852,387.430194403222,377.394255250725,350.34154742298,381.17358126714,420.214876594103,419.895910906965,419.569917677935,344.889697126813,459.738318038456,549.252520213303,-762.766409772148,287.795779200139,-438.799703948514,-872.123792569985,246.542176917025,-430.610102770947,86.992187846573,-333.801105075763,-54.4505037978522,386.797786563898,-698.758424005778,524.367251146595,-969.303282128536,-1442.88370981291,-307.972433111095,790.938934456574,-1172.43100279182,384.052119465942
586.620455854871,678.768969835107,499.189895760943,558.741677298766,575.242897783987,452.171561555594,455.988518356318,481.271404728358,425.362586418963,408.636593434475,425.120631611057,333.24098919497,398.476483354327,361.690794934773,325.370711691293,274.612837630156,242.452638990836,286.56522370258,263.65594420037,317.015877882968,246.858839696726,242.187345640835,282.747518400062,186.240709399142,147.28875586263,239.367665610695,246.076374362133,218.913658592901,244.226165445181,230.502015998068,246.149858778622,207.493219407629,208.02631482942,228.999808330113,238.035859455899,237.998677429834,219.15726646615,208.748311974736,226.255567107339,227.627722318379,246.466476868875,243.01468365137,239.733138988753,144.090913842377,259.443703198969,412.91210977332,-616.557163906403,202.502507504028,-243.22734858442,-652.496464467413,159.0938972486,-157.046316488732,123.517949362877,-282.672380521914,28.7403242976247,595.310578591442,-577.883496314207,646.982997528953,-730.943872685991,-1340.46102572059,-157.817617860026,978.132074822229,-1190.56948264467,647.357663063348
355.931174945033,431.629486952778,292.604084174478,345.22151470983,354.063071139651,254.296707270498,248.147462389178,277.842879919241,251.727004973812,234.78826076124,240.451317779046,176.504404436865,227.983119954229,184.694785555096,169.64378041616,131.826036865576,86.7630958115322,123.145773420826,122.866096844207,148.386836937655,92.9357102520379,93.6090710230564,123.657334029479,47.3250515297166,-14.5403583235605,81.6438650607386,104.554136042264,71.3764395098983,86.641565165678,85.7082511182631,85.787304124638,41.0625487390564,32.4388303579235,100.570257169756,83.0395306596875,66.683995082156,39.8858492954161,20.4228772319478,86.7220857680016,63.1587189086478,55.6876572366106,51.442727018119,50.5286117574533,-59.2766492985627,41.7683545453907,222.713146995463,-444.201261072146,121.646828471888,-77.1036599041323,-299.361368670715,91.5510249214885,99.2192192852498,129.814259324983,-110.597451851594,288.633712804522,596.642783387355,-303.372426566853,744.025892103,-431.361178789624,-893.729159919474,201.167294226557,961.038782266449,-979.214035348663,812.59624018525
104.384372327768,164.311808966574,76.0365064267512,114.37308917055,115.115843853807,46.837277000426,33.9628962351984,60.838894947338,64.485722544542,46.9336022773698,38.4161516393869,16.5958253182234,42.4792973275384,-0.0534658255122213,1.70962323773904,-26.5840512974731,-70.6003730951569,-48.6257859639916,-27.4135720757467,-44.2049126452686,-70.0664167971955,-72.8041803074505,-64.5993520341966,-90.2578917586619,-183.407098549338,-77.9870268372865,-34.8070731942483,-81.2870957145093,-62.7528740106995,-49.0989137193084,-64.3037717395713,-107.918243363543,-125.459456957038,-18.4693200214953,-58.4138082218656,-85.8794974462905,-114.546574091426,-149.213564947067,-35.6382116844701,-81.006064409327,-113.799415343493,-120.484667816021,-116.038613681206,-237.095327013464,-150.446442478366,116.067821984124,-391.375473703339,103.304496179615,-18.2559477221803,-181.532169770568,122.765855887346,202.830658036703,193.667397836221,96.1482433277775,482.567603163859,322.758956372626,-19.5133490278302,580.714008233907,-189.1053265184,-344.494900456811,403.442616979611,565.822563513183,-619.750514876929,679.442199054588
-134.662918290615,-78.232271509063,-122.078630430574,-105.124598033658,-100.368084276011,-142.263540350761,-155.281861821599,-131.464671163592,-104.856938981391,-127.363988108691,-145.67214128102,-122.398287646128,-130.453844754426,-163.245082112602,-154.957259023489,-168.040579838549,-223.060218000321,-213.47960456785,-158.45117864498,-242.28041544618,-230.090094059422,-234.260798516651,-265.12563638691,-237.13669763332,-348.596813986303,-235.426235573043,-158.757377218812,-223.146115897878,-194.208799209293,-171.667100074237,-190.03815007542,-233.353553257836,-258.877514522463,-116.768184269713,-178.082532815294,-215.71237011026,-243.249383031041,-284.357450952626,-138.511973181668,-204.192148685204,-247.233203927893,-260.132479443681,-251.842995825689,-384.450862148808,-300.841370411029,119.96624049493,-455.962083355157,144.627473040898,-42.8377507324516,-235.87583956384,235.21027500115,215.508320816114,314.061462966673,248.203709100681,469.765834770734,-3.96723078555728,184.68651607883,164.888422083326,7.67860560558101,69.8137711239531,283.421397742505,-122.487193810585,-249.022193405845,245.73858562993
-362.183069834708,-303.636890168602,-312.009265466512,-311.661684192775,-289.91589567104,-319.589367669284,-329.829035950153,-304.32129275558,-261.001022109723,-288.132866445769,-306.520646602891,-254.940408063426,-292.943987889549,-306.103441115015,-296.63468102292,-296.019637071677,-363.228765339455,-370.36802483167,-291.091230294073,-424.597858503958,-396.463052279043,-371.946958809671,-448.428020758798,-440.873882560537,-493.079806025099,-402.611452180801,-272.050232946292,-350.62493632816,-322.497391969271,-285.363244100047,-308.088146399321,-350.849067020167,-375.94543191074,-203.886468675642,-288.036536441042,-338.819530848902,-366.12076596273,-397.70246639443,-237.109996027914,-321.596168774199,-369.945121296728,-386.386994565266,-375.506295549963,-513.251910208164,-436.442509562598,231.57378284792,-477.094597339094,303.119877827431,28.6574732865645,-169.468473205263,424.495523001233,335.42701465522,469.611007089345,419.606635326154,466.301804355513,-5.60035570542257,364.915909130326,-123.370510040983,204.641475036379,329.285381062159,88.4392972474871,-671.029043272692,35.5264763941227,-258.141205067838
-575.479928463578,-519.611949664196,-493.900647206803,-497.907416084047,-456.950493269762,-487.123859626611,-493.957956439489,-464.830886470433,-411.946375277064,-436.53315847715,-443.945063790326,-388.277860776612,-438.889808202783,-434.327163547829,-413.65293107327,-429.833191543299,-466.728217821563,-497.354263908752,-447.348529393145,-542.570065544659,-545.897107089346,-463.838942057246,-557.619608467777,-675.840207561329,-583.301723881616,-552.988931291187,-362.731583842207,-447.335129421455,-445.702167429948,-374.544895658745,-414.574699515715,-455.295189535901,-474.433956651226,-277.811566798703,-380.119733259694,-447.693110475735,-478.92876799414,-497.62396703535,-323.382791634473,-422.051783505609,-492.1713042746,-507.393746432779,-489.330774885035,-626.619640335295,-570.911724452104,373.122646277149,-353.117252101332,531.024931248415,260.723527176048,54.7322451066976,645.778916615051,598.763587012529,638.091254079007,654.449024587502,662.848486668252,408.467753860612,556.523285756097,2.32877031769057,382.613155412533,504.950113687047,64.6936538937985,-679.312438274461,214.767143759835,-558.025668255203
-743.58166855711,-691.300495429315,-635.523961984893,-635.12248142955,-585.170875219953,-617.89039287286,-621.186410278029,-587.875091302089,-534.962588872862,-550.696868316453,-539.809286176642,-493.446418093374,-540.848467693473,-533.144509130199,-492.587973632953,-545.810355056348,-525.564824957734,-563.232434206737,-585.90943885087,-565.374914794799,-613.499141395891,-497.487890457438,-558.932764161547,-801.721867549827,-611.798506673481,-624.360263599094,-410.125493258059,-491.133037652792,-525.699737743636,-424.364738085586,-480.90495389408,-522.882707143875,-546.178320999568,-328.229942316278,-437.281629495542,-515.638429444322,-556.244944669573,-577.433769056585,-379.254311859033,-483.555069309687,-582.716275693588,-600.561055988815,-571.226891866475,-710.979426574368,-677.820515851723,425.930154544256,-196.472243963348,627.644993733619,442.094085542749,232.051003652485,748.687114767243,760.431171683236,714.86747614196,798.306273963502,863.75703389728,846.316438191997,651.80391417643,326.395165400239,450.149371843591,569.283058825173,140.882691332679,-274.022483666801,280.846174399084,-585.002246670792
-846.464453281282,-794.713734987393,-719.711058807921,-712.949626469145,-663.663189949965,-690.622838082281,-691.331829237853,-654.256941871682,-604.818291333556,-608.416740650597,-581.249295104763,-548.514994035338,-583.90916305847,-581.147737146697,-532.024559592712,-602.149568217969,-552.916019593882,-568.383872673849,-639.859127220631,-526.436930394046,-563.441649899849,-478.383209586307,-486.104178372063,-717.175088060038,-590.340152757994,-584.056367118009,-414.772176156275,-477.315725849325,-519.988315298767,-435.397248500451,-489.800252812614,-537.776953957723,-580.181165888045,-351.780161833306,-453.854901717401,-530.103728034378,-581.45427367713,-620.668332921968,-399.677236352932,-501.798566388708,-613.566005899924,-640.152791557763,-605.408942937271,-748.34611936959,-729.749856814109,378.32822725551,-128.518701524352,520.74574017674,445.620392881814,293.406920190923,646.066955737672,673.376458638027,623.437726691409,750.071171093066,854.060621508957,934.35714423265,595.810443713584,493.583201853966,388.482639187722,517.312550853952,204.102452013513,95.6540432466317,246.477772920506,-433.468977762932
-915.758673025887,-868.969581024085,-777.886235003088,-767.818319150168,-718.596860703488,-731.168841701171,-728.838352724791,-692.232571352417,-640.903750839943,-629.674503838575,-597.835154484633,-578.678468190178,-593.685953347518,-593.275392354543,-544.075795709297,-604.137700763106,-561.834338783312,-542.177534706252,-600.06935499844,-480.120055177164,-441.695224083578,-433.61755858009,-404.573720745815,-513.457577666693,-524.946592161468,-482.703343907585,-403.657124491771,-430.143181038362,-452.50301967305,-424.964375129556,-461.159121624118,-515.738939824793,-578.175259987599,-360.573579782344,-443.685099152152,-512.370129659084,-570.542407844564,-625.487611739162,-399.093121681901,-495.296429228231,-605.153063023683,-639.695443347489,-606.936024804737,-744.337796883019,-740.445244798454,318.916506783575,-95.763771369772,359.196530326055,452.408497641229,358.898772701407,435.233526876938,551.395401005155,437.795029145352,632.607875156571,778.157296639552,785.121789227636,489.570790010729,507.526557274317,273.83161511986,461.056780855832,319.105449410128,220.902480477097,154.915764794818,-205.758246719331
-959.093096018342,-922.216098470201,-812.629062830344,-805.344661101747,-756.662457722352,-749.377773628191,-742.111217554761,-710.757097562008,-652.912543000179,-630.489997373247,-607.242510582665,-589.304682223044,-581.830531101257,-585.270188403948,-521.037013084179,-560.832595296224,-538.832428797722,-480.513766510557,-498.79123051002,-417.615131827083,-312.112519253673,-380.908808909344,-329.275292236979,-348.738978534715,-423.180617376452,-385.352940163866,-377.481678238284,-364.181239341123,-376.804171351187,-391.389555438946,-411.05850967534,-469.80729538362,-542.447889794964,-349.149025329995,-408.703699948382,-470.523572022471,-533.196252791491,-588.101371941928,-377.794207761948,-464.430844696152,-568.354339674573,-607.14486423919,-576.384731989753,-700.704344198429,-710.728384351401,321.11574514738,-22.1690198326004,277.536557781715,571.865793352813,461.062883589662,280.781404213022,585.016276277229,278.002570273097,567.640833051665,805.591129950191,653.408458856634,409.879295785638,518.754172200125,158.484921521321,447.613908018985,498.212186359399,187.440612074912,48.2468040364673,8.87428812541063
-862.126139702937,-831.809114181874,-718.690941535419,-719.608269909739,-683.916467909643,-653.086075455434,-646.497831156774,-620.17643434144,-556.769137324788,-538.712276277198,-526.450044264146,-497.991225234354,-475.580646015108,-490.4078705595,-410.01950396878,-424.644643884865,-437.603678722025,-332.883788249387,-339.366075246993,-279.329119108238,-179.389963866302,-281.275262805474,-211.331911149615,-239.357833575944,-287.871662557537,-260.214974652934,-274.476646797812,-241.374841816786,-260.168124034192,-279.894733593007,-293.437093555462,-352.924792105023,-424.228190204122,-259.163140590966,-298.94014887112,-350.794524582074,-415.31620111812,-455.593013675666,-283.53796466582,-355.045652682591,-441.591591226188,-481.313652141631,-454.925241033795,-577.560961658761,-574.866113589459,379.822986771952,24.8871671976573,256.278842936645,580.531023821207,444.81660501198,246.124200241918,567.218814158186,179.68749230861,494.680052640057,739.667502834043,440.58015228453,328.359173596383,414.524320222238,75.8796597813775,382.10655465536,565.750396912009,99.5341467918826,-6.2378019014055,164.068339770451
-531.041350479564,-505.676349014399,-420.054976325942,-430.695042308862,-420.285637460809,-370.694318636726,-381.087967414048,-355.349572460464,-288.743092206734,-292.044333349539,-278.34119975112,-251.716596095923,-222.04467953508,-252.450187319643,-191.256046641797,-189.352310465541,-254.685339859374,-104.56102183053,-141.744685373933,-69.6368286485136,-40.5029370071138,-96.9753980833691,-36.3442307415843,-125.727403992307,-130.768282240102,-53.3515327369562,-70.8653552464482,-42.7181191482446,-55.7353245709137,-69.8931279794364,-78.9769536634123,-136.963862114355,-188.903434645629,-70.923203805438,-94.7718517382223,-129.879516844884,-184.384663221308,-205.198312912765,-92.66033060437,-145.792202819252,-202.318241965054,-237.294920182023,-230.258856958579,-378.655179925156,-317.171792952881,416.491201311245,-61.0512625428709,203.157802184255,263.558517235457,178.155016456828,271.862025671137,223.803255924001,136.732915142492,333.479972175266,329.457580401541,-47.2673015766878,254.639135282246,38.7931287072629,90.5876664311815,232.762551390817,405.766575386487,25.2164616958047,62.9818053614502,309.360476976641
-127.197697869211,-110.910125710316,-68.2148799136696,-86.9143081871552,-99.06964147013,-43.898869336996,-79.7522060952812,-51.9533029086228,16.7610426460829,-8.96914624469804,16.4884306762297,23.2991279755574,55.0373303201348,10.3731716800981,37.0492238190888,25.9746531969059,-81.1732745769308,100.333067442711,-3.09755040136061,119.99869869062,59.8178652663998,107.184417568404,125.733316758639,-38.5169296461478,-0.934234274006513,155.223310539596,120.107877072805,137.905818507975,132.847932385344,122.957424628721,120.902234648662,63.2923214210723,49.2851300772499,95.4483039770113,86.2422074272307,71.7108811064687,40.3551905236617,36.6005572773942,82.529172442441,46.53357399711,17.6079336022338,-7.34834583100116,-36.5346430444855,-217.670240357311,-78.6534363201395,392.967654879778,-236.26670587625,104.028501422598,-227.193367631483,-241.680248085117,306.259311395718,-303.312902072453,186.166836680365,169.350958233195,-243.15168570932,-648.9857846336,276.985612247432,-423.000575540749,224.327995923191,114.358954836009,137.031408062753,9.98866869591657,204.979698732783,482.349708076
83.1325635169163,92.1557915177677,109.430352693552,86.0202499648329,62.6583035923342,118.703243979957,71.7948720764944,100.896827903738,170.132859093921,137.40537370471,164.495469471235,161.334018401974,193.006845926078,142.673943624106,176.522612202513,138.705684356106,29.5785340998655,232.814195950121,49.8277534097103,255.426605676196,131.382308810996,256.381221733076,241.683886489505,0.5121497016795,84.5330226574093,247.975611293716,193.417062937083,204.147870384847,174.778189695955,179.906989281316,177.014406306464,118.30909556856,145.126047127045,132.458547762901,130.788595588865,129.154575486216,121.014280251725,134.07487847364,128.116187686513,102.202236838976,90.4073746092356,78.5997327844331,15.2325995916367,-163.347218562797,13.456058617432,410.675109687657,-288.868174376613,112.610694695456,-470.997800466233,-551.554639011643,383.818792022109,-613.950760418084,356.162794194819,150.12173932738,-532.510788314912,-1046.93079535358,412.21572200869,-659.743041424211,413.903781162982,121.953378684969,-37.7271467354641,4.38089839462473,285.420794297011,585.68753430776
84.6728739655589,93.8124482531861,117.347166330807,93.6382276619771,63.7847348644658,132.860781282765,94.5443205330956,123.310177600855,187.745030696643,164.667802925904,173.992150024237,187.913792361986,220.908619610999,180.90921284529,259.182579349221,216.460909645234,143.991594819225,355.900638769564,136.60900678545,389.128173032834,244.73198318857,387.019938443714,360.964443939182,86.9789328954677,176.381870526439,254.485686572233,212.304360565337,206.107851323955,128.538799301534,159.530221586435,142.515294062084,87.4685409547422,143.109953914631,117.143053399067,110.773404837084,105.507527606435,110.856608381594,145.101009949049,110.170441570347,83.0830363184403,77.3120230523453,82.2956195792636,1.91121236597975,-131.595899951873,24.2921621055742,544.697442175705,-58.991255539563,367.191106658101,-194.764622743053,-593.774014566938,510.872907273506,-563.303846027151,567.616956998722,293.155356635289,-393.006683919255,-1191.81689540252,564.003073868243,-626.95787173896,590.801301743489,248.20826431978,-24.2443003471498,-42.8563681673759,307.159777110802,514.437718819664
54.6176026359132,59.4610782821566,104.258983944076,84.1882962260152,46.015643643227,136.018204368941,108.837975545042,132.46587247611,186.492837443266,179.074370588603,171.652111196863,206.072490906421,235.280813198612,217.492477736645,308.391386350012,274.599397276244,259.840049684726,425.958486351454,256.940023341362,467.746976605408,305.665789087974,489.927584752731,439.130194148199,211.0585719859,257.161955329419,243.726780928142,248.17869992182,218.087848854778,111.046429455307,165.266865883381,129.335108293482,90.168245106251,156.547450549922,138.727071870905,125.675276311164,110.14902443156,123.448831485938,175.205738758962,122.446084053181,91.9966039263579,89.179229667699,106.663594625637,23.4790034673248,-62.3265828710698,56.6627757599554,657.222672366142,336.57985124833,717.291098691634,399.620545611469,-466.265853673294,585.374735552689,-322.762598665374,674.389957659164,469.559034773302,-79.2096217068402,-1207.69647790433,645.033750616906,-442.955934236659,707.552581132395,432.482128903987,145.854215419727,-45.6862496072041,387.327007467779,352.826369814985
75.8070083689627,62.2716815894102,114.744951999616,103.340374678622,63.5504005539875,150.609229651994,127.294742919357,142.666486129869,184.219140377047,186.954076399068,188.953088073381,209.426772862026,224.703173921321,232.842209277472,261.237020489194,216.164274236904,259.027491049653,299.016994095289,244.305285460745,358.466262477966,134.4343878681,441.347455325652,349.649625113158,211.015201654795,237.765088307203,202.998227487749,249.28286434542,214.015645445939,122.180526622141,180.472754325631,135.968722817788,120.771396220929,181.322188657724,153.318553385373,146.636389877194,130.448925596255,151.099037151887,201.97380376106,133.139343180517,110.592091908891,124.174467716093,138.65669530726,66.4659804822751,-3.48386184052699,96.4000281910456,611.057916401733,664.779299558048,899.669810363285,901.246032028123,-328.251663745096,552.13610261262,27.422902807767,621.326894078796,546.822934889383,218.036601607201,-982.009689486474,644.75856454608,-113.330159813658,725.012477095186,615.392280882093,429.027866493698,84.0370885879932,524.464860600194,303.104581726426
95.3789952284066,66.4279610701687,100.391606019183,107.946141791839,86.6951399033333,129.775660433547,109.276033186113,127.795925260103,151.008169534606,158.23291391619,188.064253112261,161.43029046022,166.358245261175,202.659250837698,130.083036500043,64.5379026701227,135.725775204651,35.8625223346886,110.234347189967,109.828797155348,-155.748563800765,230.873125984984,124.986777524217,106.667410811349,124.394453724355,144.624778475132,181.076673887823,169.128575340189,131.220573007107,159.548700928025,127.923647636816,131.622231335496,177.504317833163,125.924726167125,135.657828511821,129.652795445176,149.02579886466,183.653263606922,110.508993856291,103.65929422141,135.654536390084,137.862099005401,90.3170005205707,16.3565364938285,100.633725283509,481.696233259096,877.728816368059,879.398574919395,1209.87366834141,-176.190435138581,450.718695038187,539.64131844226,437.785423647451,470.891007656183,535.268900420906,-290.563166739476,533.304232344174,330.606976325281,595.314719655333,733.231923803974,762.540063038195,205.612228829911,548.532010482759,377.488254499728
31.3313207186824,8.86603485260648,14.1323240987912,47.8584000481607,60.3963806961648,51.3916149577495,37.4830436310107,71.9758108473865,74.1105228986773,89.8141325511878,132.906239744295,74.5862380095686,84.6077188620841,141.56064977429,21.6423976290541,-36.4414114929896,25.6074198878787,-123.570053819065,58.499607093613,-67.570820082718,-246.531560048581,24.3064436380733,-51.4924767133697,94.7127930639185,17.1483165268328,123.71668689012,92.9321144959175,115.329756243229,134.507670080339,109.079655260615,102.102537709151,114.31834554555,136.59491388496,84.0419825360386,102.65904314917,105.951164553861,110.688119885929,128.11061176187,75.88826961811,79.7665521296735,100.770575247367,93.1161459751585,70.5547896345543,2.26808935636287,58.6922401488158,349.178476754678,1046.71902255275,751.647889828729,1451.12246608507,77.4786176570441,247.432428913617,1027.4634696847,91.9272117923976,224.996189810168,783.161220560778,654.79971449773,197.659611997421,665.794883736957,212.837128076471,660.457448949577,959.635853404372,107.960784786235,268.736082240385,346.452737112868
-101.829275303748,-106.60757818956,-112.727766641629,-62.7026303070533,-26.499973655484,-50.7199626612266,-56.7813368748166,-18.6346325663336,-18.6191734996808,7.60636051427516,38.7372849882283,-3.35401807181344,17.0319262285514,69.6259487788964,13.2430584204687,-20.3932769664065,35.4317537812938,-63.4474760007162,161.522959010249,-31.4568711418664,-47.6196296328326,-11.0722101529833,-34.2040228497784,212.78540444635,12.7955118519438,161.869453170846,61.6217937234888,105.051364277792,137.538388252354,77.2603530489683,81.089787911655,89.7182038180519,77.4274464070519,61.6746268445588,75.0608110995703,76.4376742908884,63.7285259968586,61.9986849070186,57.5994202939556,61.8321431220443,50.7605357962951,33.178865426132,32.5292301673982,-22.0395443137241,0.275140402663563,188.243258335362,1179.52896121961,553.478583605051,1605.54416463406,432.702926370679,-76.6537822753663,1201.63853504904,-384.403063128085,-97.6798631748868,802.947474607439,1332.55178871543,-326.88400333163,803.812621946593,-416.60060804555,339.459241475817,916.903904169119,-53.0892960530814,-326.761460676363,156.107620296636
-162.282238893532,-162.660003493056,-155.341262997356,-108.109087817716,-74.4911983315286,-78.9773315430024,-81.094405924816,-61.4404482646403,-43.5912253598099,-17.4259318279523,0.55028101784523,-7.19915133541414,14.9390531730676,41.781035937539,102.656936623627,69.5064565713185,160.200563281309,119.359848749154,289.537251403528,176.209756362986,230.156049981931,141.655239182457,171.573151047648,332.03486409084,140.936576102372,250.122490504325,134.8307240818,176.033223036281,169.952862233505,123.534504223249,115.773316683335,105.022538111738,65.7446822390253,100.75219781956,106.34578326432,97.8917678888904,72.1608576280375,44.5951074563386,100.511805198986,98.2553317914713,69.3308053754049,38.7881239968155,68.7021962765207,18.7116894185601,7.42624396560119,34.5281283752951,1271.03483859893,363.113154447559,1600.97293512259,802.558497393127,-344.94403879287,1147.94040789514,-748.568446208649,-245.821300756296,774.502575005567,1579.57534821404,-716.009897353813,959.069349713982,-962.341136918019,-51.4809994215129,834.625411825848,109.737377037872,-980.476350535897,76.685020201386
-64.7469602193271,-83.1744073391354,-57.2497174201183,-22.87755186772,-1.52354654180884,8.54017494569501,3.06820549345746,6.12103202498209,27.8664722330192,47.6534924079775,67.6171906527949,67.1777677971048,80.5941471340151,86.0011806946661,202.127888607546,145.680285963339,288.606504927348,247.448239392265,302.245227803478,356.897635193636,352.482936871644,318.201294212829,376.832567963344,368.061511275093,299.718444057657,337.882841927304,251.823562395733,283.034523967073,233.143497769991,225.58152142935,207.661595029866,176.319791762183,137.356190916071,193.155318140463,203.81508976687,191.178202280892,161.692847444884,119.538480592823,203.382676956211,203.062009978581,183.94103716502,147.525333926845,207.486715480994,164.219428551144,129.466492233124,-63.738186831595,1360.20278937203,324.839038959318,1528.60781999453,1123.71152828267,-418.657561022478,1174.41970602196,-834.170424454372,-94.3678729688003,963.166979058004,1640.18421041765,-737.971716716297,1226.62314511128,-1054.60491779213,-283.858182265865,925.343820728188,587.038494364843,-1323.73028695707,259.682994978609
134.858176886268,91.2722862904258,116.078951059636,139.748943109965,162.030429213579,153.930574135629,147.597421276756,152.068448886453,142.641128507158,167.868354838227,195.970435476921,170.64611024426,170.836441686888,176.495665458215,243.580806609208,178.15853440744,334.000773654532,262.280298102174,225.755547183317,376.344392373056,310.024931372208,372.762561534964,414.854665955614,343.546062951413,371.455286237389,376.11718726648,315.637392933961,353.559626645367,300.361375286244,307.83273050846,307.312238086032,285.647627599516,267.917363529158,274.224377988841,314.613288455983,312.639521849868,304.874676300444,280.316384926514,303.020639588808,333.855562299196,352.328964226624,331.053783008217,389.782736917593,380.218604631033,347.366386856688,-166.551623755272,1425.43478341135,456.025441872435,1465.11555548706,1366.84977658186,-401.810344935285,1297.1371405727,-749.538375462025,177.186475106849,1220.60060843009,1649.42377577668,-524.930764680375,1382.17185943565,-697.609752962668,-271.933387192788,1114.60298221536,970.542613625989,-1122.25563571881,524.663970717056
372.511694926865,323.392529304267,320.966827606246,342.528687128531,371.446187879308,323.028410060505,334.284001726496,349.221973361368,289.868510588848,330.301689450724,366.152599741987,302.331089013379,293.950388448274,317.972278444446,286.647217469036,252.464840255132,358.573846429114,281.223927062968,224.961033494852,340.479053562064,289.180700624942,371.599922345299,375.654297639421,345.621525055587,402.822978971135,413.586972096422,350.545989950827,415.783147642038,399.314786140664,383.358508903996,419.034385546882,444.090246969629,456.155212168711,338.360833554054,430.938937191712,456.760166617789,497.601281705782,512.683592802476,388.324798932185,476.350534466386,553.617227986085,570.137872138386,588.229849689417,635.775541016625,629.722578564664,-328.88733254802,1324.27615171759,557.426450763103,1253.41153449962,1451.58612820588,-393.176285625452,1257.04823355048,-599.197773554847,343.83416878912,1220.90181965085,1484.3084003271,-264.949850977967,1247.09658324561,-165.565640427245,-23.4260638399026,1179.90161636778,1007.86686539992,-438.427586391767,616.773331441785
576.023650130586,547.957209442332,514.10727332671,538.929633383132,562.215197961201,486.067683536744,524.313728622117,548.293335356843,453.469032850718,497.186831069537,539.412340484368,445.241497887587,436.098145986652,478.763984520818,375.436658596244,406.172060065917,423.080386603456,378.888488148174,363.792803701245,376.872309546685,389.753888930153,415.66701994343,406.673029978439,425.077814566653,474.412761536163,498.982841355486,406.834931753305,503.102739691911,533.18516669191,479.521698789382,543.664450268842,618.063297941273,661.908962541417,407.108082460528,544.919458934673,607.32104691161,692.936587182158,740.650839361191,468.858885796192,603.641132492735,734.156733663632,791.633462074348,755.399100292018,856.92794711835,883.320789435118,-550.533155213863,940.460867430283,364.174634956665,706.735933195375,1324.69076826248,-346.89689191118,934.13553341602,-339.061104352424,347.099504698387,915.557769779126,1094.89035081556,4.79394002691747,914.74330049824,300.74583444847,300.671788193159,965.807808794797,769.518573515563,329.541524905103,410.899733542558
623.515638286891,621.589950838191,580.146794969471,603.736102499005,618.011103380415,544.106502745411,596.522047656438,625.567758106498,525.764412393513,558.550699210334,600.837348645324,501.60042852381,494.283091734993,542.002214175679,426.740124005535,529.849463778457,446.512553033235,467.711920620732,524.317015751318,409.365766040581,505.286953316994,435.318919156913,446.915498331338,521.32376873073,519.012450341857,558.642494201799,423.479673239049,541.312349909038,602.928445797708,516.286954982103,597.440377054253,692.218521327682,756.264120202723,426.371185792258,572.467760692266,658.741994352954,763.650273418829,822.864692559291,481.266836094299,623.250768189314,771.752494375346,852.369926721107,770.225452867368,905.855732263542,955.405189503665,-821.326983530068,362.558672607377,-176.75376074962,-57.7360923964936,1126.51904960173,-262.312563187381,455.629502247777,-0.180326955707308,236.794598312554,433.476327734181,631.741672683984,232.977492466023,494.406912755045,572.995745273064,413.548056376071,439.653808153766,377.512453172027,720.452376057004,-53.7095699072384
495.939956343825,508.693526980821,479.554147486476,498.787141072378,520.3234530502,455.92108945508,516.47753274163,550.334104520715,453.951413972911,485.056339965677,528.911248956339,434.707413397703,432.656139595123,485.234389098671,388.521013486222,553.466324866761,365.199367367535,480.219679935099,606.476546899939,343.19234871226,525.805618762596,342.452371398799,387.784737743935,536.795156501634,458.94374236799,517.911712045175,347.963439778991,477.270485083251,545.684282271236,437.409725510441,530.48816219793,625.636859437535,693.721953738595,348.593758377051,474.179137426222,561.292964152767,672.450972280315,732.008321274974,386.996802221563,506.999242252237,636.019793519499,725.035720640144,604.53861974065,755.471850926224,818.625376116908,-1047.40334582628,-207.183497140422,-775.108404247017,-710.4613151684,1033.91360794765,-207.408152603732,-37.0879180375955,235.428655766236,74.4166158861522,-174.506898401284,166.379122288643,312.036335207543,-108.046080590907,605.716863267281,217.103619116207,-319.146911032265,-195.11145145833,640.854927942298,-653.004126633031
312.48632481626,332.353512295061,309.805668687915,332.46859035288,370.963263374343,300.026489163666,378.611764267885,421.638646118823,313.060441807495,361.966141827113,417.09779938305,314.467051915449,323.423411062735,401.709936229258,303.347208734462,517.516189615738,241.56239263579,445.637343727381,605.014728629039,242.176028973236,471.185808315227,187.085010049468,277.344043667139,439.327556261481,343.90698761515,405.371924904751,227.197091770624,358.747735467151,404.793447439135,301.614441955919,389.21375554427,483.789122335811,553.165580151036,215.475545850137,316.379302999995,389.891181353829,503.450893545722,567.475687502623,240.356996713159,332.787276523389,428.503690977493,520.031219136646,370.452952314177,521.433511938977,587.328140619999,-1090.29836904302,-646.34782737748,-1067.15795823579,-1048.66787291744,971.090287874736,-197.911920439403,-462.079520455008,233.910192842145,-122.275362919715,-831.159099241271,-373.107523411421,182.8300897218,-925.888088454839,407.36307198501,-131.452019195839,-1116.40833416707,-977.329963859523,360.359022388821,-1270.34590352199
126.823488285148,145.857723449365,122.932679928994,151.530176374937,194.580072719665,118.508972581813,209.964023950585,256.588883327052,141.29861505363,206.313372883554,262.47389049939,163.198345040994,175.023074743377,282.76741242277,170.236300287949,409.217229578573,122.595181241353,347.46133061916,493.864023398553,162.529804620398,375.573490548485,36.4513229904686,185.38595209474,260.771275239111,224.033538228277,255.634845095943,93.7347869270204,216.576657513219,213.827222929768,147.52572022639,202.869623073877,285.889127458955,353.33107183672,67.545939039555,139.907090768845,187.915585525905,285.148189229444,350.61869229284,75.9487915950476,136.759586985687,199.969500155614,279.013499187571,129.929774675924,263.555776469027,310.996742307804,-987.944163144836,-846.321917550382,-1023.11813546084,-1064.11676972473,754.811202095468,-246.789781092098,-693.402183160924,29.3084932864249,-363.726869701284,-1308.9216813281,-904.424925391856,-137.453445656867,-1664.8105801467,29.0140825151787,-498.506729810319,-1686.53229764619,-1762.25276442936,69.6656243150282,-1733.1532780053
-112.941392590317,-109.869491763925,-120.36138559322,-100.002868874345,-66.3442256640689,-120.239571676244,-41.2130625335311,-9.94720621330108,-98.987411466449,-41.466061253457,-9.98205360074585,-59.8672657432273,-65.1366305129402,35.3070373056611,-43.9586050152597,171.956267457943,-23.9378485303547,129.252536279831,242.885965025542,35.2547404853579,207.689800293857,-117.435982904796,63.5360620131162,53.180860959409,69.4084233103167,57.2001818955498,-73.5260626322263,30.1333096780263,-27.6406768034565,-47.3949753591795,-34.5736234170243,12.0601175859529,53.5002005047912,-104.090032525706,-71.9200145546923,-63.3677170478242,-8.85311720527922,33.4718621226816,-118.450930777544,-100.916506379531,-76.3908127723963,-31.9538793235894,-135.953247638106,-35.7282606736712,-30.577044914895,-937.613593170608,-685.11733837993,-920.129706619235,-833.926647340013,460.01659505763,-392.780192020312,-626.352365936613,-255.057041837457,-618.665679256799,-1416.86668713875,-1123.41347301504,-564.03470295895,-1947.31284382594,-424.069036606286,-910.491154064651,-1869.77957714982,-2186.55875803368,-328.505244629018,-1835.26292460613
-382.313797460883,-399.093401780098,-388.040350936672,-383.333901105669,-355.387745638075,-377.293882558069,-325.37527598882,-314.968378359866,-368.959308205384,-333.018291618308,-326.990674356379,-311.35696168638,-343.345369836415,-287.210240205091,-274.247989710716,-128.689986876434,-191.09035998784,-155.792178460901,-79.2352444065346,-170.206524270407,-35.95827627843,-266.792933340821,-125.446673039894,-145.757613162706,-110.735015218905,-168.820115248028,-245.694512118486,-170.635760583774,-264.296731023872,-245.422558849834,-266.342451165379,-261.575980309858,-270.443685126424,-270.116156223195,-279.142163396152,-310.561375996835,-305.793595518108,-305.855982241619,-299.929808171824,-327.965990069524,-349.05057910989,-345.785424875305,-375.627242160202,-311.449289780875,-359.17263171881,-1011.70157686492,-266.790376493111,-933.546152744029,-520.43445654343,365.433228157218,-592.771336049387,-317.569005921721,-508.822550580821,-813.028794917886,-1167.6597458915,-810.417266230335,-971.499078737863,-1654.88965628092,-818.163205495662,-1404.89824249302,-1721.68892386663,-1986.77544366742,-922.162459700769,-1562.04058780251
-580.361906887609,-597.144088889368,-580.226346146786,-575.436911953437,-539.144906203781,-558.493153303625,-525.23279579238,-518.385301943382,-564.559909831702,-538.513492429129,-529.738516933024,-488.306501914549,-541.380088859934,-523.758839908008,-422.918136904242,-363.074369718467,-325.032897809486,-383.035665993606,-373.484634395528,-364.341489431849,-287.440802006126,-374.408920438881,-314.594829390167,-331.36497409725,-249.226923966832,-364.213648465087,-359.620217971124,-318.60901719362,-422.162128934555,-370.705639514477,-413.98128473058,-426.676518278619,-476.109185873362,-371.719833640869,-409.078049546881,-461.259203118283,-485.032128258261,-516.424398514846,-403.984207102871,-462.106273483827,-513.382954706457,-534.475055998822,-503.610444405413,-459.811963100531,-552.382566834376,-1094.51440750834,56.5855196672138,-987.925332022924,-353.518508914201,508.785870890718,-735.939371797798,15.0411775896078,-668.093854428288,-889.638065813316,-740.985238737538,-165.214927262003,-1225.26235458069,-1000.76037719385,-1050.84765703081,-1825.37667403826,-1388.83785960023,-1214.84037529106,-1500.85899524841,-1094.85239303218
-677.52112676898,-673.180143017317,-668.267927132574,-649.890537928559,-598.643021543917,-643.923299598196,-613.694008035908,-598.309545027965,-652.081097849312,-619.87726190033,-590.064822618412,-566.517874250821,-626.087365880294,-619.275479456039,-489.918936404922,-491.267996505644,-426.508626648155,-501.159291147291,-595.162267841468,-479.136917824826,-483.342198100563,-451.155774181415,-441.183692486273,-483.225186999545,-330.684194807035,-499.239700519352,-417.471959880992,-405.667315519933,-500.854841606252,-422.973170538348,-479.344919052546,-482.233126755392,-529.851606963721,-412.257564681687,-462.54205280325,-511.891739357594,-531.787984882944,-564.581888394635,-440.632385643198,-504.356662835351,-550.37080773967,-570.301340300843,-526.342150900518,-479.842676298125,-594.831990166,-1067.18216937806,17.0814297071667,-957.361352769068,-440.379756418241,544.495305505229,-745.787001562841,120.409621271748,-697.474401890757,-815.117058893381,-383.582502099328,276.646408907527,-1197.37028368543,-388.404123983679,-1071.83324860581,-1847.76012753368,-977.726473084862,-302.644729891217,-1706.28772395005,-573.871611141497
-697.126652306973,-673.827882968201,-675.890387972516,-653.611893376247,-596.817064176618,-659.384460387282,-621.311239663593,-603.515256421292,-652.414987154147,-611.627616002375,-571.283064213258,-574.469310605397,-620.793752173374,-608.577531381757,-518.584189508919,-513.649688458035,-524.943752724847,-523.034065475388,-670.887655186023,-537.998974812049,-577.749650641333,-525.720696452018,-505.699878922297,-520.781398701834,-386.992132598374,-563.912970566625,-456.308679415722,-465.797507522675,-533.777900011003,-446.436706114084,-503.86978216948,-484.886696212452,-484.638646924007,-427.212083966354,-478.013002026681,-511.762017591589,-505.73108775743,-505.996279569864,-447.943997548392,-495.126335374015,-512.880642021933,-514.419403548535,-494.096886708884,-428.73272053418,-543.275666729424,-879.05977416281,-316.26698917154,-784.100637497575,-629.924604529514,226.902481752259,-589.907665206792,-63.0678812301984,-574.6128156856,-582.349336590446,-243.916421681311,244.085023561114,-871.224500065706,-67.6504094061284,-884.654437821346,-1347.40664640781,-564.050923306665,283.683270080936,-1394.20108094085,-70.6607091598862
-631.847288714141,-606.007898143551,-599.148810744392,-589.725187209596,-541.135589613888,-596.176189955687,-546.245945916705,-534.601166185565,-568.863012331279,-520.964701920872,-486.75448132856,-509.385302382619,-527.950297704951,-500.50539300465,-497.855909113958,-392.837811099785,-583.32509544797,-440.757348694965,-492.982899474518,-556.148830845829,-494.689199346293,-568.759197169481,-500.485064469886,-370.276398805369,-424.808231279431,-532.912116024034,-476.66451175732,-505.952938945446,-505.765025957464,-455.694370997476,-493.053108977836,-443.698277564869,-379.959153341624,-420.738074026809,-462.097871796783,-474.503057706573,-436.005534837932,-383.790628651075,-428.545882883725,-448.474116357581,-438.002506896392,-420.478282835182,-423.885266381877,-334.900919227029,-439.489332986612,-534.050680302029,-613.699271608584,-479.583694458712,-675.703211993883,-185.768799356033,-294.038591938699,-306.058096075601,-328.334095654861,-265.228045521751,-247.601636899963,51.3078769387896,-425.137583706723,85.5659817155579,-569.393979295775,-646.626606335267,-194.396931503992,522.83035010996,-787.825765994408,338.979793749401
-459.658181597529,-443.81003508031,-426.29137028721,-431.207239177435,-395.937472291167,-434.109853669857,-379.206783307422,-375.612678626357,-401.665986723672,-346.384349000905,-321.500782782183,-361.052941485774,-350.228995580631,-306.172710378458,-389.332221382833,-141.840323934915,-513.292488380271,-247.629524882513,-120.621957456693,-481.16883629875,-220.83158723641,-513.615332142406,-394.211507225576,-74.699401124116,-411.799432206798,-402.145858876221,-448.182512002579,-494.764014219556,-369.445634947266,-429.276194130969,-422.117389237381,-326.618382218702,-230.982916679323,-375.485996429649,-398.597236093203,-380.265759280755,-314.712247176038,-232.630620118397,-366.014646620046,-358.494380217431,-322.254888315186,-299.730697327947,-311.254103020917,-205.938412615873,-299.846601590316,-119.299520467578,-625.989125814308,-144.480685860308,-510.582307021829,-306.54079536713,26.8943178048162,-348.140638418512,-59.0116673228247,3.90920312896407,-214.692807165788,96.3081153663721,-77.5649287298196,311.820910096987,-263.083666037558,-160.209781411716,140.907474039762,737.282906442718,-248.189070295053,663.550070138538
-218.068389827809,-218.237246347809,-203.340245100834,-208.423822207992,-188.341394854216,-214.648500909912,-167.08732165581,-170.19340725015,-200.608556938734,-142.382777392209,-124.383566174428,-177.247697621775,-145.288152122509,-106.746544834199,-225.455067434219,84.2001345654365,-308.194060528424,-42.7724791691577,145.6664351099,-302.815167826001,33.6080213596957,-359.564784565997,-232.221676114793,165.589782014614,-321.844540858107,-258.364711496341,-358.730199436669,-417.598678017813,-174.065848934291,-350.215109108109,-302.626591009426,-160.376150558591,-79.4333100278022,-291.182443783143,-295.300929304791,-244.884493979531,-167.053392438892,-102.050594297325,-268.453334695297,-239.934285376499,-183.262817387481,-166.697339149245,-178.3627502366,-70.7168137415488,-152.49739713576,198.583850977332,-459.925202352303,58.4800376769438,-312.805779673979,-198.89071383819,207.773604287963,-235.040475052369,94.0746943938254,105.941419577153,-110.998490611051,301.941995877268,57.5216023383925,592.347719612586,-110.367688305923,-5.23596377549067,429.462174633259,1044.49632183002,27.9722383207276,960.044302244586
-27.218509735941,-43.1543437718631,-36.2901581027753,-33.6111945080763,-28.6736602995487,-44.8603450381294,-9.24239047033618,-19.6426320494475,-60.3797690806286,-7.15400985287885,3.93450852838959,-53.1642253289733,-13.0816527855865,-4.39140018449475,-114.79282809059,127.699043138832,-93.0172005015389,18.3517135973817,93.1773425671016,-130.391419263305,25.505330415578,-200.332995376078,-134.108515385704,173.245669608055,-190.718388986855,-207.168222886121,-247.41894627845,-321.873157630524,-77.8757721684786,-253.998155905434,-209.231175206928,-58.7250709884215,-7.94642777893146,-208.185146757218,-206.578950029499,-147.185232493819,-73.9702205388946,-38.3199480934125,-186.004965995285,-153.752277604788,-95.7741329839938,-78.1674188185231,-92.787646456692,14.2997604658105,-54.9701090154014,276.67625082728,-424.242184082512,22.6982402906262,-300.633323582931,-218.999241894967,130.837408788959,-227.879607795991,23.1265728000763,-49.5068093228329,-106.55113896157,311.297620840643,-78.9252845089264,694.885553845414,-200.249950912603,-141.19727922816,567.400965060681,1228.90225005649,12.1093265005708,1175.88422236173
22.2927066901582,-4.09854814900838,5.94647875853265,3.99003216404427,0.363647551828702,10.7318931207564,31.9742081748552,9.00667647409345,-27.9599333855302,11.2127840935064,13.6914231941122,-32.1608144349971,4.68245857512171,-11.9141978291934,-108.283310604916,47.3999653868239,21.7945704363435,-64.0475451053356,-86.7476056520839,-61.0831884131841,-140.948531037403,-110.054160298665,-132.731133896003,49.78380335498,-87.2928866121188,-217.575858214566,-167.308461985113,-260.057244872705,-123.992670617924,-193.544380627529,-184.704138586711,-73.0871169752526,-42.1846890939114,-165.44026807471,-172.318980969676,-131.221830417598,-73.3018692513058,-39.7483683202294,-153.961379420411,-138.620559322873,-92.6012752296446,-64.1554593457603,-89.1667097087801,28.3447714365608,-29.3227290549263,140.120575128045,-635.863135698639,-201.489554748744,-506.925782977904,-468.693336551392,-162.905954131564,-436.607525092214,-243.468469425118,-450.78878928133,-357.109309071641,-5.43415435023513,-459.263223693844,472.423432991667,-475.251627080987,-503.890078729255,464.742312662037,1078.27399362941,-230.818561372727,1193.42856594961
-20.8018822845982,-55.945193143817,-31.4223698152553,-53.7801521848587,-64.2120876906723,0.309911793299624,-1.19882300096992,-40.8796217614142,-47.5693778490618,-31.2890430005381,-45.9309838059573,-53.982928098559,-25.0921371296725,-46.064474162608,-131.709007708073,34.0733971585555,54.0384363331176,-126.754221743526,-74.1152547827731,-59.1193632100669,-169.341239870274,-69.7235915376684,-144.549308285371,25.6017320019066,-27.5216911820121,-185.123703367461,-122.246648675585,-217.186921576275,-169.473661169064,-163.21684629971,-175.72913926448,-114.458811880226,-99.3694726046487,-144.73132963242,-161.338040471273,-141.364742046594,-101.977234780631,-53.3500120332858,-143.072596592301,-150.420476515007,-111.024444557385,-77.7337726743373,-113.381629527577,14.5807743240359,-29.6055954479333,-39.8144352785973,-928.445237061821,-457.951610270599,-801.236624600012,-769.080415548541,-482.643773141241,-749.523125122407,-541.673139520135,-904.919605199067,-804.365797817275,-512.199935791511,-880.349748677101,-36.385645017839,-756.221670615052,-889.887253296166,167.287717918914,557.012260061511,-509.403545408838,964.769411479337
-43.6338610559001,-89.4788788089857,-47.122641473698,-91.6622985980306,-116.598905106323,5.15985700581414,-17.4374384186995,-69.7317876918573,-39.2133324782247,-42.7588586456224,-87.6921600664977,-38.4365584934649,-17.6301777943998,-33.5192264742384,-102.758094212302,138.997188005811,68.0536470789886,-83.2601234468998,117.83359902454,-50.0529475528499,-43.4531193803035,-42.5085531746526,-125.229561369406,95.5846631704248,9.83435299947609,-112.199089632986,-85.5954131305426,-161.713429754652,-127.710466697789,-128.31658968116,-133.351293360709,-106.069576034176,-109.49271030464,-113.116992581174,-134.453348392283,-123.666227544567,-100.180361187807,-46.6878691627349,-118.833061886808,-140.503665797864,-107.714509866097,-78.7883377442969,-118.407673270356,2.09401081582716,-26.3699198009401,-127.532084276535,-1105.09367644076,-606.728383990292,-1039.35929035836,-1004.31598094157,-652.560103107876,-1032.85077506255,-713.60780586302,-1179.88387853236,-1230.46559102724,-1037.27435921235,-1103.2214774502,-649.766933476762,-887.654525335475,-1066.24744984594,-176.165935185816,-171.968260801649,-612.089554793527,563.156262048844
-23.5533636557528,-74.76054536845,-17.5481479682633,-72.8641353423867,-109.977327068496,29.4665235115386,3.42602216256235,-51.8849856616592,-5.54678137440887,-12.5314271937409,-84.522809260003,3.59710687665737,15.0621674348459,7.057081131762,-51.6812670001611,232.666249227666,64.9218941451977,-29.7470622829024,230.350826053928,-55.5785916807305,7.09876411134114,-49.4229036546202,-132.991162456203,83.4844618528809,3.8716375577856,-87.2897342396598,-71.4620188972336,-130.945223561895,-88.3563837591318,-108.85436142546,-105.640511327034,-91.3275363746164,-102.627883484469,-96.30381354784,-121.221411310953,-114.465164240227,-98.0135997655472,-51.2956711392421,-111.508392825835,-137.688962345891,-122.552341497344,-93.642089068713,-137.046229262251,-33.6673717917298,-50.9792553995876,-92.4879089265642,-1118.84625255384,-569.462639763833,-1112.27797236555,-1183.352058709,-624.821348587434,-1185.67051171117,-698.737791624898,-1215.83149073453,-1432.38315734434,-1354.81415394092,-1064.98581531807,-1056.63741994163,-818.00809813024,-1008.02021936277,-424.711425457549,-728.7459021656,-512.100958409892,153.049276072252
-7.20404147853887,-55.5459253549124,4.99277603739418,-44.446461077573,-74.4595366333128,33.7923748566229,14.803016673433,-35.6167343215441,3.23516185366325,-0.760993379943837,-70.8405879545947,13.9295340300051,7.39061391744799,18.2344056174055,-46.8524436680363,210.195421148071,22.5538705949749,-74.9740870424996,167.96971440776,-124.520357940266,-94.6768691324531,-103.974524960726,-199.706990653739,-24.0568813109922,-57.6002646972247,-129.885724151004,-99.2198432220659,-160.967980188163,-118.500946079365,-132.490588518894,-135.556908719331,-111.626543107988,-107.531612326963,-121.680931990961,-149.989018259521,-145.082947024898,-125.000648743434,-82.801847738534,-144.384772481965,-169.504469410888,-166.506688169375,-130.226070916901,-180.51723037294,-85.1593503639928,-104.371862604612,48.0016159676621,-1014.89167962579,-344.225137045775,-970.670661912005,-1268.27698761425,-437.161327467184,-1109.17100514321,-512.01481774974,-1068.70950223804,-1307.81685279747,-1201.46986373811,-843.888831187536,-982.628453960632,-579.783380423129,-816.392368000847,-510.34040845967,-781.3681919459,-320.271570704855,-142.020018322982
42.2961385031508,-7.44451612020012,45.3992008284597,2.88382737795561,-8.58717925527594,56.1256293985408,32.7756841201643,-9.50406364199714,14.4613156666648,-2.49756726897252,-41.3920575558276,27.7153695008319,-16.2436204790447,18.7417980243458,-39.5196333943076,134.586017160534,-5.04137722709044,-154.565777448139,81.1379536472639,-183.318572628433,-185.544391271362,-125.4187277292,-238.612886955427,-74.2685271166592,-96.2173440537575,-161.471393420683,-105.161079539641,-177.462087933826,-132.778582134452,-137.619983291255,-147.305543070172,-105.107107516371,-73.6274390273742,-125.574521467401,-154.752261220666,-146.335536471133,-118.817350116177,-76.3080128921338,-145.550460981604,-169.035637348354,-157.789706876764,-120.128514528424,-169.555410606761,-80.0232626708585,-107.296228584203,215.725747398245,-826.81397867493,-55.488048774357,-706.057928146262,-1185.26994783725,-192.308681619331,-845.526042619554,-246.312693397449,-767.124939414687,-923.786756712133,-675.861350946131,-519.50169620977,-537.904818166467,-246.53684754488,-516.733907343519,-463.458295551325,-440.656000946517,-60.6375410127326,-336.716859328859
210.082996216961,144.950882227248,189.8461461598,132.306209068718,123.855195641574,175.97992777751,125.776363968549,90.7103779012101,106.230355153464,57.7654684078957,49.8890856610922,135.177415810932,35.2521806252357,74.0807685769386,81.5165193291889,132.148555613588,70.426510404477,-111.305161700331,108.356173921558,-107.122098309922,-123.91546528313,-26.9412258718521,-165.17304835303,-13.6827279804471,-39.0966046825951,-132.949866326366,-16.7966340692619,-94.7729322529171,-61.0320663109014,-51.6852102273571,-62.9566076294443,-23.4473604570153,22.5376192856265,-35.859528661901,-66.0219152961665,-56.0473744879541,-28.6203005511692,6.578963032377,-50.5869785629336,-69.9903868732016,-48.7713241367225,-24.4440494285102,-54.1467324351533,5.47198965963588,-14.498063884722,264.981427857399,-574.013672719373,82.6563461260728,-501.911405810488,-976.008646036048,-76.6109310058709,-639.742833769756,-72.982793066637,-405.234782644982,-551.183324697255,-326.435110789702,-183.114090873206,-203.705825706282,86.3634938501262,-104.389003953306,-385.373973743607,-154.30171722125,325.857659822407,-481.218788031046
439.22446149898,355.018098114579,393.606287010417,310.815772318137,284.161821017173,356.974731505529,272.311799766166,243.592767476022,259.638147467163,184.742393394575,185.857418538335,308.37168472054,161.621134859083,177.006287972372,283.628855469684,205.402657628983,230.822580878704,57.5890124205109,210.760130232988,77.1168851237897,28.1274058691606,140.482307164632,-33.7257753526024,56.6408724435113,66.3690098954746,-89.0705460927544,119.115858184711,39.1534308928382,29.4693489436544,83.0045968817432,62.0637417216526,72.9232257154069,107.734716387625,103.286156121611,70.2145324990102,71.1581713366377,83.3173103399367,94.0925160118168,83.7083885519522,75.7866646053985,86.6139010234979,89.170793809366,98.3482061876973,102.928368422741,105.926049271852,145.370936256399,-301.702660877708,-28.4069751357314,-424.418965837912,-744.085123410269,-179.66641655204,-642.425653836781,-70.1922772597366,-184.12792608548,-417.027764436772,-453.420437894849,59.0537619811625,-241.401084988525,323.795740320977,346.366267277796,-323.380733715637,-152.560332023451,778.6546188255,-525.582400036614
540.736252458389,453.71328059875,482.058902229536,399.045892893142,360.885710325111,444.408117220157,351.961133424151,333.773341658842,344.480952137043,272.482241443934,271.879280893631,396.615847669688,244.804019037201,239.749235648505,376.371714352099,222.066863994208,324.603570247862,153.759296279387,239.657042447739,179.977305657449,89.3069937617746,218.046726308305,16.1718522836377,44.5836360708446,110.81797243949,-90.7326039827174,180.829970255645,102.322586223368,49.1312442034403,155.708227130002,118.195669374344,100.812557552134,102.03637954348,177.748489144941,145.924420459133,133.743825678081,120.805691040055,101.291934394484,153.764951299051,157.889878322308,148.488576121981,129.858264969621,184.47778678759,147.047029016253,158.069386083563,-25.9988818025901,-83.188831095864,-261.568344959862,-382.195806322789,-508.864464495461,-328.267750644721,-696.304456091351,-112.365840401178,-190.599105719294,-466.666024383591,-724.657820812073,180.836582268732,-428.171114655578,426.889269424848,720.010921910355,-272.638576884395,-289.536846442966,1102.7964015302,-446.579894270018
410.798757926704,341.730580088454,360.374903785964,306.098561594279,283.742584111854,335.584906436472,274.738562465251,271.322392342371,260.741955843623,216.091113046945,222.805462172226,300.394663772562,176.696823182892,178.411694184419,238.529834846622,71.3920431164561,220.516082308473,23.4436310587001,75.4273620363808,65.232865248327,-37.4030809390906,102.879032475674,-91.7482911462547,-53.6325405940327,39.680203844417,-147.92507538648,106.571843414562,40.8114953428872,-11.7660868219674,107.893382085833,67.0605557642444,39.0758506166096,-4.30414647326702,127.467238598578,103.545837629356,88.340036242357,54.3143893508343,17.2808224342942,115.545669700561,124.893712761465,109.327967440725,74.3291037317184,164.556590183761,128.581247340578,113.665343976476,-147.730152298612,26.7613472840362,-418.171271869316,-321.033589063254,-273.804626181485,-316.408319850861,-624.596993894342,-90.946389207417,-309.98367030332,-582.380572925904,-776.862264830433,217.659911820586,-585.197744857216,434.378792452447,904.16437778544,-346.770961673179,-439.873108762798,1169.51280957858,-445.420606219728
167.622525155764,126.036474233968,143.405201861654,113.770756145915,120.241977958534,121.346180320487,100.412290758013,107.716723643146,77.6227415773641,56.7123804473843,73.9492709332834,106.108303835497,4.95987775830211,23.7370334937521,-0.500164202161936,-168.951560609193,-1.45073286094326,-208.186845713865,-212.369832605364,-148.157499362755,-217.956456121345,-112.665728584695,-252.011535069794,-154.295240493748,-77.8550729037405,-196.323685042212,-27.3511358282136,-64.791197932647,-79.6618994557626,1.69030948258229,-20.7344625304544,-49.7698854077003,-126.617661814584,17.5095801025644,4.68489450361479,-0.315988621805195,-42.3079325224492,-85.141103808036,27.0115959937575,42.0120770855172,36.4719408700578,-5.64680333259155,106.423260553549,99.7697781117455,43.4160862329391,-181.294954407674,72.0229273411254,-373.173529364769,-275.551304154946,-58.9394325428728,-144.043282759846,-476.51177921197,-38.1023929576326,-368.689763925659,-758.727446201288,-608.866299073015,215.976075878313,-787.562304447094,433.174298158466,855.682735299675,-631.392386881674,-597.660624758311,1048.04833704538,-707.614186068541
34.5036460687313,21.3908191672094,37.8859443939183,11.4658034026601,37.5692406357762,9.34959539379062,7.32512508121845,13.865263246754,-13.5071891619832,-27.282068722281,-16.7602214498109,9.51587551285305,-82.0879409999308,-64.431935435921,-86.0283540407537,-263.82093820942,-100.970068622581,-252.747195102695,-355.790969332405,-185.659479761625,-193.774998704458,-204.118624639124,-241.657351751705,-130.016446868874,-93.3382596167561,-134.166523771375,-70.0494933175543,-71.5689804400925,-54.8922258704766,-27.4023836835652,-24.1713677896092,-53.2908961634907,-132.541941345718,-15.9289550258222,-13.0310901582127,-6.13775732685444,-41.250890872188,-91.0314317673127,10.0242217754759,37.0671198663467,44.0873669601674,4.88167498241651,127.759439237715,144.753224299591,62.9393800722518,-50.9454471367245,193.140222477642,-93.6509908631321,-198.989007800873,225.20696232176,120.03383655192,-269.480996438921,73.0274645006636,-204.18048844556,-812.55393881267,-216.628103120457,293.994852432676,-838.126537956524,517.531207209999,728.467050397179,-838.081207133952,-573.6019669329,927.221360712496,-994.041918222128
67.8462576038252,80.5913019378222,81.8681926540667,61.3537615307917,95.485834786659,54.437588648121,62.0467872733532,57.3505356542434,45.9780079030945,36.8408064309637,24.0172865673345,63.7474933794153,-7.10838266745314,-10.6719939593059,30.4644463220429,-135.619141399679,0.811226488547647,-55.7518036475593,-243.500236332104,9.95951941957139,44.944543006846,-98.2284804968246,-24.5378442481318,1.89112676815045,14.549320614803,15.6168354716485,1.06708187960537,23.2489967203874,41.5755999981769,40.4920150750572,59.764578073483,34.7983619555801,-27.5149855461263,49.4633056388048,69.3857434485899,78.054743732123,57.7623117449495,1.62253351342458,84.0436904530196,120.720175478578,131.314930749824,99.2667764539413,218.644270577405,245.043922664172,162.577186088422,231.826487953325,459.235844411669,328.143085741652,38.369101011103,662.724379794255,449.224509985415,155.340423007364,332.710360158697,263.834949694544,-371.259274483517,471.415297701011,562.057535642456,-333.835665650824,700.523071385194,750.40041273974,-579.15647336302,-143.295452712163,900.778240369182,-877.440019564922
100.661114300738,134.471657824213,111.276966094446,116.45117354935,154.867638575479,85.4211933781663,111.270391942796,95.5888220655005,91.0774280530288,94.1029348346857,62.8751410881804,104.535934456432,65.6612456014315,37.439973636775,127.277251629755,-19.1190643493975,107.935477673943,99.9516669893651,-140.697790210795,174.156427438485,167.589127419979,29.4463607987983,148.38220544918,17.7410705457614,64.1626429121222,78.2820892499175,31.6141195549925,52.6113417093325,54.145305097218,56.2336899462457,81.5126909782762,61.3134316386179,7.2724690375369,76.5961766114204,99.2147345611036,99.5328527706415,86.4856171712672,36.2480889965921,113.457429470167,145.777611760906,144.001176513986,118.185193787294,223.364638828204,255.423682964511,180.290765019546,484.916767553872,727.075605732031,693.463722410859,396.21135500982,1102.04144447609,745.780705970165,773.177246922518,669.134610467897,882.535149956757,543.790699453973,1228.9618333301,935.397771534413,550.795131723809,886.518657315772,919.880636912099,23.5370662769691,482.844646840071,899.301520032732,-372.344532107859
-2.98732811861574,43.6845519605724,9.94476583814559,33.7509214529593,72.2728195910617,-30.4604402008528,9.2818898161658,-10.1449322639111,-16.5835866556721,-4.19099037900983,-45.3518933358738,-7.21062042878049,-26.1483455013687,-73.2677447861751,31.4811995941473,-122.339372156011,36.8432035193941,-0.373936280685908,-279.231455872984,79.6423804386137,-26.3888983639507,1.86292720976788,78.4291700391805,-201.111396688406,-83.0812002411996,-23.1328978288506,-85.5053423118165,-73.4791521479212,-80.9705144118615,-73.7378279558441,-38.4413283278076,-63.5189972174412,-118.656869334538,-24.8136627003778,-17.1327634017999,-24.0809827218366,-44.8660963167938,-81.0374381555572,9.67301223994082,25.589852298012,1.49848310928057,-21.2813791945439,70.5501541652665,106.932119329695,34.7906696026318,571.085549151024,746.011882787107,827.223276490543,585.495378789476,1254.08981030297,847.061952077559,1186.50513383248,876.346003965117,1321.09797257,1342.79616046303,1612.08066936753,1198.43212715645,1134.64550513873,999.212795906438,1051.67993369374,499.419823300737,814.356619809563,877.86883580247,91.7075327728115
-184.817456677316,-141.26400575985,-162.161578455254,-150.117497128216,-126.120703754323,-217.566229078233,-183.724887548015,-208.340620991278,-206.47902362301,-195.952915818095,-256.098707765088,-208.309890055533,-215.959276990924,-273.801331997217,-177.486358752839,-323.714787722116,-178.184038462459,-224.710087186822,-478.897287299465,-207.46529900293,-308.696680048876,-182.832150124028,-149.846730842153,-459.076411330708,-334.002142452307,-168.002207717457,-276.650554661443,-253.374769286141,-235.83740034546,-255.465015328827,-195.893026349821,-223.567979359746,-268.528212941351,-180.313897659718,-183.133955553498,-186.318983865771,-213.519241133926,-241.996134456468,-147.958484138129,-144.663855951105,-180.120347719288,-200.687841595265,-124.538186837832,-91.3153720505662,-157.89503142385,525.03014686249,431.210173425272,700.948586789476,390.423223226323,961.917400521785,702.631234034149,1031.4667623468,831.803195823356,1342.80629710277,1509.00461904589,1375.2291229089,1206.8962041692,1112.96195081793,1019.89301104779,1043.29579535552,663.445595101792,693.610407268182,886.981833298157,293.707160369587
-307.030060545437,-278.735286785523,-286.13478522252,-288.925418152401,-297.020802617992,-333.096426268757,-306.311192542757,-343.198764016046,-325.620281210003,-316.380281635702,-395.922359074612,-345.627115220015,-323.534509121632,-374.447761464899,-325.142895539656,-384.637217512771,-382.309160030782,-339.976354929625,-457.761130094722,-460.477091242591,-385.474221420184,-397.012144857154,-341.04480894799,-516.955965689789,-487.703011732386,-241.513639070927,-402.749064029235,-350.274592760404,-278.33819371126,-350.780207305992,-265.72981186071,-272.053213798704,-290.75038655207,-271.691066288028,-267.415696496219,-258.884365274025,-273.323816243818,-297.105945421042,-240.427024005664,-236.737358111883,-262.028574357139,-276.507558505148,-231.026013074781,-206.50305044419,-259.271086049548,428.614400385729,0.238020586274529,436.18847420619,-7.86266659341612,332.863032265593,424.374677453033,436.022517687394,575.704758574736,967.386045720607,1107.43377725861,641.794303609937,941.564048593901,742.977379618776,879.128811852143,872.522875670644,630.486774602636,387.494487266734,887.086119648132,383.709180064136
-324.162319742367,-299.581810547374,-322.203825792317,-304.689685936579,-337.861442578636,-349.543206511587,-301.408988106355,-340.876873529961,-330.573333707936,-300.536281735683,-368.603639654908,-367.40141315558,-292.121901082016,-310.66101632644,-363.160163895272,-291.174025123443,-462.793406217413,-322.823977732908,-257.943294931368,-534.095865386679,-273.970747699403,-493.937904377356,-393.186754319024,-384.659251097807,-451.529492649689,-244.915226409046,-404.357061640475,-332.468032938822,-230.977420683627,-337.269591299797,-251.535238290821,-228.719420947548,-223.173692284319,-275.190591199063,-267.018178476686,-251.227237218871,-248.785727023526,-259.350637673487,-255.368542233627,-250.695388893993,-265.797226095038,-273.102420433505,-270.691952259125,-250.535069834275,-290.317790445807,312.731653117694,-261.025397260506,159.128783823982,-229.272734048232,-333.580286940738,153.895494029844,-92.0645055353285,252.529853852926,418.674951311389,576.814259456419,-174.870287628558,499.397655464546,325.07338539054,513.925628420771,507.650135263186,453.369527009804,124.193951569549,711.873809006141,425.952546613805
-323.82004511522,-278.440604602431,-337.539536171447,-276.938030527187,-297.529014608503,-359.481751984185,-269.899951057956,-285.418223824706,-315.528468937896,-241.075798696786,-268.728088606163,-372.005723037224,-238.848010728585,-208.555272338355,-393.167697251427,-223.794458491803,-455.853824506119,-313.132169838561,-130.950873698238,-498.018882327429,-170.992001381418,-460.988246626805,-345.216676379745,-233.544940451002,-328.827362819975,-225.859914536239,-347.263263287566,-282.008842990162,-210.053723351654,-309.696847699183,-252.181704884903,-230.91958151901,-222.053364381854,-269.254871183032,-281.706395765376,-274.702647277721,-280.134481236008,-278.144194289162,-280.232414803859,-294.00368063679,-327.455224891389,-334.434420287611,-370.494601577656,-349.637666848051,-387.859864709921,220.425690877165,-349.309137445948,-64.1181476770922,-174.334763053413,-798.87681893972,-0.462124398867971,-217.678358440376,24.2792736460405,-2.70119438974887,276.585413788776,-619.273825514003,94.1498681278746,4.9569933256879,42.4522562583081,23.9518800320601,165.0485433381,-112.19575336425,286.707911861581,236.504038578829
-401.12718710557,-330.15832976605,-409.709799223787,-326.300775205223,-307.594536817548,-440.946255824351,-327.910571402308,-306.174269144942,-379.163539366404,-266.853100001922,-255.035350255944,-471.399732098318,-289.838328023548,-214.170028709679,-521.231518925912,-302.38053000285,-498.823961299345,-406.40350525459,-210.666663361705,-538.039683762679,-207.450514073321,-457.266481133795,-343.20415465476,-200.868366044412,-309.337215687482,-250.973858205057,-349.115803716867,-316.080005785728,-288.413767289316,-363.907759201232,-344.900310105962,-353.246233144211,-360.934159054703,-331.769630335363,-380.806805229993,-401.421399524886,-436.348197013668,-436.845886108866,-378.824772085416,-435.72187803474,-508.973592244073,-526.03124597864,-581.885402735989,-566.781695706872,-614.423091723398,278.855301729487,-489.41484672913,-82.2881532817302,-40.9168757495528,-1073.85356315971,61.6887819945971,-71.1894874290456,-24.6583470861807,-92.0297610873557,275.794112861814,-570.703079123704,-108.806258643919,-130.160359020325,-315.667955363089,-372.423560943705,-81.9486209946022,-346.837475168525,-275.119992214777,-199.033127693692
-531.527579444479,-454.940165942202,-523.363666845807,-448.066041096564,-406.644900411661,-563.63396637646,-460.94581085799,-418.915863843207,-505.283109897216,-389.762608629992,-357.462071946533,-637.524692022456,-431.003897973779,-334.552781800514,-722.101676252026,-492.702688729568,-613.812806266237,-576.030639140607,-447.840682083644,-677.769619445288,-390.434550139498,-582.539976012999,-472.519668803297,-322.379260806689,-438.766860008482,-366.485881943823,-435.699016070279,-451.246470441644,-437.443118646806,-484.904750671323,-505.739432030233,-536.645657146756,-562.831574510799,-439.939771106143,-524.823073906945,-582.66175606908,-644.134522852287,-654.776949323277,-506.36357654208,-616.66550300055,-723.220230221379,-756.850703517521,-809.451208360873,-813.65386349589,-876.768986741043,578.259684757932,-744.602638700138,257.12373334571,46.7372863620521,-1281.25524671571,323.288858989484,42.9554426178767,58.9821499862295,58.7235170823701,403.875303042614,-333.712410508117,-207.104586942248,-117.537222361081,-490.40266742621,-577.417780816057,-195.476367708869,-496.042906231218,-800.885706757227,-559.255203505859
-649.288265986302,-585.735402882864,-622.45996472021,-566.729392778516,-539.393806274561,-655.180282439366,-584.818183009738,-554.55857725901,-617.127066783306,-529.99651596984,-506.809633028031,-752.611247078371,-568.287609961332,-490.121533242848,-863.27152603363,-688.535589750808,-655.944343259537,-712.573818798287,-698.121794035586,-722.790690982334,-581.276970425813,-700.156473924183,-597.340150880873,-490.317770891437,-556.131929790739,-498.521231448432,-507.335783194884,-568.300310736245,-570.755098020655,-570.617409757543,-633.199084943312,-680.560728048051,-721.572910234305,-504.620764236643,-619.727557150333,-713.145319856451,-795.349250796509,-813.239431124155,-574.379872966845,-729.315169026457,-859.601501213803,-909.845685979439,-937.000330510688,-966.391452265203,-1052.67816326909,975.018787552329,-908.958584355363,757.97119910539,124.042001789614,-1418.62891725267,577.69906767279,30.6122228180802,166.181306046675,150.244596526228,450.283956445224,-232.796327100477,-388.068597130225,-118.615767543472,-571.307814976466,-667.796043925016,-259.738253867771,-553.394212623507,-1163.32486570424,-659.011613447145
-777.152661684109,-736.131356345873,-717.498048201829,-692.161657006267,-699.151917907952,-710.183998835429,-689.688229637823,-698.404053929086,-694.690856204731,-657.365138058945,-677.154074028228,-776.889162311481,-667.506789831419,-642.67469461428,-854.60458466008,-803.213903761691,-538.365917532536,-721.819024072555,-812.034291299954,-562.086037821934,-597.196828638046,-624.212208068297,-536.235261910711,-515.270713559919,-517.100112407593,-517.958681701399,-475.210655907676,-568.765854122629,-629.840756103868,-562.34254630719,-658.953467028843,-748.538442430666,-816.316596146806,-488.366742386208,-624.883428940437,-748.163133290431,-860.167500601636,-891.806848171024,-561.626690186734,-743.776357601005,-902.861264806323,-969.472578571975,-954.038914031252,-1003.00863072697,-1121.07488403298,1193.31987002392,-835.192690054438,1011.99379426627,206.006533466282,-1406.30299304097,653.924261282773,-23.8964830355257,247.963162866875,85.574163298348,351.13441793357,-284.36528778256,-552.589902764286,-210.92979208731,-589.337639938591,-695.208887543231,-373.897904539513,-645.601034533272,-1290.27020092329,-712.698996765552
-956.780592741182,-954.880496643587,-844.366140555662,-877.116381495815,-918.395359165707,-771.485705429459,-819.83061799922,-883.841588538513,-765.19220413158,-800.82142313484,-878.88971312833,-768.138444188084,-756.107386134168,-799.717687462831,-736.146163300906,-826.452041322011,-355.849590777123,-629.18736232702,-771.812350760692,-345.585424469385,-455.614533609299,-384.725408026722,-353.818406104283,-365.912190043407,-378.181717700909,-435.970860586702,-368.910134988982,-495.518912853938,-625.618983648045,-498.35317896205,-615.247585430277,-763.517482125658,-871.636960749835,-429.368456443139,-576.673221830436,-720.542059656588,-868.791924710681,-928.052310897703,-511.829238626056,-703.197971211586,-890.818023798804,-973.999375159552,-912.417239378894,-973.477989254396,-1118.07984273259,1148.11738084215,-644.35672838596,926.523558657032,255.813728773789,-1266.8456919027,592.33876724019,-83.3554087534896,316.44123994979,55.5678823487743,187.920979126587,-343.601056232397,-441.668794612218,-316.471657376192,-468.266359745961,-593.506313759471,-502.914931069432,-782.753052738689,-1166.82131284043,-892.285787585406
-1115.58424223647,-1169.8368964166,-953.958578756029,-1062.00707011802,-1132.50692581603,-828.332108022608,-944.353032228188,-1065.55246477974,-817.096991757753,-933.132925828806,-1055.02934394591,-750.806079488521,-824.24444316993,-927.208235057029,-595.11657291811,-800.857758720042,-232.674447005982,-531.786462920743,-697.459654651137,-244.134939202538,-332.318413202833,-159.028449730672,-246.617227656434,-209.040914398181,-274.687526428737,-372.352784755561,-269.020343083362,-435.79001930823,-595.373852314508,-435.230549657572,-564.853651046611,-740.264254537907,-877.602776143708,-366.302836347173,-518.589433866657,-666.663035267877,-834.520944274801,-916.67127480777,-454.068851438493,-638.780984145576,-832.228006424595,-924.529492491551,-832.174746450193,-897.699298475278,-1044.53179522939,986.816983590978,-502.27558637711,739.796535083858,273.313755497144,-1073.75886796127,496.665762314786,-147.569882533981,359.750592631861,172.207681870357,67.7750472811385,-327.529567538722,-74.5641986168497,-337.480515324073,-187.691610315282,-286.126389299702,-509.206887521462,-785.00668134025,-811.018911468613,-1000.6643581782
-1111.19449636353,-1215.75330176131,-936.489960720673,-1096.07879476066,-1189.76060956067,-800.041790893345,-951.740088619611,-1110.37792954163,-784.145173833463,-948.280411065808,-1084.11159052178,-664.07147000342,-801.253360961751,-932.975664616139,-441.279752767886,-725.3159842507,-168.588236371408,-438.873496322655,-629.485462334796,-210.485119611113,-258.102500084994,-13.9655111738481,-218.681853494486,-129.400485929008,-214.311062772276,-337.878465581248,-199.181634864324,-383.693544993598,-534.837214184906,-374.107286111776,-504.796802245145,-659.845313587653,-796.597272836271,-304.844058312197,-450.601098719749,-581.845603134721,-736.159662804798,-812.816300895581,-382.570198907249,-546.000847719183,-713.743055743883,-799.197949917238,-707.897942689453,-760.097362298081,-884.35650206183,829.876912131432,-389.717278164694,620.691051161941,294.077052251185,-817.083636561753,407.697200111263,-144.888248706759,362.070872317147,350.417489269835,65.9513835886441,-232.176871256811,325.98181703248,-244.143719507502,189.880029789557,245.520738761742,-286.925141747957,-579.975478544956,-236.828391946648,-817.204635483339
-897.55231126823,-1028.95616144748,-752.512096848982,-916.538822477081,-1022.88840587406,-636.692863207175,-787.582340410287,-947.01186042502,-620.845809511352,-785.29942391232,-908.206347573671,-465.193229136903,-646.787015524538,-769.931413921295,-234.951837404372,-551.236875996784,-97.6765659048277,-278.16116997899,-469.002962907789,-127.41610999722,-124.189116163401,103.030097092173,-130.140937462867,-45.2628419733625,-113.358403124681,-239.817234224148,-141.3377610186,-275.865312742858,-410.235483334702,-286.953076395156,-392.675945307862,-503.423652918008,-611.363209577143,-241.991401827503,-352.191858654033,-447.649635329356,-559.617810795911,-605.575250138619,-295.556631651138,-418.614984257825,-540.714973937957,-600.713603017544,-546.114315255508,-562.563137660066,-657.567875450485,663.311375997644,-198.753370379986,553.611489101037,335.797395178119,-472.438032504999,348.355544834181,-26.8101874604544,357.760424209697,517.037007730122,187.315410467518,-126.952750753435,673.672274128775,-90.0405205262792,592.65192453917,888.633163245223,93.3838458544673,-346.897414399449,463.850315628852,-460.847835783254
-567.934120228224,-705.362396041939,-469.131764507936,-606.981803981151,-714.521597320436,-381.299593726143,-512.195169299507,-643.628229979191,-363.951903517153,-507.512349726828,-595.936089693996,-205.5390824654,-406.778374032796,-500.979342509034,-1.38411823395457,-292.693662347689,-15.5616743836748,-67.0424564888591,-208.949142950975,-39.3366818333981,29.9416718960902,187.261684543022,-5.73636091103798,40.8280316699586,33.3380206847828,-88.7988344707846,-84.2075677069417,-107.279906345825,-225.115027832203,-164.909826655729,-223.117923957485,-281.520670170791,-342.78330607387,-164.492263303765,-213.181884794274,-265.639177174903,-323.738803476564,-338.97456262343,-192.167631940095,-258.170777295913,-330.422799209604,-354.380064850558,-348.936371060404,-328.136192916355,-399.824875410029,479.338746871052,95.5195774844524,483.204561424768,384.62295553408,-116.623198113596,324.761028861385,112.331835099467,373.988938769426,633.635300670933,312.008706900625,-132.473912948511,937.86650130898,-17.574927365864,901.265281186555,1355.09510732311,345.782285994916,-279.087769239773,1049.56590140228,-234.352987067323
-225.381772692033,-352.097961210696,-166.48322127984,-271.779554303795,-371.859763686167,-108.69260822683,-208.734879561916,-307.222760854185,-95.5191614292431,-219.695135433947,-257.916983037258,29.9326022940523,-156.933829516744,-224.727424951762,167.660458958194,-73.6303888306943,27.9042059183411,51.5495090466805,-57.054442773263,-63.4599681407058,-19.5650810687923,191.922737083767,-35.9551416601048,-62.7478587630722,150.103994008476,-23.7446613538125,-8.29581349667234,60.8332819244023,-37.6090191898644,-17.8954530138161,-34.4641209303544,-37.0991561478835,-49.3361331260393,-51.4108100695282,-41.2783508877756,-59.2891063640221,-68.9030867086862,-69.7683860805743,-59.3765696149063,-73.1322281581812,-100.971388585864,-96.6633462809494,-121.288935948016,-83.5976990963836,-134.141241919625,343.322216308056,415.732049872747,392.242346261591,406.071498382046,131.639557875586,317.157748993531,149.663820311222,398.208196275909,637.856193077292,290.874646746153,-270.706125914451,1020.48671893834,-132.962251718469,1010.74291901538,1439.87456015566,216.801635724433,-368.319229518008,1333.46285382177,-297.900024469517
89.5411954460361,-7.60850256118863,112.579373136955,43.6769080995781,-38.3995585244587,131.040535736143,73.4727608399564,7.3531763519483,121.519590748619,25.89581624913,39.254437268562,188.265029917396,47.2651288411053,6.71880401939893,204.154235732248,-48.2346070413482,-3.91384973478827,-31.5866210144278,-234.693354806245,-184.747607339927,-398.119083379438,134.761121069023,-260.664513717305,-484.937655947329,191.361528724261,-115.505369606545,88.4875341681513,168.754564656624,77.4524797020945,118.136605239038,117.121998335716,157.526346375224,181.880565461759,72.5750035273841,119.237580112219,124.645873131379,149.849239653155,156.141442271964,78.8640125885092,97.2943316131072,105.309706846196,126.815386318046,87.4487054424659,132.510583246953,108.424500264197,282.577689959227,696.972119458383,306.902203064933,412.510617068262,269.463899533916,322.649538244556,121.616344538376,417.828648625301,552.782604149454,148.852875145121,-382.088454329292,932.235058974028,-326.632897197756,979.857948854995,1264.5889951065,-167.807065649587,-446.130306110674,1367.1853070694,-546.170551381706
352.501791952146,300.546618716014,337.034502462975,317.876955141658,268.464501731863,310.191477212228,303.824443846831,280.97887741641,269.996490903605,227.393950986513,284.206538609403,261.834264267898,187.468066471399,195.480413829141,143.057740593138,-219.949657567736,-90.0088200683563,-237.208820566987,-636.295650873474,-268.458845093325,-879.615878585117,71.5190422136963,-445.823929140459,-1003.02975611814,188.114945421415,-235.404657917749,165.783120516651,216.798972426254,116.483572052477,204.083730736948,211.209494785508,271.419584924091,322.146488065453,159.547626964984,226.92794875551,255.822941118583,305.828070440657,331.491032628236,176.779862471395,221.902355877561,263.641470786889,309.771955894359,246.035918508773,308.011176220566,315.321225362814,228.028000141411,994.24250773701,258.358798364071,517.456773685513,433.184717449844,308.072124895659,187.08996399565,388.478910859994,492.661840096388,91.7407153952054,-291.17976936546,798.580564876858,-335.583135076723,922.561288125842,1048.78349708075,-391.57381452122,-325.484353596828,1261.68175340317,-670.62407477676
558.872996157842,548.100089489327,503.583434767387,540.565046816421,527.454578201463,446.552372861497,485.604926730023,509.012821911434,394.72914619928,412.815275735068,496.863350344685,317.629748646825,319.423867143207,377.74677975551,143.786152143249,-319.198930747396,-92.1403175172918,-295.907569888419,-773.425199489686,-166.170249383045,-960.31736245346,85.9877685219593,-315.629600938582,-1127.18690318313,251.044950670861,-159.347473938859,243.60835477576,292.767531961754,199.38157733854,287.495940015945,317.439321557523,383.319132499209,457.36516889998,243.298520317067,329.580836174528,383.11330311709,452.78585296864,506.871410940792,269.788216166807,349.608758037142,425.802959369007,501.66424193805,410.971627457515,491.732281519312,525.603748662567,102.311400630092,1368.0583529246,219.196698491267,778.819961024956,685.226026127525,157.166101581468,375.650809502115,205.33603035096,477.368078242038,240.198415384004,-48.5227398173614,647.830261559352,-47.69566615704,816.624294997766,826.490440372383,-222.450515817631,58.7067809960932,1030.10356768254,-402.427212004845
728.230132708212,730.492366316725,640.667664020603,710.983969594926,710.31074678738,584.740513616758,640.542899400049,686.106902432609,551.103696632752,601.543465949734,673.0691378445,448.17469468813,514.308792584673,569.144077665672,347.971665757125,-59.4156125183463,154.488571628389,16.7107443147336,-285.385992293931,206.195847598347,-341.471809579239,284.261584150095,176.193911660603,-576.399026807242,483.842936252163,182.938713584224,413.304772917608,479.790969915687,410.230362846917,450.470753092632,492.161911441549,545.190963408068,614.640818703081,383.109525266034,484.960820177084,547.82025972373,613.831501402255,669.028683068004,415.161509062365,519.659170350322,605.56897216388,679.473634706643,595.519205187874,678.056637583612,714.185731789133,-100.252055566376,1676.21278047698,124.92168269396,1007.42003525691,865.631016800944,-188.783246290274,478.064235197502,-175.172190867042,372.726175493723,411.554984432766,64.3976583344604,412.256797339722,315.681249133619,582.310756206411,542.677571646571,170.618176543496,531.902844495978,704.165313722859,176.369929356029
851.614068655826,843.735961673035,754.975571260489,822.17631850131,801.727267184608,718.622745063399,763.502692026138,801.3259929181,718.860234386978,768.089877301182,787.776627479319,639.730291676264,740.463524936883,742.253430928987,687.996081047815,471.781497355929,592.276960386337,600.107047835531,586.015172083666,751.681779296184,654.295596063711,649.623117384383,803.780997189602,387.160597749221,831.453709667733,626.207329303232,662.452900353394,731.883198578965,651.221981265308,651.890115806169,665.374378296885,671.21019797878,679.857000504685,530.133348194437,634.240267887029,681.269919306509,700.374396707758,701.915776257761,557.05942957861,658.687620936959,706.264479157317,732.154578168293,699.992637006611,764.927979904414,765.839657369787,-308.822256449438,1660.49345699282,-38.5422964162797,921.248096864387,785.690989694054,-570.71407219508,318.058261009499,-589.05525371418,89.4480182940468,310.61095597035,-125.252761032532,121.880069745274,432.985829443889,274.572508266712,248.606421396385,464.612719478807,786.891114801231,400.116767587456,683.468947409872
913.313811974428,900.959607386046,829.634983568538,882.535006520949,841.373186496836,808.989609001059,846.397640214576,872.074436922675,839.199859164377,884.322908624298,865.746008174739,788.844418317141,908.390533530574,882.157149269932,954.296203670782,924.9957781101,955.4620953794,1106.01105808542,1294.05706136389,1202.28251302301,1385.73342630181,985.067592943819,1259.50308014908,1216.47261595708,1102.52891851052,973.833016092182,853.504080250932,922.945522817562,802.909404092292,779.883073047548,759.726185615149,709.890017583631,649.955847105362,605.186127762414,704.791105000909,726.707954794732,691.465676466893,617.37888075007,619.596697139162,706.376504628493,703.48248671887,677.401054273613,702.02041418178,743.977316027183,696.03374684539,-437.336917782,1243.97596481193,-224.596321730649,484.630110550134,439.262892481731,-753.355141074292,10.3841197087001,-764.775583893963,-249.037940489763,-63.4046120946394,-420.685094543588,-66.4274698585427,266.879619467773,72.1846363749157,72.8502335186441,489.691093220976,705.691855586193,212.984218221657,858.227535893296
930.328196914787,926.400106966664,856.562472478502,905.878540306732,871.663545845111,844.724937469697,887.87502091039,915.763712538778,888.866759639933,936.561264646934,930.581024611468,836.07776336749,973.567135009395,971.449928107662,1021.56504774553,1095.44354981298,1071.80879891139,1290.87789805399,1550.79204924,1341.68819384097,1567.66115043359,1090.46457545161,1368.11996572835,1593.8367161872,1146.91110408383,1149.00460088487,891.236982313815,965.602336154087,868.3564034926,799.487406514255,788.776928964539,733.364404974828,687.021153254544,613.465281510821,716.539309080404,732.894144876515,697.272516014256,597.004861305129,623.564652584739,709.482602739485,706.286001103921,669.699781361038,706.644523679558,736.182188248604,672.763231013969,-503.95264072561,617.506869865942,-424.530741123566,-36.0986706129618,-58.0692881596359,-723.651568828701,-224.385446709261,-633.225598675123,-451.972962693936,-391.777856011587,-532.973349681348,-65.8431657970857,63.0694677019112,78.6617496626421,67.2972239357625,320.71435257345,470.118626997127,158.135454611826,764.783332655493
922.378308710294,924.587325150359,839.911302750754,885.896737066941,870.879594327584,830.939388075767,867.647440418646,903.179297091257,862.345793543486,898.529598732795,926.550577857543,790.138852654261,924.218721243469,947.018161707183,907.417631312773,1005.68616760132,969.300801458355,1171.53143506465,1398.92267362208,1155.79899212701,1379.11868592424,924.225339334885,1140.0790512185,1563.77095024969,953.855017425194,1131.82410285944,782.777390530629,845.629887211535,863.341353493572,733.32203056838,763.023439697062,769.201186265233,818.895193964587,583.875595306733,693.390089542989,734.878707323477,753.647811054716,704.476154099916,601.615146854385,705.706312628233,752.704424479822,744.741119235988,745.301171411734,783.250432144757,749.611460577651,-615.735989088114,70.5174884040376,-692.6789068758,-350.469483325262,-537.961065254734,-672.091393289119,-321.353511471769,-399.976049231718,-476.167432459316,-429.841778847168,-447.48887230113,39.127216330959,34.8190753710058,220.384750785739,207.184276530466,200.729680290548,343.431458957333,250.785599737775,630.809936714766
895.656143349121,900.44382816869,791.858593392481,829.102953362518,815.820043471361,766.686840131447,778.820871158596,815.118350057133,755.704687528475,771.748215569673,810.200230726433,670.130463138791,769.302205424756,781.848634923201,686.277750462972,763.431700012672,727.898415749749,891.363097097431,1005.31878051936,781.466199972196,1029.14580059153,592.715492854937,709.448781435047,1264.76414945781,623.438462224615,910.082372946102,578.787369503232,610.492405041801,736.23494528061,592.139540422229,644.845023653822,727.715495592231,867.299426120639,502.138055729248,603.543552992592,678.493928761122,754.763207594835,785.081256689384,529.005915031597,650.687288736465,743.68823068763,773.531389851132,726.817727232938,791.808369940362,798.580933178753,-782.360371325343,-201.649901655433,-973.888658124991,-417.062122870227,-800.803549148938,-684.794972490273,-341.022195693722,-262.759047056967,-403.048614322669,-275.226846083018,-325.521162400305,105.651792473923,166.951711057374,332.361347226434,447.691192468771,308.951743135395,393.240071776042,482.164687941982,639.99711492675
864.460040410968,878.625134282634,739.753160571327,773.733461044246,745.484532389511,677.261097098545,673.40682080186,703.331648293453,618.04140603792,628.455181805325,646.296488492762,523.097876614379,586.48772427533,567.459293258481,462.533314044671,519.218429927095,438.392571470566,607.943979092569,577.778406685862,431.781477813555,593.976744094186,289.838915788919,287.184311464181,786.774005020872,322.643578256149,550.001021171608,364.894768152609,363.102085877935,479.360924007105,415.959999898144,450.852953113277,554.023347560641,723.465962893051,374.776682373384,449.477678277766,533.142756643456,632.233473073092,706.558180682812,406.319365081085,521.353277110378,627.544198701364,679.422632665503,616.252614090705,702.551194865046,730.754212785685,-890.6238227157,-217.585800937692,-1057.87046088292,-419.297601500057,-803.272050099621,-664.666357972043,-398.663560672502,-236.495618689765,-331.251020412306,-232.284658828942,-326.520877335298,45.5490624972066,214.432335560241,280.00165381771,637.098421644268,507.817488601544,383.892625161061,672.58147229231,763.730947667834
862.957908799121,890.73164108131,731.342484295703,763.217266064902,720.4698236323,638.261356766492,636.380194315903,652.977615581378,556.740610858388,562.195610473782,544.007044903966,453.684112166401,500.679826967175,446.193479081481,370.309009657803,432.00273858887,265.631889274033,480.996339747976,340.775571625828,319.773039138343,259.329752247558,218.58395963924,115.802697505346,336.960412553581,230.372230579994,269.075574197499,267.276536798933,249.659252115572,243.67120648422,319.996728598113,317.09436664636,357.507377284946,503.400507788971,294.350145969465,340.267548793914,399.757169692686,478.021786548145,545.248753805114,326.438561301824,414.673357292573,505.284688303789,554.313002695766,518.758426084823,591.301020467158,627.812693210436,-889.385482872482,-189.970891325443,-903.832133704969,-516.623151495634,-757.655708075153,-563.653267171043,-622.297070846836,-257.03098013871,-329.02271165621,-483.930403845269,-595.65094361851,-124.001030962925,-93.0570880531058,64.1488194572008,570.82387087507,456.302539279235,53.7224651362518,603.765006967344,771.305906185974
877.327609929719,911.988901208536,756.367600715698,776.446776584649,725.402392571708,665.133541302714,659.662010424262,658.372468970813,586.405615470482,562.612822582238,509.598827249548,490.886012139632,522.269506234367,435.454589111194,440.46131829717,500.072657911818,310.657830257429,539.777251696872,351.918374560677,462.547183303141,251.134899199527,383.664160217913,273.733836317371,171.858739727848,343.806423723203,268.563939188255,312.173002139776,326.344091571013,194.786608289972,357.007903283432,338.979441305236,276.970755926653,355.421164439147,318.210545273982,356.570473941243,382.210804110257,405.814408499257,436.957921145071,350.047225651754,420.747284288515,474.233098509512,503.634998383777,516.542122493464,543.633136595611,591.444840828534,-834.301520284077,-268.624653535705,-754.891565314716,-666.291735370215,-832.818551215611,-454.802695470338,-951.99580861489,-262.33161302126,-365.522704217381,-871.71988914015,-1033.996697926,-263.829858352581,-636.631908569102,-162.162695222705,273.190986573323,74.4101443477519,-427.140724835679,309.952288841201,550.643078734218
800.982768952696,831.867162079287,698.065259580486,702.615987400145,655.219961208287,632.162240183217,602.481622936042,587.898702838004,558.893274067908,495.898120119943,429.923862387831,496.396592534202,491.151743620602,390.496674068728,517.900351784142,522.211628538747,432.720605929703,593.812515449597,378.513427482343,606.08575006891,433.347193611254,507.31437744191,502.050749574627,239.196259510083,385.606923775451,435.92858953522,324.079962978331,416.129567535012,279.407815900119,384.868108251337,400.989232435451,284.249671552304,275.334455061418,340.429012649496,397.532617249906,414.323156714902,384.829154558009,377.417484203579,379.841091581472,457.735543881322,485.415329503936,492.460214331562,544.771092731111,529.065529848836,587.747751082104,-746.290611103195,-300.103448524911,-719.716418223722,-661.439771773909,-828.372997382403,-346.235282676693,-1024.58754153385,-187.095601341508,-292.152316563473,-945.10848146735,-1107.45974486627,-212.15275026364,-810.166968686157,-238.353467167361,48.7863583204328,-247.258716643378,-522.143442984204,39.30820756233,329.022284410055
600.509809708058,618.111108138065,514.30659693675,509.874438348219,485.426594402687,471.413745278834,416.276758211927,394.720102811572,402.041464730646,321.68570955195,274.906334487513,381.172434208077,331.828698436354,248.855954357508,467.762414369507,393.90489365603,432.213211981748,488.483915855911,256.105016331128,531.744793928227,470.859118318258,377.726288575512,483.751919358466,322.800424014593,157.11974417162,482.924080175802,165.492053091021,307.040494365385,339.547008897771,265.498130061309,353.570395186092,288.770221376384,230.462527928576,255.886361823986,337.072970558405,387.519491266356,351.620275470122,324.13588298742,315.886597041876,415.777954385178,464.404967849715,460.279413939073,527.684304952928,497.946873178333,555.655362041476,-598.19745342692,-54.1394998187329,-631.123220733644,-389.397364038943,-400.008126328692,-178.749874817075,-530.760470363177,-31.2671109790505,-31.109716856501,-401.112566148704,-354.783667784422,38.0442385884428,-173.1043572656,-132.711921403716,130.736100522476,-78.445583462464,18.6102125548726,-16.0428293436904,416.772527236564
423.478642701141,427.489305065531,350.098221096468,348.951523329313,355.888724239884,316.219776042591,261.412764183503,238.403709295288,259.401668383361,193.959484604752,180.186419455182,260.936746991915,198.301673358291,154.21933756715,342.874791015371,261.099158618412,321.242356050793,308.546255548096,180.66193711362,311.857456468452,354.998994095883,129.605676269508,256.824318817874,430.535707729212,-159.352187695091,351.217276567102,-45.9543069815274,60.4293481049316,341.534687028424,83.5603381688403,237.220802605328,292.707776235381,252.170692876652,132.022639895697,219.373809715951,326.354302056228,335.83574967723,318.628315075666,215.815360268387,337.984319261896,429.681198144127,438.747196182628,488.442082607259,472.594956032437,525.029182006227,-437.423942473264,352.381741137625,-442.810364826293,-50.2866170646716,393.700450157173,-8.23794809399459,301.717090033356,98.9094642873572,245.378405970941,435.772738548238,913.637184563191,293.995870732345,901.94033130746,45.1294672153383,368.274168021227,489.645299672061,820.920134729322,105.424783049186,811.954490708891
383.648230753817,395.48638252725,314.659869496433,332.570148860252,366.986298143488,278.690450223323,251.414244387208,245.14370160196,239.887063628269,214.230491356653,225.880689243872,236.030664042277,204.433810717573,202.146720720719,232.379261330077,234.56460809804,213.868660417967,178.438596722317,291.285158051694,115.061094495943,275.925357556207,-26.6383754052687,79.735540728308,555.427896108004,-292.146120440347,182.24889338979,-143.377240086341,-96.2532246641396,294.693549280218,-9.29150839743158,157.229034720384,294.007743525228,300.513343270474,70.6933668923262,144.876301605359,286.351440648659,347.267861343657,360.399291868681,164.349206430517,297.259256287775,405.42242694677,444.332324540885,457.901508693623,465.581829541626,523.662822209332,-329.374087105934,584.678165541736,-291.573283735329,82.806947604153,1074.51575649166,75.6191775556062,882.132227599109,125.394279813381,320.83068786144,911.259633869477,1833.84535811941,344.204402588103,1597.77346424654,92.7193673635471,407.452878659891,961.743443203131,1332.67682513973,160.663638565542,1195.2530839868
390.951122536338,437.678855938678,317.782320804034,362.606395935829,424.797908059997,274.194186103113,282.298620818236,317.565125337206,243.956839121685,271.279125453204,307.684994815035,215.460756089713,234.654089966845,277.043936315483,109.584247113485,202.843658004661,96.9303161506608,65.7360279951766,349.690353796764,-39.418478651763,209.77079386466,-111.934748551174,38.6896751445301,459.174645244184,-239.3642334902,58.0976903123025,-132.40101801769,-79.4691803634331,176.194978616191,-0.260566055149565,123.22744897274,244.425195430579,287.364282250379,66.951104713501,125.024382313092,252.338101345426,330.23592077706,363.802631078849,150.560075146756,274.099278247478,370.777402253055,425.75810620624,421.419390728819,443.786265367905,512.646691500439,-210.258188457009,546.545102689236,-164.560563869064,51.1092425951663,1300.44511160666,131.780245829588,922.60683699027,101.187890271127,240.745393663317,833.166877774229,1887.5919315186,150.497229060592,1525.64062192509,-143.560996155298,105.603480405054,1024.28985080941,1347.98288661062,-83.4771913365058,1267.94833885346
292.827777688235,374.583371087563,223.887694489472,286.610300846885,374.540778512366,173.965776707179,209.576956204491,292.398435916685,138.665732159797,218.785669257916,296.251343761203,79.5381645715672,139.504056030678,241.35804256476,-93.7607031663878,27.5916491096652,-115.860776957321,-131.318349866489,144.415841950544,-222.336853485762,18.8990442894879,-268.859978233724,11.8993606121958,85.8462955162956,-176.491490704435,-21.8512686228926,-115.781441956422,-2.24098871406994,43.1617243583348,25.5898960890374,99.7391688733337,161.560505165389,242.730238093719,65.9586257046561,115.362879050871,203.234906039149,272.459853790522,312.639126265206,128.386338371428,225.628971144979,313.463572736704,363.396829794913,357.403092340978,383.052357761606,456.403426749109,-23.9108988981329,343.687709343718,22.4874213746924,42.8093131247452,1142.40083301184,206.721337223863,628.610588459952,79.5355503738034,165.505361831232,535.509816639533,1296.22973296918,-178.449209345157,928.516307639361,-585.140170748854,-399.932460155531,744.152453303886,993.33066286148,-617.23081375673,984.972869462721
