-2.68236820301385,2.89985751677173,2.02990026174021,7.24964379192932,7.03215447817144,7.10465091609073,7.4671331056872,8.4820832365573,12.9768623875535,11.7444229429255,12.3243944462798,12.4693873221184,14.8617697734551,13.3393445771499,28.0561214747665,-0.507475065435052,17.3266486627111,21.8939242516265,6.01720434730133,21.8214278137072,16.7466771593567,16.7466771593567,22.9088743824966,6.01720434730133,17.1091593489532,25.4462497096719,21.6764349378687,25.0112710821561,23.2713565720931,25.8087318992684,26.7511855922192,24.1413138271246,28.1286179126857,22.8363779445773,25.3012568338333,25.4462497096719,27.0411713438963,29.5785466710716,21.5314420620301,24.6487888925597,28.926078729798,27.69363928517,26.6786891542999,21.5314420620301,26.7511855922192,-25.5912425855105,45.9627416408319,6.95965804025214,-15.8767199043252,21.5314420620301,-6.59717585065568,-18.7765774210969,7.82961529528366,-13.7743232046657,-37.9156370317903,-1.30493588254728,16.8916700351953,-13.1218552633921,39.9455372935305,-10.9469621258133,-3.84231120972254,33.9283329462292,6.81466516441356,23.4163494479317
-15.0476619445137,14.9197007700561,8.25439811387661,35.6318338529965,36.0497807791313,33.3489243306047,37.3162836265212,43.7271204779173,63.1698376252041,58.9893586479252,63.1912389589805,60.181908513264,74.5785590606359,69.0946007449415,133.923117177498,1.72433935281391,82.7945241393551,106.061064250852,31.5963477515562,104.629623737979,81.2025155933943,80.9850262796364,107.034668258301,29.3489581760581,81.9075351829427,121.249349438809,106.696500490744,120.345328781015,112.306963436765,124.346751479694,129.833622883651,118.31979815167,136.876982886677,111.837921406487,123.098736877816,124.439192707257,132.587030980453,144.554322585463,106.588484105931,122.177684518642,139.210987513211,134.378040594659,130.504579070438,106.298498354254,131.501040955795,-124.764698405828,211.494984698401,19.466584741126,-76.4946167610357,62.728139164759,-33.9133206767099,-104.971151422,50.8531727277844,-81.3080657181446,-189.550858999033,-28.0858152451329,74.785852565471,-78.1396237834722,185.263373352872,-68.7622591539124,-30.773562796473,151.057153836222,9.93403142680481,105.02034315381
-49.7713722472817,18.5529599644958,-1.40334850932523,58.1895703113623,65.0477229091341,50.8247086660112,64.9320639879822,82.750821391401,115.868944078209,112.710727057542,125.013279102316,107.556568581236,143.702248979784,139.26413589044,247.999762279537,3.97022599768381,149.620680884628,197.445344034104,57.3142628130873,190.538278268152,146.874549748014,147.292496674149,185.477251545686,44.2580680951563,145.647170462058,219.176906876642,204.248031895338,221.592507021566,208.313873188338,232.636163889735,244.795870129078,225.536718355003,261.043254302457,213.663394252797,233.304607429963,238.372440939804,255.203034654926,277.368920464258,207.202988572497,238.267006932658,264.537532646297,256.180973429217,253.011875833822,206.841962927033,256.187559863129,-252.398682437141,350.921984207958,-28.3258611920864,-177.239061626772,-29.6219370141723,-86.6991935247114,-264.541171847995,128.796406204158,-219.510166190288,-394.041883049209,-141.49718722096,107.740394573134,-209.966442216667,314.35100479231,-204.216592217871,-109.844829068474,242.550563292551,-85.8218442742929,167.299180259953
-123.003101820199,-36.9803107176711,-63.8119747444985,4.64632615388504,24.0542652511653,-0.488027151762937,21.4246824262741,50.6777269056298,82.6240096129974,85.5602181816117,104.667647796263,68.963852166372,116.875910813652,122.566379474297,206.843985389136,-23.7414104325303,108.667666929605,157.621632546511,20.0946434601215,141.178891286667,97.5016523370267,103.707336993525,115.576899891418,-13.4480823178407,93.0252699524792,158.761835065625,175.806196414077,170.994245080768,164.231539237573,195.794412941525,204.963918666115,190.470604557613,227.703438404549,187.377497876019,199.812314163294,208.720155586391,225.922678682988,245.108646918414,186.330847224262,214.800690531931,237.817805715217,226.435721216459,233.671260111755,186.333029160222,236.358973056329,-280.275585295422,141.216929425301,-202.020528039298,-309.136456406176,-363.732103254635,-151.63313885244,-414.620645606446,155.698525415981,-359.980863872058,-452.605598200816,-336.532529954259,1.74808775233725,-336.794025156563,166.647785429681,-377.798102421295,-225.053920455959,124.282193489708,-366.694141098809,69.1953662268493
-218.647707438982,-155.182389180604,-159.900330425907,-118.611205799251,-95.2081183532053,-101.987664656365,-91.5274312262844,-59.6116913496699,-26.7944674256845,-26.3169747288937,-10.7642291587145,-39.9535231616311,-6.78755680504066,1.92514377646058,41.2096437359158,-96.6776910666405,-15.5325469958196,4.3518934098307,-86.1834073155306,-16.9449313410755,-50.7781485878506,-30.8413330913602,-60.3976146178205,-135.868468507686,-51.5572248935237,-30.3509973407576,33.7735903766923,-6.33982544091615,-1.29436754388838,38.1954991932538,26.9954430558642,21.8766741057351,47.8166576779127,49.6898097629385,39.5239107577695,43.2072027108599,50.3901696912756,56.9183786234845,47.7561346134933,52.0845646543587,71.816775643276,55.2780645069871,74.6704238400596,40.3260697366713,69.9791688338932,-195.953716184748,-399.686184967439,-384.162106063414,-481.838360736132,-678.088993156279,-178.970532317013,-479.469167992451,78.455668141074,-388.012124768638,-355.609932059319,-446.430880776296,-165.057358584913,-359.739269774857,-188.200861898028,-465.42145234987,-286.111125462562,-95.9300609348255,-679.531649708198,-123.937950909011
-273.627677198951,-252.702932525518,-215.025677801195,-210.962323817434,-203.819695657659,-166.14145550541,-182.056349236602,-160.453120313705,-110.923144827627,-127.060261152686,-128.362352692503,-116.918120282992,-112.388239193799,-118.635047410729,-69.3631103113261,-175.431426222626,-89.1224900093758,-108.528968199094,-184.661811326142,-116.095959724373,-157.714483494327,-119.569260147151,-161.740552679906,-231.613718857491,-142.03158286454,-156.758825311115,-64.5760136692746,-125.305671625667,-120.150700651832,-67.562628815175,-102.056477367705,-106.521440982269,-91.7194767867775,-44.0082601129201,-74.2218494686587,-88.7944419180753,-91.0836569733803,-90.467231876486,-60.7549794106758,-80.3528001810982,-64.5479608747577,-85.7360825126719,-64.1523085289286,-94.8501554246983,-77.3828088217831,-74.0479968628596,-885.676325702337,-358.976458005346,-608.540802647324,-658.429340372183,-94.8935905115573,-438.2704927768,4.13908086621516,-253.532144070143,-269.644022569713,-329.989313042795,-183.727469122712,-272.392475357076,-377.635443421395,-357.355276378138,-218.311999218895,-174.649444821655,-724.046854640612,-214.359625965956
-246.300574584586,-263.101093494771,-202.425388707894,-223.702841689425,-242.434956471569,-169.955110903599,-204.872477528442,-205.657753351358,-141.381057530397,-174.524420606968,-201.376638956759,-141.579884371404,-157.453999657687,-182.181962560662,-102.998465026102,-223.886917643778,-85.7378979464387,-146.788974461342,-231.433662931617,-120.633897346621,-183.910155888702,-129.387960034885,-163.575556136532,-263.635067291375,-148.937286070674,-179.572722022549,-80.7678053579291,-146.090232811856,-152.026160995115,-92.5852194422287,-135.18602448584,-144.00336600242,-138.23450011328,-66.7881597229171,-104.128391405762,-136.912515150879,-141.879392979698,-140.48885511734,-94.4885731866758,-126.458143400548,-126.897976632097,-149.6596681598,-132.061673750022,-167.313573883743,-147.147972827588,97.8127795169978,-1047.55233112246,-112.500240962265,-528.540751656543,-366.141927882659,94.8698549772675,-262.107669434747,48.4596526895122,-31.8276452030937,-199.938049629321,-77.3578034442019,-46.237493332637,-144.99105716204,-274.656180529679,-104.684934445236,-59.4690987336691,-151.027993053732,-420.61283090329,-177.276240698483
-159.598763093865,-203.323746855296,-151.077392762552,-187.045674974829,-223.749064682184,-144.866128270838,-185.63001245586,-211.476610376582,-149.126576271928,-188.282521752237,-237.359066876687,-152.324195207769,-172.202675614859,-204.993424181498,-140.165405426795,-235.878666951764,-62.4927985804684,-163.257692386967,-237.411700764631,-105.843295751163,-179.898368662716,-117.012716794238,-150.218662052654,-259.416479474906,-140.740508763546,-178.009698727326,-82.336920832715,-148.600763116699,-161.752760481394,-109.280243952846,-148.821479753578,-159.57647941142,-162.22300756076,-84.1007749083575,-122.901738122566,-158.343541321849,-166.326568710572,-168.915445082451,-107.129729905138,-148.159500689606,-169.480254088941,-191.526533680722,-175.21140645398,-211.788769189991,-190.934093118642,341.076597556845,-870.260111456788,170.052063449707,-226.1171591994,-19.5755086808492,300.660124208721,41.5026308801128,184.053342121473,154.756872482946,-60.0841229065663,147.728956462654,78.1367241780997,-23.8370554717497,-83.5842756677958,101.167169345535,74.1079861393314,-189.01667942148,5.26379330505097,-102.380600435728
-61.8726359205063,-123.619802296565,-81.6851797856969,-128.167747315679,-168.76264616431,-100.908117888962,-141.916206932099,-180.622610270082,-132.90157750936,-166.812091995762,-222.416603282094,-147.481469164738,-156.654907066204,-184.915190339031,-181.231205123115,-209.119719636961,-43.196771480502,-161.641292248581,-209.444390578303,-97.4440021132472,-161.721852373687,-103.997315574801,-137.646590294611,-225.284271834061,-141.835719925946,-167.205088148755,-88.8439680879726,-153.601644463269,-153.156879774577,-123.892638967005,-157.549849538147,-166.251167351659,-176.236598376366,-97.4149832604897,-138.771911172197,-162.789331578097,-179.242908216959,-191.119496231334,-110.503721577996,-158.447287710183,-197.621344856582,-215.400567258249,-199.070785506183,-235.540292491214,-222.290556622685,549.516584612153,-500.943953992866,352.549979723966,115.633934397494,274.491103150863,475.72016134796,338.119687855998,333.29661202545,283.098956671626,95.8872206253758,304.747433573029,142.756430409929,75.3746292230683,21.2149844462727,174.522433253027,113.538477583746,-308.492217730989,308.997545107541,-22.1353363918695
16.8767104073398,-55.0842984817285,-10.4445135541733,-62.4981141493554,-99.4223876853359,-48.2159250887408,-82.7378526246404,-118.185897558842,-89.1797601635313,-111.247916768852,-160.874488560204,-117.398217929057,-109.446095529629,-122.705182982579,-199.085893443963,-159.598125800377,-42.366447938822,-147.384369952803,-160.064418300284,-94.5705062269025,-136.717733342585,-95.8281091747232,-119.706287444172,-165.828832967179,-150.630202310526,-149.539890607735,-98.4324188806814,-158.182626307189,-118.786281124248,-132.212247790888,-150.674636922967,-151.520954010645,-168.464568309879,-99.9067964613977,-140.888480377989,-151.746705194259,-174.655933520682,-192.805677273075,-107.320310137622,-150.914068417289,-203.365112394831,-215.056565802708,-203.255310352021,-239.691367000327,-234.162519768391,602.523131601294,-155.300870910624,439.738500657668,339.767911352789,477.539677320724,621.238920195405,518.539314747325,460.60499200216,442.554166604761,249.407589323615,437.26618651124,270.319800041215,186.390492739412,83.8982648172482,269.702447999203,144.029142061863,-432.496207832756,486.837308748496,54.438534359224
80.8225167561628,7.77566199083689,49.3079784292293,2.125399438508,-34.7031115699287,-2.35301260333112,-21.6575834389211,-47.5351376891001,-34.2941734994421,-40.9622622269447,-86.0751223999671,-70.1968472927121,-52.1708300356764,-49.5037606193684,-191.018369476516,-114.851945961699,-62.895824149802,-138.680547098136,-113.085072266681,-96.8291080836878,-119.889227347363,-89.8494262664098,-102.060597678118,-114.83113374464,-149.21705552094,-152.200143557726,-111.183878523758,-161.60167831548,-93.5685066547011,-146.077140626718,-142.983168491922,-133.842091400817,-155.907859966448,-109.073183731351,-143.549649473418,-147.029440256486,-168.809784215737,-184.47125620496,-116.304344231238,-145.129550795255,-195.789692907598,-203.970456061758,-200.944538363598,-228.399994313967,-228.764085880296,536.328983599412,94.4519635276166,518.58201951213,502.709106731744,644.256002071776,727.948399206765,703.157219947687,554.575744691443,685.247370778413,558.917124434393,641.588617788193,526.305959872149,443.093193428862,237.973759920641,537.749140307739,338.337860167037,-398.584702010454,680.919815152024,161.99971263657
147.359273449876,83.975725867635,106.232925643157,73.8191988349899,34.9332813845235,46.0359374666939,43.3996338968406,23.4691788299284,24.5126139479813,37.7384306097545,-6.53750511444983,-9.09230301015957,6.81441714731708,17.7664006669327,-140.698501737583,-80.8840534533609,-63.5803558615397,-107.854440791862,-73.4518162138853,-71.4012925740338,-93.9237254950948,-52.2559783584993,-55.0378832574631,-83.9424050685527,-91.6190819958766,-140.906929952427,-95.0726458183543,-120.499866702403,-78.5814611751449,-131.442384966689,-120.023653075194,-109.718103438914,-131.763817405043,-104.435906579159,-127.879002164978,-128.049829804608,-145.550731871557,-151.860443865603,-113.513395194527,-127.856150513391,-160.152121490134,-165.453571042361,-167.51563526314,-175.870302978497,-184.61176363653,451.183499661688,349.671804093718,647.856975297473,716.730093859852,901.715631587605,775.893779568227,1040.7303019685,581.727057357911,892.654408354523,1027.00698401013,990.611538286927,767.478165309286,882.999636553129,462.099928707096,841.195362994033,709.118868357508,-50.4081650747124,886.036390895108,389.043419021717
208.844572584271,158.429589523379,160.855944344145,144.059174396079,111.122752878807,102.885111503692,108.579756272697,88.5430870129937,78.2704067117112,107.380605482957,72.463834805076,55.619528684799,62.2542442038968,75.8023332713484,-37.2984766081322,-48.9575503141794,-8.23033250629688,-24.9570495237288,-32.2041406602955,8.13231046876358,-32.5487436208528,34.4902637799082,41.3923833219906,-36.0040137770843,24.7260716777212,-53.2220675498746,-29.3618885671925,-11.526092120582,-31.9928269316889,-55.3499629482967,-50.5053578413568,-51.8554840379194,-71.2540916268329,-52.7383730998761,-61.5517374499871,-59.3976090222853,-73.4940610163415,-72.8818539455137,-59.0477537194432,-65.5104526725904,-80.990900612493,-79.8917549929377,-77.3252713018664,-71.0031904227989,-87.8381409575854,350.323281444553,652.378892519109,740.363859518188,923.461048648011,1207.97517568121,717.745955632537,1386.40509734155,467.988630639008,871.612653539785,1337.9550132597,1346.97448465205,783.767698163807,1266.29551327062,543.808192984457,912.911381235775,1020.54544469915,496.53676314374,930.114351500416,672.606777241108
222.249134744587,176.865226687248,174.733433679954,166.332969554764,145.673863557165,131.778296194915,131.030744305738,110.791220774288,92.0652008367975,117.098601357253,107.044048435085,90.240058133639,75.891019347989,90.5740918226322,77.682883391767,-27.3480458752947,74.8248672655077,67.4038742924598,-3.25115241442984,100.722950674824,40.2836421926229,131.195917309512,136.74333593624,41.6444689840805,130.439087104819,73.1059551283678,46.5045006089875,101.26020507792,40.0853715781162,38.0963659384188,38.4191800494114,21.9711919518148,-2.67244039381258,21.0153031923032,25.624351414025,27.9675379856632,15.0990714537017,10.865953082613,22.156313846026,18.2511551097363,2.30653280419657,9.14526797507758,20.1142056946668,29.8573288680182,8.14215948223021,202.583929308624,905.175766837553,628.326168619784,1002.50846912377,1339.73542509435,504.18573526682,1462.34579660076,177.457767633826,627.7935208033,1295.95075302801,1495.16519644005,540.629015435303,1387.30433054841,338.96631420358,718.537804238553,1067.70877670131,943.730294338005,712.960070623903,786.708165385048
157.932191033392,112.624457834441,117.885865304806,110.31583290427,103.061570676861,97.0221610056292,79.3745701070376,65.4219668530247,44.3285000040497,48.4783617799143,68.3487394550723,71.0397812931297,16.062622981981,29.4467376154151,135.480425428277,-40.555087810187,113.943523676453,90.7713230899279,-17.0854592584513,129.459221798163,62.7171684732008,174.5450773907,162.429469206591,94.8782882776463,160.202047166324,132.015912751158,75.2207206165292,138.752969404871,77.4546941143203,76.3295516675969,77.9551873673692,55.7067875275453,16.327392965739,55.2554447768721,64.4183266719898,67.00771421268,52.6909512373257,34.3541862089264,61.8016043569396,61.6390268602567,36.8811869837345,40.2958079692529,56.1652350585658,67.1193553255008,38.2622096909167,3.28402393470211,1028.00712659437,295.399579678891,949.761557347955,1202.25818735961,156.71598266269,1225.5932736632,-207.202300051551,388.052579818445,1103.21871746793,1470.51244801266,179.254536266974,1380.69861422984,-17.4649838563344,458.772058741151,956.007596791152,1209.66217958369,328.551922185501,709.227477463197
83.7759679854025,42.3994887962948,53.1827200728133,43.3219300770684,51.0793019386871,47.8711916397957,17.9487346873566,13.4270607459694,-5.97010011159886,-19.0185325374138,20.1812395664946,41.2559037493245,-55.3119751445899,-52.0256729244865,127.046416510607,-70.4184924028633,91.7151095439304,38.4060878231285,-50.0858389286626,80.0711478413413,21.0017089683822,150.286737191353,121.528149759244,98.6223325276959,127.959145369807,113.429317331311,62.0545957990873,115.727395885189,73.404318268604,66.485423568488,68.4815591811166,55.0267332688599,10.1960759068705,47.468852437098,57.5448172319834,66.2201730441911,51.0500491089135,26.4017934004489,57.8164320921665,68.2807028010712,50.8113661950184,44.0445457484515,65.7183604002671,80.8782450640183,42.0933622051106,-238.515884117178,1050.51473157349,-53.0969477474312,802.21100573857,933.529782133374,-200.631704736903,875.029622710553,-524.649599951127,318.451859610676,1021.6203500875,1437.87634025365,-106.500563269481,1455.98082351487,-219.646117496538,360.025189508613,972.843706490004,1448.93175836838,38.9886399448738,732.899889067911
115.316757692598,76.1891182051579,86.0698127790348,71.2228737375374,86.0069639381839,78.6365762495817,45.1953175307858,47.0536321568988,25.5634924718336,8.99850127940446,53.5715285481915,74.427063041896,-36.2070831127899,-56.7462252424451,116.02286058415,-57.599972117847,75.7846323469951,-25.7930386217852,-35.9732305169017,18.9024978088179,-40.5700285414516,102.197057085497,70.9314351604345,99.3968753683684,96.7417793822269,102.731674506307,63.4685479555409,109.27172026135,88.9480293543341,79.0929430503311,82.8845648827292,89.3562572012654,64.1637220100176,58.8304062959263,79.0777822678572,98.3121281786709,89.0133475279318,78.2813242530894,77.7553824259399,102.545729582428,110.093073184699,103.579265148375,130.471834849777,151.482668000235,111.125271810175,-434.031991724847,1001.88482518249,-226.730492954612,553.556069785032,668.763220319664,-410.266123968389,584.833468175275,-648.739847621604,375.18833414979,1034.97844243789,1330.3876554476,-155.604110138887,1552.32783845838,-98.2370235772702,519.669266164488,1195.49681143191,1703.62011977988,89.3520333745771,1031.82084066878
252.600260210855,203.003895941257,211.936427748578,185.782279193309,186.602705649793,191.479765456832,152.320730380442,156.031521350715,123.985191962404,108.595062424519,150.65125500257,165.684114078277,63.9584375818921,12.2805026267408,139.021865935179,5.93485905666364,117.561608675771,-60.4029147744624,18.8496102702401,7.51305247808615,-91.564235149476,64.6435449193791,41.4584477089376,113.445440900927,95.256441765311,127.894635558685,99.5945865367889,140.024802616156,141.380684673534,130.170791903171,143.707090940716,169.827784972747,177.170465603175,111.880773342744,146.578775993417,174.493881402535,181.565934839205,192.514665952308,141.444290380539,175.708461554029,202.027501032171,216.063997118489,232.384358308621,264.161773253723,235.220740542856,-458.181064678023,827.216586358651,-239.395472040473,255.005446327312,370.839792899004,-457.58217389267,340.174284383283,-586.555161868744,387.562449199859,934.675458903293,910.843343271762,-17.2574516149165,1427.62904455247,195.42989763767,719.92628635491,1332.86141917462,1817.37210799955,397.822575210872,1359.74826115138
389.598878680402,322.244303006104,332.980081975825,289.38012297223,263.991262119971,303.832114012965,254.763230490383,251.767172716431,209.899077779858,184.242450344574,219.495894388766,246.942515520235,150.049977511819,74.0386426746501,171.188083056134,72.7224288979479,196.51125502801,-60.5983263153156,42.4498243683697,52.4975129195344,-114.168351390017,54.8253264614752,34.7732984606525,101.029335458344,117.520327115926,144.915385438759,148.74249785206,171.488510167613,181.493193760773,178.556800765324,203.312164406299,232.46718290888,259.121661129844,170.418939580662,207.060412136684,238.374863969172,264.357937629924,283.090019900641,203.641020457853,239.682186102336,273.790713417277,310.663057312062,303.700549644386,351.597489904484,335.783018908893,-303.063688501036,534.476914766285,-166.075432411521,47.2392381458014,-24.4608984457945,-467.18630578886,41.1843828244692,-452.417420003514,222.299518417177,566.472314393242,134.261504585402,46.3947590631696,930.477671874613,366.647152695141,575.082845860884,1032.69879017106,1656.8184571863,606.939402604912,1352.38418072422
463.944237484501,390.395396436188,404.466210406577,341.034882445722,296.760021002972,377.929038402036,320.824901231831,298.411432609654,263.964975516821,209.194488756286,229.261341433327,298.909593063584,188.712045332929,101.68690288912,206.445729090873,124.24418592772,290.148048046662,-21.6058805639957,30.1127082110179,135.288219554793,-76.1047402892954,108.927559155037,58.7278599837595,60.9391695488143,171.095042314333,142.536202721694,207.925464461252,198.053323294811,183.776618817876,218.515062562976,236.335093995169,245.638334868169,269.49946403374,217.170363312524,242.382600964835,269.177406232062,297.354928223343,310.78396470835,244.887797407876,277.666158306723,320.800832087095,360.540114636659,343.260130267661,404.109748278965,391.88381195639,-100.988034296283,281.019616817946,-61.9398078529083,-9.4195062863813,-399.648831542048,-484.109430361456,-299.591484302148,-336.982893718332,-75.6252170366091,-22.3545675645757,-716.465247737283,-83.4530456239678,132.943053288288,326.711727642796,93.0750828070881,276.847250545057,1186.96205474234,551.070940846842,905.179978020721
477.285588255207,412.445248754934,434.923891100165,354.830537466906,300.025577442711,420.738251492281,355.77419162974,307.829839982983,303.599573475106,212.139374447683,198.89954529561,340.557894588384,201.408897401009,111.95205926372,259.713215319438,171.176445077797,392.807822349014,49.6717409147386,37.3562437720964,227.818343460761,9.35597552178783,227.224713497483,100.481118687353,32.169233910413,247.340038652047,130.821234530582,270.760467046748,225.918575236026,157.108158841113,258.989272114223,243.798776866879,223.122191480373,232.685793810482,252.362604107749,264.496127819835,276.059215131987,282.792667444819,291.453779913833,269.333053088751,292.299835888385,334.661321573365,361.488283556776,354.678427829482,420.195238094462,404.221104464397,-53.2580253740079,154.581397697144,-97.8897741560131,-12.9760845352046,-580.031469655947,-497.430934790791,-578.300634714953,-270.197458734946,-342.284348426112,-599.401248931525,-1291.19305582046,-239.763411332409,-707.348772519998,239.94720352652,-275.060580855633,-612.293046468402,386.37801278474,421.135215817039,117.98351003444
432.435235706645,378.207173483407,409.412401035855,324.446595043542,260.748966160431,405.889305488256,335.302813946049,270.738219169053,301.762617320558,188.69033787981,129.066490688524,343.495025956675,177.086505575415,94.3711642691397,290.360368767982,197.951305102259,457.87647583896,117.012015191933,59.6637597408477,278.163008558694,70.5163065326026,323.906274163945,104.433017270465,14.4600275831028,282.378185951906,78.4156455523676,285.805485857733,210.431473362904,89.6237812045753,254.613732673931,199.963622919402,158.629137306904,153.967563759062,241.013709839082,242.120617457323,231.150276728731,214.249811417434,217.173533704739,245.971446582544,251.89124565695,273.399744936885,287.860190848304,294.662128715461,359.964399587042,340.482914951761,-238.678742246429,65.4376270299516,-357.928884777259,-60.5601505142626,-627.668882384166,-553.003469037839,-792.312501622313,-263.614914037108,-481.048598998711,-955.616770811361,-1542.95956800852,-270.977675121344,-1348.80452328221,226.233448083221,-289.765340915937,-1293.69049535235,-685.949415894489,402.398676075854,-867.580296921698
353.023274013676,319.382232323642,335.389767663612,266.339828069748,207.462931736706,331.510764949025,271.740177538237,212.566988354177,247.850750551329,144.564214310251,57.9047266694348,283.259943204547,120.35521234266,66.244215319706,259.91714466885,193.141547768696,455.901831283271,167.542184129135,75.743652669292,273.995569736701,112.969038908781,344.7005051017,68.3995467880352,20.8378374753448,258.471698717428,3.76815693652512,247.673004506843,149.90117992354,7.04025477115895,196.410155465148,122.163870878403,77.9156910618146,68.3139022745363,185.011215046406,175.933637843858,147.01322911465,129.651897169625,120.78547220174,180.596597550844,172.89016084709,174.052819223549,184.51777660965,193.829169192297,259.015766616129,239.244915991323,-432.592603037912,-25.0051843266936,-565.781256924139,-138.847389144699,-726.743282191324,-613.654543098927,-1040.67507718646,-309.842541162836,-536.605657147459,-1130.97244189791,-1700.44232359772,-276.697351796605,-1779.31229565454,165.747828878389,-236.715033601922,-1664.80867205546,-1771.00738903683,366.439873829503,-1821.09796686719
262.248699624159,276.553278562317,245.352969825641,214.461927553523,184.904647885901,241.806810817219,213.735921205265,182.235425422539,172.026683655342,108.405497057036,36.5582163140464,185.058907083343,68.4864942942255,65.2678807090907,191.302348791207,163.338510860852,412.421343494409,216.807614864379,114.338179504206,256.738087765922,217.819712951338,319.683665306501,65.194028213342,112.121272643373,236.885148441499,2.84415474438779,217.54971425973,124.252296582337,-13.3053925170641,155.338602094716,90.3545985036643,51.9247638123303,48.5575614240411,149.955453718204,136.134221579934,105.310958171583,104.154920749234,84.7524467078472,141.215197134274,134.183342104489,130.389002702362,143.474029503921,144.943748772116,210.092896405826,195.904091192142,-399.643096511786,-60.2691031351964,-509.327697419721,-245.850571208304,-868.537729051154,-622.18994531205,-1330.1042634486,-425.148554873718,-676.154967584824,-1328.58604843203,-1920.3629492171,-509.5637193763,-2130.08944765773,-144.798501325114,-516.111755727241,-1826.64988354839,-2543.38567035639,7.44254016340175,-2411.57081820109
129.486142677847,194.056211120776,120.598007448715,131.399645621952,135.849905544658,128.990905299192,132.527958116176,132.214959426348,62.9692647842399,47.4548475857496,9.73581584009524,53.1629992627003,4.34700141372279,48.229391963414,84.3398202004417,83.3545507135448,308.701618662042,220.678798997492,158.657627619617,206.706070521183,344.870913694679,242.429140662999,87.2406613919752,265.448276906078,210.564697149624,72.2996973391579,182.942178328631,130.079375706974,18.0627846363726,132.313063280136,95.1608729306544,60.1244681280154,54.1574384383077,128.054336856951,118.756653677458,97.7957953862536,100.980804481613,75.0620457810816,117.957735238001,121.309229990781,117.464105129766,130.721519970813,126.581180380405,185.077510354223,178.214610399598,-254.623765456203,-82.040587677315,-411.962875940728,-423.95142769011,-935.73543768334,-675.316041885323,-1510.07473377366,-612.575321560132,-1003.0058816896,-1569.59102410918,-2129.18860336493,-1009.40697049266,-2371.02803641841,-637.66943069266,-1112.48650742057,-1861.88960897801,-2832.7444960667,-693.229782013246,-2428.21375676182
-19.7191550352469,56.466604754704,-22.7358645633814,7.48523043887891,27.4273492735663,-6.81435183500681,10.24923431899,25.0621186761109,-62.2887777597256,-46.6706421409775,-65.1817617600596,-89.6254342546953,-77.5234048898236,-14.1200651107376,-65.0058185549499,-34.7870936358478,126.734164409905,135.397462548186,156.326714233815,93.0313435198072,377.897905413651,111.398520340201,62.9740117201412,380.649862784682,136.941169399451,113.663666747521,94.5887368975467,91.4641731800822,25.6637147406498,68.0764606548295,56.9134486226607,26.0982245823503,-9.62699831696635,57.7502011289542,60.2518368773616,44.7514086064547,32.9459172443388,-2.96469237813194,47.1980086251661,57.1625062469476,48.4788255706117,54.0188249033919,56.6452973608779,100.790212536705,88.0154136023738,-197.356440918733,-164.312841263032,-464.739539584394,-589.462881841658,-876.839506286105,-766.502055843257,-1415.8475135317,-716.972464072426,-1292.90811483418,-1638.92026661696,-2101.99644576598,-1368.98287368,-2326.32048322069,-908.39605120923,-1526.88473484052,-1762.77746713408,-2669.46796345318,-1246.9498538045,-2037.99406153298
-81.7321454512545,-19.2899845076104,-90.6613575765874,-57.0682653042258,-33.277787022911,-88.999548809617,-59.9407331557388,-40.7890830487181,-111.273906520142,-83.1601067726002,-97.8754645295701,-164.755666001555,-106.156074658768,-46.2368674984648,-196.909830355941,-97.292002964169,-72.4276526705056,31.3690726776774,127.804131376509,-24.0601143855924,334.303229380087,2.63811698740002,17.8913747546781,424.4136219505,65.7965850415578,115.780016036896,-11.4147866964343,27.5705366400575,13.4871926046516,-15.3359012827807,-10.6678528175969,-32.643897517414,-105.845132838292,-39.6478053781046,-22.0682338760673,-38.2128098813709,-62.5780387707922,-112.345323992644,-48.2771971919882,-36.5935779797284,-52.6785344878709,-57.4725957020275,-45.5791439575179,-13.6525967044611,-44.0243368197081,-182.739830717941,-291.592907761489,-494.805123577869,-616.487863987242,-710.5781388149,-673.80849375234,-1080.44135784523,-564.377608502933,-1213.8454457533,-1439.64118660139,-1698.79745829193,-1180.70069752724,-1991.63047324229,-699.870189009914,-1323.39929040383,-1556.23764775456,-2243.47404450021,-1176.24953763013,-1653.36172162158
-70.3861189336704,-0.279526517118291,-82.5971189036498,-35.0788283871841,-2.39064905800604,-107.592294964328,-47.5485757562481,-20.2257740495774,-86.9067770580136,-44.1295777073452,-53.3397740176485,-169.732534397192,-74.7051926581989,-23.8819559220929,-283.708070517656,-66.6045195901867,-272.70395936507,-22.4149844459644,122.377533876812,-121.489249451037,291.647599333781,-85.4632344970666,11.2365240671624,409.8285958604,28.5966557061434,129.145923709767,-102.460146235794,-3.43971860907422,21.3723313028671,-73.3579082105636,-47.9710896150036,-64.8553162837048,-151.518566334011,-115.286989199366,-84.0389813101966,-92.8814762406272,-113.497859189887,-171.804485112318,-119.575058858562,-100.459228487367,-120.953304237969,-132.675007416107,-123.42579011675,-99.2364893177743,-137.341536462921,-83.136955574988,-457.283027675895,-320.670040569777,-562.259477889212,-601.573288346539,-329.828474099193,-742.295972514236,-213.998091661942,-789.612086198949,-1092.67536302846,-1075.85878998481,-589.992968299178,-1515.86876375354,-237.109566225818,-636.782860176143,-1284.30379118529,-1766.63636917082,-600.994375595281,-1425.03528803323
-103.695013610802,-0.551004663988788,-103.649742490659,-34.1416701000013,12.7349643060449,-150.160716816219,-56.0538272530168,-20.2646969019855,-99.48228521176,-32.65040223364,-32.6641155145441,-191.998325728433,-64.0081309730513,-23.18349876374,-364.127190653953,10.8520888592022,-513.949901989532,-56.6371972823651,152.448229467417,-241.628876570459,238.398032617266,-231.566948195834,26.7346320042126,326.099168327723,-18.7634609695493,145.703690756557,-200.66997558209,-14.5678787181837,34.4863410692424,-122.169062302033,-62.3974380305329,-81.3155675406613,-155.876765389195,-175.007765306858,-133.854656193996,-126.084815468613,-140.299850613034,-195.933773280913,-173.647691626629,-145.254695675304,-166.683455481696,-183.0218992627,-184.022908516564,-169.960636441039,-202.49271142039,107.603896853247,-655.043988656607,-1.1689516859205,-504.149010368415,-710.005260326398,74.3996003478934,-538.052127670813,143.801541079916,-298.325126606588,-664.571845784991,-507.347334130292,-34.5235927230095,-951.869011651826,113.788210330926,45.1391894848763,-901.741831940659,-1264.80908021804,-24.9547637799204,-1128.26430322762
-203.568911271215,-81.8870041478049,-189.988125032399,-112.517448066662,-55.5981487684599,-248.095279285278,-144.646777317381,-107.324405917597,-179.202913988577,-98.1909520838017,-92.8505999635022,-265.138549704722,-98.7926711444256,-75.6244451816826,-438.099445676802,119.424897665768,-744.624645883224,-86.7213675905628,204.237582704482,-347.348389882788,148.280552371839,-396.950126425402,39.8005068722603,177.442269802364,-79.5286986909053,118.317257139093,-290.234946902721,-43.2828682607006,14.8242014880138,-180.250368725253,-94.6305408316242,-111.918184775536,-165.678245184786,-231.468595554442,-184.129411165008,-168.260157736112,-183.873681302972,-230.935108464503,-223.397307659924,-200.502434598527,-225.35368296525,-246.323393661843,-254.093327034723,-251.713066948499,-282.716523967955,305.782233818413,-777.114292824177,308.63067150613,-349.41569105839,-839.6720473278,367.018250638388,-329.226735246317,389.988296573445,91.0966842839769,-154.219194623361,-64.6286146281977,275.581321305911,-332.282045889954,231.567444131659,387.224325683354,-422.36114746938,-666.04803247031,217.623870776457,-654.225291604763
-307.748006361418,-200.758135870869,-292.333608964764,-221.688131556989,-163.065750226041,-350.878697508635,-259.233007515177,-224.110468699131,-266.28488441465,-190.256146813641,-188.669436163852,-342.172438056577,-139.804705506017,-138.57945931125,-457.219695849786,254.667243287566,-857.26106945642,-74.4190242089533,230.93732492396,-373.528143176337,32.3175277074134,-471.792296973419,39.8478159902862,-4.0363506287029,-142.398398121554,25.109828844706,-338.881202191925,-115.772364183331,-48.7484072722468,-243.14060063708,-161.601854831267,-160.988531188226,-188.580180546247,-279.911393979257,-233.898401696314,-225.517787677238,-234.907155908474,-272.66648635883,-267.042947576731,-264.001646815845,-289.77224695826,-309.991205573137,-323.713878751951,-330.369216078621,-363.785845636475,424.946294871074,-718.18804758859,513.198662196168,-59.8952148993714,-663.266973218747,518.351179255534,22.3161435153645,501.004280212201,338.388086193937,311.983411383574,339.169966664572,382.848731157982,185.374644407597,206.280858330583,383.653954022056,-35.7224880534757,-82.3546531684147,144.941539428125,-234.910218573537
-375.103102416829,-289.810144316548,-359.279904785383,-292.680445999147,-235.105771629134,-406.6786150055,-319.699850421891,-286.669371961617,-308.130206947874,-233.570631931613,-242.736701291646,-365.126070956794,-144.157926457334,-147.413678323981,-395.366726329168,376.790259490877,-819.818925709886,-27.7658188278674,208.776000862393,-343.491936112145,-114.176493892686,-440.443682785361,-10.7944510768553,-178.374282182794,-235.632674422281,-103.427735950482,-365.26213537613,-235.592371451529,-121.633218321893,-303.303371891089,-237.946471850307,-196.87107788698,-182.455392728367,-312.871188124304,-278.816953404469,-269.986240617711,-251.974994418806,-268.040109127864,-297.952020796483,-309.111447599952,-317.771832720782,-323.05604848541,-354.075951496988,-365.11270441434,-387.209851607377,461.351650331088,-505.918895685784,625.132616411891,218.023929754491,-244.461007717241,585.76217611293,400.653984654694,536.567940259726,466.760335958992,593.822580316173,711.966232745433,418.553906906832,499.288453288484,171.911344991197,262.248685845353,144.297394149987,300.443190701053,-8.15944013454617,-45.0387006500948
-375.959278480398,-291.913927246929,-352.333422120322,-277.65348677765,-215.013342460092,-388.788865952201,-285.711389800837,-244.916083920774,-272.027296097245,-172.6089483736,-179.187174648946,-307.072116428347,-71.9910310453049,-42.6482814905989,-282.489719060121,462.248254344367,-699.844306560784,-10.3121635134622,196.802402095564,-321.04873479791,-275.649826556179,-385.727107097393,-120.541716760245,-299.226854326811,-344.572540674596,-213.395704752759,-394.282787875504,-354.353453444064,-160.712860114523,-348.135489287435,-282.832738670241,-184.787094474399,-112.16085958333,-325.413762805666,-304.950592335333,-268.067382670916,-211.614744256814,-181.658054082279,-305.996348562818,-309.719501569087,-287.980591888961,-264.562588804826,-329.409173516666,-331.613691888864,-326.753631834258,496.586695044394,-242.64180110096,701.331459465991,381.055532869096,116.753229740131,637.959090127613,621.44282184516,572.926044957578,559.990508930071,736.739403033699,975.841206194247,481.860558102302,697.80834478651,175.476682095099,238.618369129122,233.918416039064,509.434160899995,-52.289757261662,43.7738230569585
-286.603887571137,-190.528811005345,-257.408141394758,-168.776261237363,-92.7247312409032,-296.516680509777,-166.110036004077,-98.8256807280833,-156.4666973278,-14.5520122785944,16.0279461612812,-187.817049688884,72.5157176683441,162.342628050298,-180.603157740759,509.878634847284,-602.970320627728,-38.9102412376842,232.786832098581,-323.200085299615,-364.707172232702,-387.764682308652,-210.73493419379,-334.979916260865,-401.304304745374,-267.579571880671,-415.555793812574,-409.505239039632,-162.852198883149,-368.317261849287,-288.946377011408,-141.144810100244,-17.008207115272,-327.450086473601,-307.387649791084,-232.599935218082,-144.193550427767,-58.3345666612871,-297.009351474556,-277.045953312701,-230.037383451657,-174.205059994524,-281.781017947302,-256.10079708242,-221.744734152889,555.863167406553,-26.9386550732303,709.337618158555,441.93516333317,361.097289466146,678.063735892131,697.471457643442,603.934870139268,654.887461061729,859.42134618402,1127.08138869752,543.466909635515,881.408790493771,143.299769148406,315.485349686822,336.344365119926,669.732573943307,-13.9711084321826,187.998738341751
-136.816713837157,-41.5943394967352,-113.486628842685,-18.5037656062071,69.9279845893475,-161.660371586971,-9.70997177130056,82.8411230229669,-11.800669101982,157.758440473385,242.038684954025,-54.7963334658439,217.538736196043,352.932255016319,-105.747839021435,522.421076194771,-549.973514130983,-41.2207757546785,280.780813107034,-298.13163259323,-290.843115957292,-417.654623628647,-191.478953416512,-249.395031747979,-379.94736866165,-229.296335688667,-416.048820800293,-387.880279482115,-128.487864242779,-364.420538334412,-266.827651734579,-97.4305591312432,38.9291558567436,-329.324047579444,-294.98034247448,-194.808332173181,-93.3094929433776,29.3315175160313,-283.053614097708,-245.547140454817,-182.963655380235,-101.924434473672,-247.099486549566,-187.185575579783,-130.040505816687,559.47193618771,53.1912880232094,567.565352156695,387.611678232338,613.870313413288,673.627155750343,766.149869079059,589.306176776682,713.35901468061,982.947431916565,1251.95950994875,542.804017258146,1044.35319472126,26.0775846876748,408.274639317563,425.564025165685,795.151339206119,12.6753143588329,368.620980087344
-29.6981972798743,35.2395785613289,-13.7918826202247,64.1525939907291,146.785265614599,-56.7995976642537,86.2139431112183,171.046859073389,77.2922334480527,230.801397686881,333.692960751594,39.8604085858615,273.291420731903,397.287022215477,-24.7318269404055,507.880245339005,-451.534998166954,35.3288311761526,329.856133233834,-208.92838049036,-72.7567064562195,-378.950187139684,-90.0418351145908,-25.5951652405953,-329.633887750458,-113.185431107742,-413.697975397688,-340.214134097969,-68.2714348444267,-355.88633893,-238.275770671166,-74.7689120209072,23.4614535739331,-333.547036150638,-286.722037544202,-176.588636445821,-88.2950556551029,35.645527310118,-278.787892472179,-243.518832050208,-177.440716396118,-87.6214886356766,-250.27460961489,-171.155901330053,-105.244781118362,437.158697443065,-23.3707448430053,304.101842775542,192.672504925898,845.87142187777,603.857723312965,833.95330928171,500.8509784635,695.695513669486,1018.28131634029,1335.98612807069,485.661235305968,1108.49831559736,-128.625691100811,498.078570677526,482.449099105154,834.05691170009,41.1544731716547,496.366390090928
-53.8018155071543,-40.1040667783019,-31.8513910108489,2.19451790248105,54.9419544140273,-46.2673812327673,47.3806051356618,91.3866741639566,62.2115724151136,157.760925339625,224.765087356692,67.1721184418917,212.68122707125,278.373975979849,72.7534658609611,466.243327382132,-252.559933300712,149.558336605675,398.11481134363,-89.5223861736849,165.584451517974,-243.336090621639,-1.26018659063483,225.680145485481,-274.941742574869,-22.9232531899526,-401.156053326112,-303.990385675008,-43.6514559754891,-350.429846826716,-233.17505488234,-104.351389111563,-69.0336499374286,-332.790612422479,-292.065177757279,-199.965534207372,-147.55067899663,-54.7097745382948,-291.873568512417,-274.020811867822,-229.219582611208,-153.577605866131,-299.266851912271,-228.561196805403,-175.610643064667,189.915723845254,-139.273217821576,31.825245071026,-90.1206076442485,895.461002935283,426.127013307837,733.565312154542,293.282546111069,543.854857624108,813.399252460348,1168.2879384723,343.91436871305,925.845217065952,-282.037917601935,507.973474387434,494.802558510963,752.521181862681,81.0065607565907,537.542511754158
-157.710705400028,-182.449193637345,-118.218219620126,-126.400294679262,-106.301628199188,-89.8032492351192,-49.4258038560155,-45.5959826860871,4.37096972471,41.9829610031508,69.3978070437098,63.4054487803792,126.687046599531,147.53238544816,174.522699916664,420.417855262809,-7.26806174485959,259.122247107441,483.527141323288,47.1084408944687,343.920106424365,-46.2428962110826,86.0407324808788,366.909853582533,-147.0692159527,23.6442779219572,-294.655220684861,-214.444170321776,-56.1037927788023,-283.775581453227,-210.158813928352,-150.188510911323,-165.758096697884,-278.122908659172,-258.916900966559,-222.803828026371,-213.161853110009,-165.533603181621,-266.978458132837,-275.522870966542,-277.565373046373,-233.485513035202,-329.461530166496,-290.617639465293,-269.415288880944,-124.764168399647,-135.73509287473,-204.47139073572,-382.214555573055,728.664209571154,124.26108310163,348.706360274561,-15.4474331468864,205.562317183983,297.165194080851,576.111809882618,62.0921661744521,421.780778255616,-424.319572452992,289.905158205699,414.759729258643,575.544358089489,28.3012426662205,564.534666720348
-208.893182991574,-231.395764920654,-155.667909967124,-169.109671451929,-156.110004195989,-89.7665106800064,-63.986123049161,-64.996109120674,1.39550684333944,30.1339624146688,70.1231747328391,82.8864086340343,130.147226525518,162.887859830421,258.970469539639,419.141639466085,187.466132834685,361.701166076769,589.046355231063,208.287821644893,487.470690143478,147.977363729197,229.91003289089,439.165278773348,61.4938362902988,138.618630518424,-76.5017546778669,-24.4494923231516,-6.31165911578885,-115.370159210567,-97.9604495775583,-108.913922544182,-146.123869635734,-140.067476410937,-137.881092978557,-158.096342646077,-179.449550402207,-167.304414898994,-151.263295990473,-185.06341196841,-228.627234837539,-214.391671534081,-258.183062854963,-252.056592806255,-263.542976562074,-443.467947925183,-2.86224549721858,-474.448739223178,-646.778793152809,438.40727877694,-248.643311100222,-231.772328488448,-314.158354908386,-259.920357963045,-355.18702770907,-315.4101654872,-298.228635398223,-183.257470114648,-548.975416836628,-137.074025062461,256.860298005545,381.026801361324,-208.508246659993,669.446819249398
-170.430750687115,-161.7051885526,-120.615697706291,-104.689064380435,-73.5608324552027,-40.9136981099711,2.1665115853428,32.3171126210172,48.7603248960221,114.884766820662,203.324188062692,111.300981862895,199.843015972583,279.583745403582,281.254164052835,438.552551959687,261.945997859822,414.238513496071,675.640726571083,310.415049045856,583.135583614766,235.085549352199,343.702677205454,532.912319515461,196.301465761336,301.609126708291,100.905003354146,143.434950453909,115.014799226888,45.3407382007322,46.1004288034461,13.579671357255,-20.142828742919,-3.74568206557496,-2.39056565666658,-31.9747656554491,-60.4751457875241,-61.0006028307554,-19.6235805174262,-58.5963741840114,-104.327736286168,-103.681986841827,-123.961439879882,-129.172309893915,-156.248094320892,-735.44761939175,130.895928263191,-817.65077670006,-818.998397291753,80.7139422197308,-619.441332056277,-771.74387951086,-516.733748822956,-671.22555592922,-794.057937802082,-1153.18863897636,-569.844981764953,-517.467234128333,-680.621493325597,-542.661331970869,142.567507019532,227.15549554285,-564.460723476891,815.111740443389
-120.625999922617,-84.6503982554676,-88.1967220876174,-39.6635407590351,8.88842491168042,-17.5375506395741,40.5322014656498,104.148907684815,68.6732162846244,161.556353244639,282.475163923284,100.452391442519,213.398765183385,320.445843032544,226.137224831486,376.664858092899,223.332933776686,354.600786663541,611.885879166946,269.601109683768,532.861115952323,180.835362411251,298.307486524163,566.617322185763,163.212386403463,335.714995139541,124.237407327952,160.882197548388,182.125747869846,82.8180014773301,99.3700485452851,95.5863735045708,79.8510470613276,37.1581270270979,46.2598589659842,40.2799770908191,27.3176739009719,32.1084792141291,26.4148250401537,4.57139652963207,-13.0574154208613,-8.84136399397827,-31.4196219234043,-29.9048935785334,-55.4995679600343,-908.912552995359,174.237893614028,-1073.2770347202,-795.4398651741,-310.633268088645,-863.163468190432,-1031.94661890113,-592.515799155501,-842.333706362343,-808.857528959709,-1614.25866196762,-645.4173392819,-467.265727413624,-819.97916722623,-764.977393345047,168.798080282578,170.969127546069,-898.123146377448,904.454025823238
-135.90535230425,-92.672237667295,-114.890064771642,-55.3476924501737,-5.35640424400414,-54.9228035566374,-1.01612437401081,69.9374748832442,20.3383504928432,94.0168378700987,217.215483527862,40.6077619406368,117.85096966135,209.636737143417,139.864023393677,183.797404332541,154.609497254875,204.321403155332,326.050316641216,150.903986954273,320.665172733608,87.2269247258574,139.104971802404,421.407783770627,71.8180995174986,201.323800522823,77.6554811457041,88.9868381952078,136.605390030029,48.2750195057732,66.7214236877259,95.3087550834667,104.134320762823,21.1632381436175,35.8508650000032,38.9024386769611,48.7918302984277,63.0474630075775,15.3278181492306,11.645873326858,21.2824461147388,35.1576142965753,12.4944685064838,20.0711715147901,-3.33694715554507,-823.550278698516,120.709432745747,-1022.27192381331,-610.750659323674,-678.562896249275,-866.718609023328,-961.723386778435,-573.086318117422,-775.69113964806,-562.292157667532,-1594.71474491997,-612.927141843854,-258.376777821989,-921.211172245866,-906.088911702493,264.650063551182,281.4882311934,-1178.51311034254,923.536239687402
-207.206987144371,-174.937134891336,-185.514802272623,-140.71834194882,-96.7881572565925,-124.003763519138,-89.7220034333051,-36.4684779493939,-72.7237983565393,-38.5705330081408,71.8241962581558,-40.8295930675506,-29.4218578178916,28.8153552990592,70.9519145242157,-78.8061384933517,133.792338024375,48.4482244038224,-44.5516200629976,72.4964863405206,66.1572666669684,47.8968381323921,4.94073086659942,161.049741827519,42.4374477923828,44.7831191340659,73.7514382747195,51.43070684034,56.0785022916493,49.0244934268045,44.1866152622181,80.4009588744877,110.706471502374,34.9134543697751,48.4770284524287,40.3814164997593,59.7403180059419,78.7744861171775,29.722838256129,31.8752898761369,61.829692800164,72.8361218365349,70.3967233061453,76.7587693168246,44.8413531037608,-553.24853881385,2.03175170094292,-732.692901230917,-488.020780868468,-985.869567833533,-752.163612003252,-768.69597944069,-589.627881574821,-706.343624988475,-419.27999594496,-1256.85814281392,-664.818529132034,-147.186366967965,-953.185761403762,-1114.19501689365,262.23216206545,491.849340995096,-1410.73041012644,864.732138545063
-241.850663191866,-231.380139276054,-227.159919891218,-206.021680223014,-165.775319549447,-160.952616256465,-151.446144070197,-120.196161153569,-140.283331256206,-131.038511367586,-37.4231024027795,-93.2664936074767,-134.266514458726,-96.2870994763659,39.4144923197985,-287.86887246402,179.573413973725,-53.4503963954614,-278.796756007762,63.1908165286566,-109.761395146351,61.3393905901363,-55.1031151990344,-38.563491864035,66.5377633567324,-22.3345057256492,113.62988595993,68.2380660859309,21.4620530448013,98.1013877966854,65.9691346048351,95.1766748230957,136.80057861411,89.8893051451713,94.166709728926,82.0686048197927,92.6357770345866,110.917042002929,83.3842650116228,86.0431189248096,128.230120162413,123.779129025416,151.220302294208,153.724504966811,109.803911627867,-379.095572343847,-102.275844312381,-542.674512389832,-576.176408798683,-1218.20921930269,-762.565045009888,-704.692565736906,-714.487802854509,-792.831571990513,-543.217388151443,-931.113137037826,-820.077251497893,-239.936196691063,-869.14304105506,-1267.53133812682,100.704268185603,578.865598639048,-1444.09547980843,672.374520762349
-168.062323906267,-177.362075271309,-175.303927817646,-168.401235926163,-133.309498571434,-117.520733430673,-129.806892436093,-105.482990232957,-125.053977400374,-128.906001325354,-49.7616119086862,-78.9814726763039,-150.84399499509,-114.804259614092,32.8195156963184,-355.271022043751,248.35182590158,-104.178225490654,-316.702840626773,72.2278782864699,-183.251413931944,87.2292369488995,-83.0725291503527,-106.896543024005,81.1907100624509,-30.127325335678,146.866440585419,85.5340539545106,24.6222621842572,139.219388951772,90.5102078780293,114.876092123354,162.649746420618,139.124514151712,131.540511951563,124.37284545121,126.358453940604,139.839249536406,133.55179171468,137.658526710709,172.968993832124,161.102889782558,204.631649147572,201.605018222607,156.337239802929,-395.579677694629,-139.715005404673,-590.703388901403,-735.618765151498,-1385.5627190783,-862.669530349012,-827.844176081803,-806.059835883891,-867.665616450661,-800.802149649701,-901.647289015008,-884.392019243386,-560.015366687241,-621.585549569743,-1128.49359056432,-161.691013042783,354.508194799162,-1140.36256868093,351.474526980221
-27.2729156053405,-46.3206606349228,-50.5573406540615,-54.5722076032423,-33.8861864847798,-15.9851154165575,-45.8795926180464,-18.1900770972775,-48.0775197349943,-72.2227375355558,-10.6930260036296,-19.2453979624258,-113.612957357972,-79.3368225529212,6.73795132608401,-306.500924433679,266.34062671078,-146.717940189635,-276.1962089478,43.3489248472566,-206.465741276494,84.4512977542364,-128.864706138063,-120.094835027831,46.3521176988256,-60.1659119253924,136.445509438848,57.9631162153411,12.6531176836782,127.721887031278,78.3991936476315,102.876900617572,153.960401209108,141.500003068597,128.300268806017,118.636821341077,124.335084693686,133.855501617119,138.921994606056,143.769520911815,165.391097378532,157.628841802994,198.125212268267,188.650881969893,154.002878995317,-392.602854573454,-198.883478463343,-595.962393651216,-732.872084697909,-1493.32978885962,-777.558266729782,-1008.93535043076,-684.165565321871,-699.509919598149,-1030.10656420215,-1174.9060410465,-718.235188399021,-1051.57824161139,-260.545634665924,-717.927823739107,-472.120219976122,-219.084120542418,-610.545787408466,-39.0655433210255
104.797549211971,80.9031499919107,81.3970954537962,54.9844938754374,53.2882399692172,92.1018569787962,50.9102732984939,67.5447742328483,41.0100078907257,-9.0085204412983,15.9475062903369,50.2555207876233,-64.3760900248391,-48.889389279945,-45.5045487451161,-221.745402144585,222.895602898953,-193.579186047906,-240.579132017083,-16.0587018423328,-218.727982077629,49.1292236467086,-192.266402043815,-137.564174719105,-19.8770562097791,-119.38148012455,91.5572303532149,-3.05224005362706,-17.4507834703,80.0890396873868,45.9247640253617,70.1654218302846,117.39199170448,108.069186345912,96.9401006787613,82.3143147415863,92.6450157925494,103.568539080275,108.093199866501,116.088639699476,141.583464179399,136.006621624159,172.424669227051,159.190727998025,135.037153083103,-201.442098963351,-379.026949016312,-331.974664929542,-568.796677477181,-1472.282195567,-447.53745755651,-1104.59131265201,-348.794149105201,-359.097760632807,-1227.89217489275,-1459.07298817652,-368.983595926841,-1538.49211976409,130.883875435308,-255.212475598256,-742.132419285251,-979.370291105368,-61.2865792063242,-424.080128007986
209.069355291674,181.548132771032,188.152791699572,135.98366910239,116.627790718156,186.730562880302,145.474554055184,131.11021694102,126.336129777209,60.6865943114677,37.7531386062551,122.549427468286,-0.328602576210293,-21.2849291925171,-67.3144601241784,-135.755945870972,190.333653745106,-205.759343908247,-188.659210624118,-41.5524422565245,-213.286464375839,30.9568564062904,-229.367146450683,-136.686234206153,-55.4993296851246,-160.34870800214,62.9582972203264,-43.474811887377,-28.8071593656049,52.1348180498115,35.4190635576168,59.2520496718582,100.37366162984,89.6246669683003,82.6969710075534,72.5029923703977,81.9054718643376,93.435761356808,92.408708192733,109.167031083956,151.340253383072,144.003453249001,191.679890413862,173.443530474691,150.596953561632,73.302835979808,-590.65437087834,-8.00813382178495,-419.820223214787,-1261.26724437185,-117.057685924457,-1071.86385925436,49.0721106289877,-136.245201286777,-1444.59487794907,-1454.60272753503,6.55528442287469,-1818.68127923267,494.555377896919,96.473582637157,-842.355704689091,-1575.87587266156,376.086191132395,-673.636567146021
252.313248844409,225.023530704792,231.154446510649,171.144007702577,152.986271872724,235.125524144762,197.317011526413,157.232536256661,172.669009518691,105.166120921882,54.3984109071961,165.184060624382,54.5461559001607,-5.43849204402827,-35.9158454583244,-65.9956804992607,206.765720315167,-168.878485185149,-142.563814150884,-3.88745926793097,-193.201553611043,64.5756097382774,-214.338587977481,-131.202190899602,-32.0416924887451,-181.065234136776,71.7421723784952,-37.8753241086989,-34.1250551136196,60.2926178438707,43.2462720386417,66.3541873695904,102.429685367064,102.187759245163,94.0247994115102,87.8862146394935,97.2730611364965,100.040200503007,107.273165108167,128.742872374764,174.58297972842,166.156572651492,234.222971292312,205.938917493479,177.728256815138,239.452228933984,-637.816887706643,94.1146849783683,-323.160597747933,-901.092499634393,14.7764891524939,-915.990872933306,302.240636546163,-198.587323512346,-1589.15034571239,-1123.42968742854,213.413781535981,-1776.3200856932,682.980959248452,215.400387769797,-832.602483423896,-1737.56081812371,556.15981363645,-785.951929975538
152.104904944624,128.01296737983,138.126265617038,93.4777383692373,95.438858700804,165.888784945051,123.526630378521,80.0551567240427,108.485198768563,41.8453178953793,-6.05695647135455,114.855152578365,19.6298874344982,-59.5379998669055,-10.0361606740371,-57.2740605422018,215.303340396884,-132.796096104186,-183.644868493941,42.0897634530168,-187.673047037706,116.977315436561,-169.111599727407,-192.19326998989,13.7215709358191,-205.639425505821,81.7598960189804,-16.9743618593442,-84.4700149103841,65.5058969851085,26.9864986108738,31.2075802254944,52.7206918352493,104.391069267991,85.3566368676187,66.8420002336844,69.9662052348121,56.148796702529,105.215227484257,114.537034687615,140.142194663591,128.596482485946,206.953550790245,172.386592356436,140.805204232712,233.294735120276,-456.595656256297,-35.7140645721687,-163.352363504043,-437.03362136433,-44.8400304084239,-611.337482137502,259.771092984187,-444.637713878028,-1456.92826797722,-601.553923807945,140.426357108693,-1408.08728086475,536.892989788207,39.3866724530251,-928.650126524329,-1529.34795062412,363.174439096009,-1004.30499137598
-97.2005147121083,-112.698394129138,-89.2332733800681,-109.753769506904,-84.4986320512528,-33.673888752936,-81.894832071166,-118.884029622742,-70.3353371703009,-139.015346388846,-173.688640593541,-30.6650451721787,-129.341347617037,-196.859566616754,-48.5465398477863,-116.026262782411,140.616175493452,-149.044539516714,-293.890976371169,14.9984679638574,-204.559404803473,119.162467093046,-142.277787743785,-313.917783025154,22.6860823423475,-226.214998171544,51.0359850462397,-28.2118276080913,-179.914427582486,28.0412269723273,-33.6433489764107,-77.8905891998195,-87.9230205416139,53.7173080229314,17.9828751358392,-23.7212360385922,-45.3560785479589,-76.6248111874513,40.4759895272524,23.609527523456,19.3694766211372,-1.89959268319343,70.6500911030537,36.9983366938977,11.1906812997095,94.4821335647916,-207.993700289978,-272.839533369649,65.1729216904325,76.2916069575234,-166.717404093849,-159.543493022449,20.6735420560595,-621.958507218919,-986.906852673436,5.88028789951392,-86.65276141164,-835.405025166015,166.164554409475,-244.262732930401,-1083.68435072747,-1213.07450994433,-43.1740460401466,-1394.03271531903
-362.011538287285,-358.637038876669,-323.281029089876,-327.28308652204,-291.518889457684,-256.579965055303,-301.543907048165,-336.419113080909,-259.018094552637,-320.477977219595,-351.84838997151,-187.407217273828,-293.534850278969,-333.608915201007,-134.445034277943,-176.869028725756,-21.0680725463931,-204.367653304182,-360.537426858049,-104.441035535467,-220.565561662909,29.5232644802324,-169.325608074534,-391.067494089599,-40.0810220262072,-231.995695174281,-27.3320296269449,-87.5170747832841,-263.308491614967,-55.3570613706906,-123.510454127251,-216.491905900094,-264.070648295105,-47.093099149145,-96.542920928037,-152.968906085551,-205.7753444956,-249.4215756171,-76.4308400771395,-117.373082992879,-147.563884620842,-183.196607148287,-121.642101735365,-158.618384815522,-170.657672349129,-80.814970218726,-113.566391532116,-440.385742800442,227.318974670481,443.700671005057,-157.446703696914,300.879391743593,-106.614423323298,-532.256085797129,-365.519214341172,575.277736888136,-184.818753813789,-257.700976523922,-94.7817264616142,-308.763714012002,-959.755193805409,-941.889725800916,-297.254106499372,-1565.55277880811
-499.518682869013,-480.311978121253,-439.629735218697,-439.074103806369,-408.672097374352,-381.612330452465,-417.289136972843,-449.976213725833,-355.208934750576,-390.727475921715,-426.310629537476,-274.825407695398,-362.500608439538,-384.022288638568,-207.325517132058,-198.397240635903,-197.795243596429,-240.634020089179,-348.303662526773,-255.636442320378,-219.360375079675,-128.480328495291,-235.491712302156,-368.650066749292,-162.073574753632,-235.380518216381,-124.799238528879,-167.073655768318,-296.875878594282,-153.173929301527,-211.342954377427,-316.393522472099,-385.743090372906,-150.216260270836,-206.207027010596,-265.648018474709,-331.242501406628,-381.015952024834,-187.799800302915,-241.667671309492,-296.755979636207,-343.656007982065,-290.613138797291,-340.248200657663,-339.994392478446,-146.289008148704,-197.526556932149,-351.458558203954,264.858768607454,504.58025790394,78.6271354032621,571.803425981542,26.1968532500056,-189.902888105062,185.235547028503,917.649969726018,-34.0114454129843,212.863977271389,-85.5512403880067,-104.164677913125,-419.823078930651,-665.489212868639,-265.075846785803,-1176.27834391806
-499.047866249404,-484.07678696536,-441.109537467849,-440.940715440699,-422.093824188134,-400.667064001297,-425.646515012192,-448.985712502398,-366.471039807197,-371.248223021257,-399.005925019839,-299.171288863201,-343.901338690017,-363.816543272107,-250.821663597167,-228.923283603491,-328.668449244502,-244.113973488862,-334.889382674226,-366.767199910486,-221.882851844199,-289.192873863456,-293.310127560618,-317.94436524316,-295.406036560163,-251.255199130052,-208.428538036006,-235.696535818734,-300.434757799666,-231.458302342704,-272.563699451053,-355.119749904978,-421.86012600607,-211.313388456403,-271.187829495814,-330.963399008172,-387.345778468402,-437.857282849031,-249.599086798475,-309.186074422434,-384.590086525518,-432.631497086339,-389.066346460059,-451.977639990157,-446.832179314397,-20.802198423087,-283.565460525742,-33.6704882620638,255.949260906622,413.171852073948,369.365834688118,642.346351963665,237.821008369895,172.463038557433,597.916748401045,1026.60964688043,162.708244973871,644.839859567742,-5.28785032696542,61.2180150969164,282.57574867992,-219.4807588952,-201.315876541801,-384.896717247112
-459.488553900002,-458.949435460499,-419.062892966891,-416.682231913545,-401.585286510488,-393.091970459697,-407.707136156608,-420.08443225549,-370.082639600736,-359.13082078171,-358.134096737427,-323.936613621743,-325.623086548837,-354.92396601142,-294.462928141229,-319.279151942489,-417.536052793647,-265.995841821732,-380.795285532899,-416.095347897052,-264.917044175294,-401.847943170446,-318.916401760511,-324.522190940074,-393.40029488914,-282.438337622401,-268.79019051726,-289.745221316589,-309.956077364253,-283.064538128204,-309.178321889314,-362.730109944124,-413.893255161949,-239.115131169157,-304.393761821713,-360.341093220537,-404.881037468274,-445.949042039969,-275.850044121065,-339.26970687573,-416.578245570412,-457.245600047288,-425.950344034225,-496.865480391936,-489.508538206458,201.407693657038,-256.051965583479,267.19614301388,272.730102079213,442.599766393068,476.975555004139,715.312475295189,303.802614661003,320.045310735064,899.360529208979,1154.91435831551,148.359903486111,1131.12128691885,-108.227223211214,-68.0880768641589,813.786411619031,502.11949143575,-373.003024509954,437.247568960965
-449.709150125153,-460.532186125117,-425.38965403735,-421.558630484072,-401.494163791739,-400.221624769791,-412.778028584247,-425.506085635958,-390.34556456155,-386.105911299905,-354.546224750928,-358.149082219026,-338.978729651247,-386.06719101415,-326.350454754353,-411.52370721085,-462.802113299773,-312.272821553601,-439.257868407616,-408.679591550238,-328.553733047274,-438.700023326651,-309.913018423751,-369.660889428113,-421.963200405797,-309.837375921835,-299.490327116453,-321.792393439621,-326.33043348913,-309.263672047705,-330.539069039158,-371.798154960696,-410.014269974545,-260.505109036463,-329.697547105021,-377.120692869721,-420.882402893456,-443.862237896606,-294.249932663731,-363.022348558266,-430.245433386405,-466.806645895713,-442.436727332771,-520.651253569173,-507.496646258646,330.236797710169,-188.090140839415,370.843673483281,289.274329987873,602.124070796146,421.804783528019,900.297518396351,251.041786573239,279.995224797865,1096.82014237387,1442.63141234986,-19.7002786945238,1593.45289571217,-318.963493765824,-360.489067096314,1035.58225458476,1364.5942106586,-682.10296672501,1091.69685713819
-443.076800292048,-470.396562784833,-424.971814486272,-429.464527286826,-413.630353339656,-390.37638553008,-414.652145534119,-442.658698535182,-381.560166286247,-399.681200270364,-363.706962416355,-344.473215471165,-337.800173098292,-406.832002880541,-299.347552154572,-407.761932539517,-426.680871355439,-319.919808288957,-429.351174827186,-345.635213894055,-352.084177645467,-386.440105653794,-264.68276644785,-385.831034808194,-373.83681666719,-307.072533250596,-287.761513235413,-311.335016286549,-326.372273693175,-302.213201495054,-329.923885207459,-380.156749659305,-420.360837606928,-267.646588387073,-336.999508168007,-381.456853858867,-432.675625556129,-444.738876086905,-297.889895509614,-374.007530706785,-441.190808201446,-482.19774642265,-454.458067617316,-540.185499529335,-520.538085985829,272.324306356023,-178.32263788771,304.141908190671,253.445191366872,734.984897483226,403.144024369954,1081.76262495205,254.511498869026,302.652111374891,1200.38754583993,1740.26418133716,-31.5585005935962,1878.42838785771,-338.717947838739,-440.286740440472,1040.69345753916,2050.10665202378,-780.085865720152,1506.92283880673
-391.006517534867,-441.404992711649,-372.747420332833,-391.668080616277,-395.126157674187,-340.197548496047,-375.80957794315,-418.733636443873,-320.679350961042,-356.080648397094,-342.728459210984,-269.785667941831,-293.267340749677,-374.191426512242,-224.003952728802,-322.067267360065,-316.905104127541,-284.942218982719,-364.023107303008,-253.985294221141,-349.277192428969,-281.699071363462,-213.242246574717,-377.013420243037,-293.27775678557,-284.002449673691,-244.24660276007,-265.599034122885,-301.206358815879,-262.054634932054,-299.563759187197,-361.346763391407,-413.349033198575,-241.96768783428,-309.341858243783,-355.610055093476,-412.107728704867,-425.550683725608,-270.359147893591,-349.21955162764,-421.287368819362,-464.009850744512,-430.637399208635,-515.682279792748,-494.817179867104,141.053317188434,-188.483111717611,246.094996634306,220.709192681711,835.636223331609,506.43568013958,1177.13408827101,363.515982413406,542.133955512199,1283.63653629329,1908.79599782379,262.445223185129,1986.81600592092,-75.4566978855529,-111.854192193215,1032.93934458048,2350.40651639373,-487.788206199314,1637.69292683367
-281.481216598335,-346.589295209149,-267.49326512677,-293.565011351351,-311.824300436479,-257.061234442389,-286.038981102932,-326.31181888924,-226.410423045121,-257.833868498857,-263.663702898514,-176.378078495394,-218.052205952085,-287.777465586491,-148.232690732273,-239.064131236678,-191.716577817948,-262.608180129589,-312.617302420545,-180.806026945071,-380.633336936781,-193.128301774916,-197.682145402609,-383.956343410032,-226.102988271543,-269.690620467265,-187.018821649322,-204.149740023127,-250.20146459888,-192.029199807886,-232.20717356803,-285.038369826573,-327.465759437899,-178.096872272892,-236.033956812558,-275.448739769645,-321.668701796855,-331.365657189456,-201.051754992189,-268.230576137931,-319.118785235338,-354.2618557117,-318.41823422634,-392.950902181954,-372.881497570503,157.325385740021,-110.283710841021,403.628919014475,323.77724136912,974.540798892626,674.808288661444,1248.95803015127,496.806976136621,912.380582124864,1425.35746344144,1956.60121388532,689.434462748034,2034.52043140303,289.349354258523,437.172766181381,1140.28625202396,2311.13465622187,45.5333963859076,1555.59243102193
-113.64128160339,-179.821379932138,-112.676474910865,-137.797607681426,-156.11004931163,-125.697424157253,-140.331479233654,-161.66386938991,-102.193311926391,-112.825200524635,-111.162198933847,-66.9006048005765,-112.97607391264,-144.037523842611,-65.4372986622862,-170.083722401041,-70.2494625424638,-239.252073280976,-270.578172887156,-127.198526447557,-414.032983229871,-132.564285442352,-191.409804536123,-378.903114447218,-156.795976146435,-247.387873621088,-100.470515296675,-111.585176012103,-161.295705472457,-80.7478570606325,-110.800001573862,-136.319702598398,-129.805581676394,-65.8983993954688,-99.4955103655458,-120.732114787319,-135.696327495993,-122.553868045062,-73.4734678199083,-109.69359105822,-111.592801370218,-134.173581169165,-96.3561483985336,-154.985328843346,-131.293313617521,401.706124251602,121.217808404648,814.279571976159,608.985472341035,1135.07309443948,855.21284424267,1338.03868625648,624.809533884537,1253.04915937528,1618.04176059249,1890.83882171965,1020.49019478815,2070.83245746637,603.807221882607,890.523157329853,1356.19992865804,2127.75139667377,576.410497642145,1478.89464894285
103.639154972545,40.1909923645666,90.8194341979737,63.0599210387062,48.1539428983912,65.5800426096629,52.0343710041618,50.5676210951506,56.2728667913569,69.3830499488075,94.8409665684929,83.4003373346125,30.602440098463,52.7136771878598,64.1109542079135,-80.9702122334204,79.0527510901727,-149.713787165949,-184.774387576237,-43.7885704822894,-354.196234644869,-46.74025348951,-120.42122706083,-301.291247247365,-55.9151989887364,-171.66029718695,35.0469069239796,23.2762532294017,-37.2666662086251,69.1579173234731,54.406969347683,51.7060160318902,120.152178623177,91.5667299898211,87.6181098698066,84.570432366012,109.124757005745,154.487436827537,103.460184209045,108.256721067285,144.121364468093,141.778138728377,177.609312719382,142.091425371087,173.35531834607,680.662730231776,512.266386050552,1232.43235869963,980.502249397697,1337.94221639881,980.866590256126,1437.99717772283,737.880143291128,1445.03686854295,1768.89111888144,1730.39750049985,1177.41181997484,2042.60565057716,824.82744526263,1123.13193850208,1591.15870794612,1956.91654754492,969.107264003632,1549.06443001774
308.565843678587,238.613022644225,285.350608045944,248.429190400744,230.699407423823,253.940529306793,231.835182791409,237.162606981552,208.053268079723,233.574454990518,273.338514391445,234.883363952968,172.250613269026,229.64448730921,213.841708551703,-2.02733641866262,257.597110995035,-4.90864955437897,-62.9868922987203,83.2337389394666,-186.567172711849,79.5813119923948,10.9338167273915,-147.972474971677,42.4252476250783,-52.60203701151,173.492429182662,137.291252490949,71.7453449706687,199.662930241323,190.842566169306,195.32348577742,300.61013831828,233.645902742103,245.284735186629,253.751663811309,304.499498900154,372.04033189636,257.02266122365,293.726468675996,336.305513643836,360.693172624996,386.647372401012,376.499512408465,418.683471814884,675.978904197126,949.251323714578,1265.5913914135,1225.0629526773,1586.15801440398,883.958900674461,1500.98192893907,692.433292517493,1348.8862875795,1719.99101664374,1499.71205888884,1117.34480042134,1808.75879561514,845.591892117879,1149.70808326958,1662.74412445101,1738.81395576254,1139.97037173869,1593.66094224081
428.957413583142,344.06544150625,392.902377154173,350.143943068065,325.535206977419,362.300244342201,336.360951628705,335.560649494415,299.589017934944,318.412461163771,352.717390582047,321.246333478873,249.654964882769,309.231317674168,308.750927529516,14.3486849339037,416.613258048915,112.765741989068,52.524434351136,198.115953294492,21.10596125955,180.710439672529,110.456936914783,59.7722775138726,85.309249521861,58.196212611557,235.16679081041,163.134331903779,131.538882675937,249.917152521719,242.919404237058,252.292721915894,360.903649701947,293.669583035959,304.945673181014,326.707482789274,383.112419261736,457.957966604484,317.167609466745,372.080270207948,414.300919816312,456.82938643118,470.194086961756,476.070196276591,533.698139239022,269.575562847059,1206.14443175103,728.788218817644,1120.02932030875,1675.44204791713,471.186849122331,1368.163177646,373.275380103795,884.118429638081,1337.17489574372,1106.00286575389,792.013225052938,1253.94407542816,587.271306899782,961.626772954496,1419.94617647194,1310.02550050698,1037.05285819729,1356.64519717648
481.95327608926,394.025945337942,430.279436049425,392.271113003228,362.069355111725,411.686508222584,385.738459459756,378.303482607341,343.791168298222,346.993806090805,370.310072238138,356.750538095256,275.136611356677,321.959129461637,342.786858269702,-12.9085220800471,527.351508525015,170.476637573861,155.802849799908,267.348484173446,216.841754144706,214.987133024082,149.051572149589,311.765733587151,115.148673909279,159.308841993032,237.018871998705,166.453405589564,199.866777812532,259.852319802698,270.966180766398,295.378693359205,383.29121227251,301.536434451383,315.931851841203,360.175786507265,414.663012045471,485.920699562262,320.674241449587,392.430460785048,446.694055147531,492.964638268958,492.105364049188,511.497127454526,581.153818949803,-294.517264415554,1136.67103920802,-93.7562595448107,641.620833041938,1430.00331494219,-54.4873964433046,886.354287073211,-56.4019159641658,215.573432835121,639.939478881239,458.567678974178,317.232243347084,480.79238556278,243.210344787564,583.734130312682,958.822731712383,741.478622627681,754.295605414181,940.747117821018
526.892747073741,454.163876413403,463.73215066339,435.514958960246,397.7862650811,460.763521491841,429.334474009875,417.948100953452,378.02836341946,367.483688638291,387.989463856905,386.728924911075,293.142984019196,320.942356789923,362.689122703784,-49.4832081244584,595.474181159938,200.804941381513,221.658020188068,329.181976074845,368.953686173655,239.051618580314,199.999870464485,523.641747313321,229.473397717827,277.737729973865,284.008608018438,266.310739434772,322.191108639079,322.207325576818,358.224304773959,388.279236865779,432.662996299044,336.819390015777,368.835037971702,429.453886926675,476.962937315629,525.967265955896,352.708732566735,436.945642254643,503.071077232977,543.572796889477,527.579297125311,565.485738292219,632.678469486713,-678.23368503827,748.602321923544,-711.998497691901,-30.4348681068531,936.526651663406,-420.226104305986,57.0035358102861,-363.103073768738,-385.159790585402,-245.395750019696,-360.17110281067,-95.0521420410161,-303.353055515145,65.0294477529966,120.164639287878,463.415522871567,248.579754262012,470.702867443214,648.426363317123
546.681543976748,484.594477951464,478.693862494227,449.745032376598,394.584620907186,484.73109555889,436.430682728491,410.058163751584,373.989617776301,340.96832641813,350.776594724457,383.772038388463,266.897207849027,255.684942269014,361.110672929056,-114.662588558518,619.728268669903,218.977533446121,178.44694304116,406.984040909778,435.880900033984,322.990173752152,290.198307094724,556.806958930684,404.559514988133,380.481923223031,397.601588291436,426.604879163351,412.996337005499,428.354272085353,458.329059887753,451.308281991209,435.444758183,398.067715358942,443.030629303489,488.032179314119,509.01496833914,510.08930821173,408.783344987208,480.941790743787,536.212609103611,558.587483792641,548.074469078819,587.479691081298,638.83192044007,-809.19049122644,182.208684662826,-941.016268443965,-654.375453990966,355.098379832284,-618.523961307381,-872.069122949138,-543.778079124843,-802.471066045743,-1090.95427858625,-1118.15499288211,-376.235888541237,-969.694362915305,1.64800287057655,-298.443564219566,-49.5193482994241,-177.032288436628,280.274277802866,464.776937875502
486.392629374392,417.230017300341,418.993455504186,367.55233462916,289.918271887596,423.218830336713,347.561586055399,285.382686180867,284.078198375466,207.793797784673,174.522324712085,301.179705676709,136.719132184735,68.3081419906798,298.049694729438,-216.352836108855,601.897209264221,212.061739811059,20.9173932725815,456.236103098992,406.026201554609,447.967924062212,342.017755618034,403.677672036139,499.648639086711,393.01726007827,479.033057127824,493.112801401146,367.477112364924,473.157168712432,457.448899635616,377.926760033903,306.514176875658,413.010229656773,443.103489050539,440.4468774954,420.124951664564,362.303425424925,411.677717682462,448.838053115559,463.522532634836,454.269994400261,489.357378699623,500.736750443134,524.452737753595,-794.362573518464,-282.083251710548,-924.139568373741,-963.302824874598,-222.494517128016,-749.18451970216,-1399.80673006739,-669.941302437266,-1000.50288585788,-1514.10424312737,-1514.30154805967,-543.423887151103,-1351.6374368137,-103.997362402174,-528.518965007804,-566.561823010314,-652.431854104162,191.206479293571,91.8852210319142
370.812282908728,290.055235143285,306.795666926144,221.044724607411,134.39494679426,299.285355210644,198.737854074285,94.7030154219721,145.026519101293,19.6166373815725,-73.2201312107535,172.328726054173,-46.2794095779817,-162.284296390118,186.675419213543,-298.586204243382,563.717882659106,177.400638490063,-142.377412486268,438.707076356651,317.018863650436,534.112601680147,305.430004196093,216.414232261994,467.040138843106,302.715233223433,470.534887756316,425.103087397524,222.398044450268,418.06870285685,349.051754524079,213.399760237831,110.149835173542,359.280273071052,356.001685218782,306.185020329821,253.944104936065,150.284462453154,340.096770322816,347.402317857331,315.780046736339,273.622063348989,369.008740857711,355.15983564333,336.133216253425,-638.076721801999,-456.891122437896,-772.716458070414,-832.316975178622,-718.603088544003,-738.418112762866,-1238.27076574729,-664.750043352507,-916.854723932902,-1325.85340937967,-1383.45387494776,-547.660780617111,-1291.35140437445,-179.796397781122,-502.260054259763,-919.653474544722,-1061.85347438341,178.425925956271,-556.909561445945
291.750111083864,211.195673350844,231.112161903078,125.892247475835,49.1439549090133,206.487133931177,99.6216233288705,-21.3140792152982,52.6874945223222,-95.1738439314846,-218.161637330646,79.1003581258294,-156.79218758023,-284.401107539093,78.8536809798858,-311.645887785539,506.624014096823,115.295704140327,-211.585944733177,370.741564685614,204.822704085854,527.348428272416,227.309327957623,113.679444700514,391.95656723096,190.885968659789,427.23534215739,330.289664122959,112.059138597975,344.166500820878,242.757041097288,106.344355771403,3.07798891328186,299.474874684124,274.29206812009,204.99452340831,143.701234873458,21.9919113195796,264.160075689995,262.668224921302,212.439692213049,152.125425009218,272.737208282419,263.736799004774,207.224512234555,-318.846771410038,-460.409774458462,-473.572152108596,-460.526622859155,-1069.54434326777,-483.945030151301,-738.729090985063,-439.916942319491,-594.089623966404,-826.510190843744,-911.513621407502,-353.185220220214,-902.957666224701,-60.4615572407423,-300.232450565066,-973.788970273074,-1167.07040157111,220.432281645969,-1162.26646993314
278.16872469557,213.486157068089,219.614883260403,124.5756022793,57.1218802297841,174.589934110775,79.0417193623181,-23.1463724991564,24.9510441774344,-104.5681825537,-213.823357135262,31.60959220149,-168.072342466301,-275.843456290685,-24.5536871126649,-310.025902726853,372.698043058904,-2.69472554031169,-237.43439971727,242.52017068016,50.6021608066595,398.016646080128,122.421525114584,44.1768657971261,292.122948833585,103.270184374338,376.042888681232,256.858499831962,79.4472065422818,297.048071392076,190.454983742478,101.829999911351,28.9910962244422,266.299475441141,241.45057635592,178.894208282779,132.745368070116,23.9848893577543,227.558239718145,229.049264061507,190.495682254173,134.00812483271,231.346150912578,238.833574152993,182.967478483333,15.5529808115077,-453.926542533962,-75.7639950867338,-121.830518709697,-1226.81535145659,-95.2844091458561,-400.945247083935,-80.6796314788705,-192.216089327433,-399.542028207973,-462.88611216337,-28.8568683434517,-462.745000438816,252.11148302429,-27.5149199068471,-753.015087528296,-923.688098268732,350.433479593104,-1305.98353890361
272.542645205188,228.357554368713,209.665523080093,141.487807453155,71.602512882368,140.482401524743,58.1281009643096,-13.7231681059567,-10.1619590520407,-102.812633813495,-185.552795271539,-36.3567402226746,-175.160121154927,-265.351448123515,-162.282232220556,-389.729632784945,121.527789180914,-194.791144677079,-361.088071974823,8.02482709272586,-180.731804593623,141.228504798599,-74.6548466186944,-113.069211946294,92.4395912127296,-26.4315062164679,254.115743793309,130.77110059478,30.0612025241465,208.557341092923,121.164491823503,95.4208039790048,72.6286333489539,204.945568524719,185.902857171212,145.575829033195,131.078260908297,59.0902028824189,180.14595856762,185.021554948029,171.838287707156,133.084343937206,190.511240285636,201.742300215358,178.024731557077,204.189929042376,-349.807306903396,287.954277603476,168.327889845283,-1099.8532809066,224.386028911622,-206.898374376702,244.374936849092,168.485968437571,-83.3497984329737,-154.380046913381,300.96371140287,-84.3075870282334,598.509911322937,258.83119220514,-372.733645841487,-473.914208045186,571.803298730014,-891.221672829255
247.634226150046,213.650675883452,173.900066174329,127.48675449612,58.622157625555,81.5959053956381,8.43836458087111,-50.213966481727,-65.5259725124401,-136.226111198585,-210.331630750132,-126.289599491626,-219.524387883246,-315.216787264856,-292.583602510474,-512.513821685639,-150.174040003967,-383.070605808998,-586.719705878885,-263.533952257412,-434.781125293594,-131.406791444325,-330.438272828217,-357.638417204718,-157.289692039467,-222.970220118628,69.4365808914318,-52.8094659761772,-90.1250013471146,58.1081574949348,1.6703659786847,18.0354297107833,41.8077695741752,96.1274767312023,74.020970288752,61.38892022419,74.183285105245,44.8319940496828,93.2224027605725,101.072665407227,109.917241375675,90.8811805442658,123.286149712531,129.963112222755,132.302267436526,286.619065790929,-7.2611902010328,556.591420283448,525.477159946861,-637.595048041563,404.603022982618,148.339460375839,441.785362709554,449.432041944195,252.641676926366,222.580310009042,528.525939927424,277.795568771467,803.342752176276,482.884382139335,4.66818821077532,17.2405035420304,759.751603722767,-260.529627326826
224.3136203464,189.290822297892,151.283798763878,113.046021242142,55.2050418114997,47.5366920184343,-13.3002472774519,-80.5492300593466,-79.8028605202833,-152.317276626081,-234.488422438336,-157.669715411423,-236.533373438418,-346.840988251947,-314.968402809779,-545.797260884349,-282.823438857566,-448.234033200147,-756.715267545581,-395.400288179932,-588.841365575074,-242.21267351041,-471.43195401042,-567.363559683585,-280.293044816584,-377.10443328159,-55.3431304520393,-172.204931313854,-201.619978845889,-50.7209645153807,-87.5213289965353,-71.0494987024313,-33.9889723093648,11.6249109295212,-14.8931399829613,-12.2085854375403,6.97001090931558,-0.19698157199128,25.109284568522,36.3031416232552,43.7037219272625,41.9064147710556,69.6509738404123,72.4605453439876,80.0741636013671,365.357543924738,445.841972947111,740.345515141504,878.949011689889,-19.8892419222557,479.602151699716,652.785045940668,487.398921525578,633.745310785934,610.433579652508,783.17378649932,608.456522847582,609.900461584959,797.339373496978,596.287607170308,234.42639432719,392.242641235273,812.669175185202,139.475795309385
192.024189732014,156.308802517608,144.947877115599,104.415803176658,51.9116679542496,50.508663906691,0.988918459174553,-75.4707985929329,-47.5544044810196,-129.094073663699,-215.533865450386,-111.343690523152,-193.688391201616,-304.618635847972,-225.047430348672,-470.883690743625,-247.337356214915,-384.384333601666,-763.747630982388,-331.817673947393,-592.01560078148,-163.424856143887,-411.649290383277,-640.051369961678,-220.519232252467,-388.928418971998,-57.0975471883849,-155.007562659343,-218.215241573283,-48.8909668508932,-86.0010397958504,-101.490777703399,-89.468705311416,1.40690814293407,-19.5385143428251,-25.7310524869912,-17.9267386146432,-35.4615495099622,18.7211375787703,30.5830301064733,16.6559577741716,19.6799913793197,53.1036255280081,50.0537361292672,56.2374709732813,398.139106999164,721.721482677393,799.87290010595,996.116829046229,433.496728989747,465.126728170749,964.810969982097,394.555676051302,699.686174480586,845.611957013794,1229.57475318897,573.289623306462,766.618325082896,679.377721829011,666.214459359006,271.57802615423,498.398504653238,810.773105830098,161.144736202458
119.31927000398,91.8029634531942,106.058121643977,62.6095768140159,3.8458936323665,40.6947253282333,-9.08450685183094,-75.1898530694933,-29.9785861843693,-110.073478025399,-189.482444841838,-63.9457237238455,-147.664302854525,-235.519634773384,-125.510246035956,-389.06737794005,-164.449010321758,-302.343284640496,-639.365158937222,-203.253462110195,-505.806158418119,-44.7589060813815,-257.608304945698,-562.998847436766,-97.4592716273134,-289.931022479873,-3.69856756864924,-64.2056996930716,-160.162048402962,4.59898515236131,-36.3429169274402,-84.825951811458,-106.421670753905,28.5778723998949,16.9733382023238,-8.92054555298506,-17.2220991396641,-53.0524755835492,35.7703512742627,45.0892417216597,22.6297149285188,7.68511912813008,42.9714701860939,35.5338781304381,44.0226445688455,287.3978652623,718.37955264782,689.282712312318,791.183236448618,583.753044344512,367.404197907928,850.405160488448,238.589105973856,633.831955383533,802.658711592113,1137.67960330118,482.429687200196,590.383128785253,604.534295104638,756.176157830557,121.031599676138,233.368493512777,849.135235522837,-101.541406369799
19.6127215656308,7.22778222169663,26.8231299695673,-10.8110211240787,-76.4194067189432,-2.84079408555401,-57.0638913821009,-104.952045331948,-49.471630290799,-115.689102606579,-190.337968164048,-62.7299130953295,-140.883682284271,-188.544548515447,-77.2496086598416,-337.542559247819,-127.746616594538,-268.622007879176,-459.794119734939,-125.824269787901,-403.381006775192,11.4260792743178,-135.15447902857,-403.806217820687,-14.5467202439163,-176.217852849645,27.0169875085276,9.21323451201305,-100.736311878267,32.670729132588,-3.17388000406087,-66.2882789651713,-107.192748065152,37.8398283439791,28.3939071294501,-6.4814705005607,-24.9129162993998,-60.3362868821336,29.8407194795275,34.3340459976107,25.2399162007821,-13.8292474083063,14.6099211239621,8.52916168774743,19.9032948701502,91.610149817568,562.931876257123,490.341492558087,449.600774074947,532.984921991485,246.368609102096,405.287941323174,126.382902348239,469.911634202161,479.66297503183,500.232949223532,366.114689375448,111.529149732917,577.52131847125,786.842731434304,-191.951667029847,-317.158411926006,838.825884767806,-529.28818440264
-54.6010186616956,-51.7025559613541,-30.8505984239121,-59.4069932805843,-126.753273428236,-32.9102371999507,-84.218037638075,-128.2013558127,-59.5573983591108,-113.215380339589,-188.964973444575,-63.5875147989603,-131.385332788904,-145.181590061977,-36.2336767491505,-243.851970035592,-96.5489438454544,-223.883834679198,-279.176628381631,-68.1679012849985,-288.551639605314,59.7383234033305,-50.2775766573711,-258.279940233543,38.2441876571095,-93.2205033751946,35.3933901914774,43.6577867113229,-65.7993586375106,34.6170378348158,3.29156270583066,-60.1817571289131,-111.407835707099,24.1831284596011,15.4074435028313,-17.9283193288845,-38.3939823932156,-67.0045610802174,11.5232595336852,5.31690253671654,2.1780273378683,-40.6209553736086,-18.4376531141982,-26.4023491436793,-14.8468843403438,-4.82011374596595,381.732282101488,354.317659887471,206.488936547305,432.53537020477,193.365404634334,-84.9060515851752,116.268848776267,295.876885301088,64.8500638999419,-241.849952502409,237.958434472361,-401.764909518105,461.234344451937,639.729438753404,-526.505850938553,-820.466654305774,637.456816608837,-928.526959112251
-83.1896337750524,-67.397181430667,-34.1674146635966,-57.389549218687,-118.254164981001,-22.380810751502,-62.4220968315069,-106.892721846932,-29.9800178056938,-79.6207366017584,-145.608296249865,-30.9609044962911,-75.4304586451309,-81.2418913002499,37.2292374744903,-90.6807354610971,-14.8792936662168,-110.802070765923,-139.316445491669,27.0356371873447,-151.25230120215,152.751649255312,32.9363741633223,-169.183394123149,90.7957448360377,-32.4970956559144,45.2612066781887,54.7341045507356,-39.0486359348118,32.8805059782149,-1.32956287986061,-61.5773180048168,-117.771766003549,4.85771838876276,5.87329279497265,-26.7970895670557,-46.2154483924118,-80.3026536187855,0.537794046392958,-19.3623927493537,-32.8868816730129,-65.5405054420041,-46.280137852987,-62.4406934658305,-47.3458875363546,67.3371620612485,204.493372019533,311.632633114781,107.897845756066,378.653582495484,219.152576174207,-372.406696712693,172.733223069706,172.925881906844,-231.517945712441,-660.28797513454,115.328066159702,-663.497256012628,206.445132187809,323.479157586921,-685.432169890671,-990.3323471183,261.709471705015,-1083.91811862695
-95.694703092107,-66.9850252116741,-27.7364615188866,-36.5395347314205,-73.6678328741661,-13.2357341490749,-28.7390149555022,-52.9791779392076,9.31153542112873,-25.6501719018354,-61.7213232057338,-0.332865517063528,1.87416581094406,-2.09679368362154,107.233242285494,30.8552778977121,73.8286185535638,18.1668739295495,-48.0218216421192,117.314143773825,-22.688188659818,236.333616301669,108.591671365438,-92.2215631078697,128.491183953895,24.1929431135199,50.6204651776532,50.3534275276007,-4.77320062032328,25.0220434699842,-5.57710806238208,-57.2114424515634,-104.842738372908,-16.5867763907868,-2.72161749563424,-27.0547292505779,-43.0134005829906,-83.6617186335257,-11.0395775398939,-31.9912971782826,-44.8580997273628,-76.0254508821436,-67.6656357905825,-87.9307911130388,-58.724661318672,178.87356700525,47.6863523297632,255.951889776773,37.5593556604788,390.021442800581,232.704168764703,-377.874064609492,215.85625754247,98.9612905724934,-297.156511236921,-603.102118263696,26.1592325091197,-567.545640614947,-36.1054636300036,-2.63864153508084,-618.824712151664,-823.495872449577,-106.507245433452,-967.390350651251
-112.292711708317,-68.0812060911424,-47.6797298518777,-22.6098793742987,-24.3318343984259,-35.6953052654853,-13.3988697615353,1.90971647332094,26.0509430375375,36.9053774845277,40.5641303247798,-3.15732751543817,64.464664026385,92.6722192943242,125.12637373692,79.125251275682,100.875118611641,93.7589503002668,45.7403809572542,133.283635550014,86.0364480430025,249.374051786408,161.461805376968,30.5351941962535,132.056986487469,93.2997862883426,35.5258348762572,39.484138750149,48.1066628261236,8.25867767462084,-1.48203565991404,-27.0056504670209,-56.900807512311,-40.0290356608579,-18.6224443179056,-15.0420221053076,-21.3835751250851,-52.3429351265897,-29.344026874196,-32.4086193124452,-26.1452607235219,-58.3094409058266,-73.7595618588353,-90.5001560278152,-42.7960145995457,208.310141309064,-58.1480859711905,133.882139016032,-92.7682304784241,398.295289846957,197.157813522234,-194.076918845043,237.07548072022,79.1960458904202,-110.168910646455,-206.126743598746,15.3819418726471,-209.576507936155,-80.5977462784695,-142.103184725271,-428.633017522295,-473.731844805554,-260.045217093404,-701.172102397607
-106.076895653554,-46.4057695014222,-58.8062446229461,2.08482845711853,21.6747291156656,-53.2947496239379,-0.532406923906727,52.1612341722876,34.0791622453049,105.927078969854,139.319647382061,-14.0284533233352,119.962410831648,203.80656175344,95.1454808566714,118.589859108666,77.3115464353733,134.565766374136,188.867646580088,102.696240042644,213.962571271938,214.965512966284,207.113327920607,186.417249792031,125.966891989501,182.799255432749,7.43034301126024,44.1284995953605,121.73416700039,-3.59670185084796,14.5073590340662,28.3438269752308,13.1285857039445,-56.1532898117316,-24.9007747288532,7.85237119552363,14.0833212245895,7.48685269824452,-42.6091108217075,-25.9850528389351,-4.42197097363871,-21.6477273093879,-66.2292930599582,-74.9979546726661,-15.0446234999224,225.787179559264,-98.9377972581391,71.5381924130703,-214.747146264891,352.682011523195,222.221100655336,39.0328330793894,322.322247938821,142.419196979867,229.287543668887,148.108092826773,103.847363375071,147.151749251737,80.139074458806,-48.9030365248545,-226.636911766024,-168.955159739072,-131.663799718056,-426.112599941026
-39.6901492321411,24.9373444356233,-11.3489396998918,64.7703107758417,77.4620300085323,-19.2736954640708,41.4215638450004,115.698928420959,69.9039355311153,178.008476468216,217.932898684578,5.45263923234257,187.592933333488,313.164701768861,71.6539142069248,200.097946779549,72.2821749635504,205.19423425301,368.805383082743,130.876024016838,388.84509745197,204.926633687664,297.035060723048,336.223195183336,169.591605441338,306.932535324877,8.27115288172606,96.3216111696531,219.214631113939,15.3107010810753,59.3228691217299,99.4402087000135,93.6156508133813,-43.9776973985088,4.11073360473979,46.495697215316,61.3134399993946,77.026045312476,-30.2305418477923,-7.29590221931431,15.9502422402154,21.668460972338,-53.0136355139501,-47.9338809628407,19.9820343726676,343.404890807458,-116.735580796324,206.766337991144,-218.924504137792,262.905035783522,392.69121257121,214.808343002612,506.28084339914,256.167235511277,482.041278401034,127.937045208904,228.635886133295,221.003245035205,258.207810682196,90.7384266252489,-117.646650578716,-175.120868899227,123.475646054336,-307.088416874479
62.0253607648669,118.5896095387,73.8667665847129,144.108372913199,136.010594519865,50.8732666650003,108.261720242127,184.588784329722,132.974191767212,236.315055286693,263.03403699017,50.8836397721405,253.152005513116,392.034066098455,91.5581246986867,295.607803814612,104.721376314261,322.534389142792,533.099146913847,245.933970234659,594.220368934612,233.15739807868,464.243168336776,499.955063976373,260.051485709214,489.622390513873,50.2693409127917,195.639433775371,354.359785361865,66.5918643078831,146.328323466783,189.76794278674,180.689074871649,-3.05713538842194,63.0867746833245,108.882384212294,127.461177331383,143.024879753192,6.91441775949819,34.8564864048857,54.0220533638721,68.990811519018,-33.1421291608836,-15.3871589495149,60.7353039186258,490.893527138553,-221.842046018647,442.091275790282,-183.763759423056,78.0803701972988,593.008404699707,192.608938250087,675.886591127041,316.958029952649,420.727036320801,-221.217274693182,279.565602718627,-51.7571991996493,241.105918441332,51.2759840426988,-182.569687359932,-540.401368962116,243.627129717217,-439.903460236481
130.836457936275,182.714418242951,135.343077718794,192.685435825328,172.133247161182,105.014001920363,165.549953778966,225.189568580891,185.447866739201,266.66822017569,270.794370756793,90.218665079614,292.868302057547,420.324926636894,125.680738849378,353.49539567752,118.666921012152,438.367947429802,617.36562761786,343.677605200156,773.849151919175,235.475192875496,637.270106140581,699.384330591628,299.987165590424,688.246376638314,70.8646744786016,280.189788567171,504.559000531779,104.254677739469,238.536706038535,283.524713494669,248.310332448749,29.1402899798694,113.208019447637,174.863749709225,193.385381883135,184.826247803793,37.8660224052263,85.5167977803035,98.0002266710222,104.082755184655,-8.13913207628838,4.83274842348757,81.7410790333248,537.90510013091,-413.108380479337,566.814138886271,-245.53943019428,-212.815431484943,659.979554141012,-85.5379517412087,711.404097586497,296.332157281277,102.451113299981,-539.407636990811,231.064047843841,-420.733975981795,14.7074124948184,-126.039835726716,-314.706627867686,-930.287603147101,134.502994055186,-634.901256445784
139.9635108024,198.631739544094,147.346441629649,200.145785427913,185.966613171891,115.586389089966,189.301628711656,228.401651238917,203.052766874655,273.859883962075,257.338427368854,97.775126091151,302.735852523894,398.895561102489,118.529647990237,342.84305249582,68.4435392062894,486.415549761424,573.581426491112,332.623639895956,832.887582367224,172.297593770331,680.099069790496,828.514479211145,230.933196764681,759.189345938378,21.4219186484126,280.705030684575,571.154920931795,82.7800788257465,261.683665082516,322.30555951386,260.01445053109,17.6169140995596,115.911431136517,194.057842251254,207.617119449335,178.061524150821,33.2169422909887,100.575132085263,106.842507607987,96.9328816153603,-0.676289006370684,-7.17990870065149,52.0826281625976,488.695824074671,-467.349426219277,534.9959575089,-297.254650227447,-373.410275365999,595.46584044369,-346.059689126062,625.055814696281,293.6776026116,-102.142553547608,-458.697994471122,179.906538626751,-498.648930282554,-201.464443584747,-156.704973519888,-260.375053206432,-924.956557531161,-35.0034977699061,-558.007105911749
103.412070274581,168.99611637584,112.383764535087,179.196692402079,190.154000357746,79.5983084566751,169.67512315199,210.780290751808,184.125007857729,261.99082754955,246.314372251588,57.8929202843769,281.712919866443,350.719141541349,59.1555912703432,275.264315113254,-30.9717855785236,451.359758569934,437.509784345362,260.022340733312,732.360225237376,86.0628372646204,574.598164479017,753.681316699997,125.22801584157,627.287839478481,-51.2333930759123,203.536246241152,485.502512403799,20.9066749528799,192.834740401057,273.345276715796,220.744447880664,-28.1588395026315,71.9375361591522,144.784920161466,153.918251681593,130.640433972029,-2.51024432018802,59.5201371297733,67.1652876790498,47.7589560971652,-25.4743492708579,-47.0655164593973,-18.6132743337715,404.382224927354,-239.396833310318,434.74191763421,-162.477730239556,-160.996153971324,497.659065247227,-221.735587348674,496.62730950511,376.003664695216,70.8548028987531,97.2959275061176,221.702460017433,-127.325884876909,-211.094697505197,102.516933522768,58.9596120266426,-473.432103992649,-69.3186301888621,-181.903399961183
39.569420175961,111.384779213787,47.2820450636583,141.927168539601,186.454059400878,17.7721806629683,120.20517301676,192.81437596976,140.224461314414,239.155974140963,255.677172928622,-6.41283638731465,243.060534802143,319.624453080716,1.69452087960849,237.537090438826,-131.624744545898,407.525952397017,348.784751768155,237.83123240784,589.372621647764,45.9912585266754,469.264353562888,549.266253668503,94.4394091519102,427.156726810467,-65.256019966572,136.357229261501,334.993242089077,-9.92021655495339,112.710636548815,200.920384351712,191.981101455326,-54.346291219828,36.3669756466874,85.6969832811161,102.518923509251,106.697774936653,-24.3634145625712,16.1873808167529,25.5072182496213,15.0264390519455,-43.5724613388591,-69.2784176951178,-61.0110634733424,311.608587538052,81.093720064555,338.955852290017,62.9479772736568,274.050916797834,423.87554140208,216.279078207625,380.5492976989,482.50975555514,443.453370143962,795.06105537618,334.605834554048,436.892100027251,-63.3658928769574,465.787249497524,461.746517656893,100.489612891593,38.1288025626684,210.741445521447
-34.980894158766,50.218893172162,-19.8207825664238,96.8436963951157,163.159022347676,-39.4875181705349,67.8461386902746,175.16722535419,86.2717810808415,216.397322314777,272.189073512149,-46.5414519271688,210.530971525047,319.628286099597,-9.96662952430966,299.206351233306,-217.525737233054,413.661846618551,401.534941680136,262.322854257031,519.550976317274,46.3518258650142,447.429057670452,396.229027084712,133.347419404189,311.910492659696,-25.3367756930048,127.073741409833,240.630253097633,10.168647318159,90.095511161323,169.473137548203,206.299477885665,-39.0027474389119,39.0158459202906,70.8756870239445,106.693345091881,136.917929612401,-14.2662302873421,17.2527494591334,25.7718295443464,36.8879847148678,-23.524293237587,-46.9783481862793,-37.5054272954954,236.909079556398,213.848343805105,283.332551988881,153.399234140905,519.222614751404,373.839051788066,532.045731910671,289.367306242195,515.479749508354,651.548631838797,1155.70015148559,405.699858960936,788.108522526968,57.2863164318655,670.378665620106,748.377553463998,498.790369132173,158.078996277123,463.456229928169
-92.0953098124239,-0.149952399727194,-62.2089089170987,53.4341767549195,119.009011777311,-75.5907841513443,28.9580121576899,146.485598241486,44.8067310355102,195.077090013733,268.088734047104,-44.7150839925359,193.841073679246,319.205813362547,8.07495905942159,403.20436272315,-302.416710116202,412.038140308175,530.507933071578,221.439576619224,461.120658759025,9.15719919115592,407.255059188423,318.826717122739,140.08694335724,260.509231450431,-0.988579885134584,128.760237845319,201.332187963615,30.2330477241752,92.2709099437531,155.867161886787,225.330650296935,-19.9941179122219,45.2121959214985,74.8159812756749,123.425804135008,164.092380294888,-4.79306463451741,31.1683902069988,52.88682331442,75.0439911333384,6.8662093313335,-10.723634311744,-1.27774807211779,212.396985863301,154.340943383372,273.369446854674,111.855302996723,437.338354606937,331.822244883677,552.130714623409,228.00774719343,469.223553766013,618.290664304334,1051.14468096651,392.490594726576,815.774959255467,102.848542332703,688.637007849337,887.484954582786,704.560093684665,226.455223587838,674.476517361468
-83.9864753795316,-8.6685789913848,-44.9622114033224,48.850828959832,99.9025243094775,-62.0530632110908,34.1374537596391,137.666196846385,59.1034284385254,198.553460979958,269.215024894493,0.0469523963828999,213.784214103651,323.188730047379,40.4009897444531,463.699144359128,-361.979154872695,334.490992901661,622.151886485893,85.9966352655782,313.961622588689,-84.560783332325,267.953515086268,241.360482234331,84.4594715934883,199.891451364999,-0.218668947800623,110.681151819928,178.322959656556,36.6081936980088,88.9013704296116,146.559239439721,228.200513220009,-7.19259481633078,48.6003458398826,79.4036947331973,125.844807315168,163.948390844827,4.20449029675317,39.7143599780315,77.5986083139853,96.8786206784758,30.4134990613464,18.6612047831424,10.554804660918,235.231895734679,114.753576887245,280.824858482064,132.434447098394,307.328410729955,305.187074496941,525.430338933319,225.988982641139,434.742297524607,564.659600016275,813.99445501206,390.602232211574,759.115904115048,188.961374502146,691.711502640495,960.928282686102,858.969392818027,324.116931711575,908.61472782703
-16.0963759601039,36.0078242341962,25.3680806436262,95.399180728573,130.896218118239,5.71264038276087,91.4450104420959,173.960652013751,126.838328806911,237.928943662584,301.706978571863,74.1022078482939,270.251872604543,346.948319330623,87.8474777462188,463.480709202515,-367.813681307461,209.571239374851,606.189533055191,-70.378410155428,91.6769438599737,-179.560227198981,77.5284883362254,133.805203310316,8.57441879791218,114.231865334317,-0.400305507962825,79.3985401500067,162.387512148391,42.3832804881618,87.0309948279926,154.251399833359,225.398493744039,9.41756483484307,62.0244587768893,94.0045742647805,135.141984987277,171.205174155225,24.2456970895859,53.8977442922433,84.5886026080721,106.563591542503,48.1088001050596,39.1478822177358,18.1882955283383,243.277543465017,174.106241415864,256.482917111808,259.898404312348,323.96966215708,286.879925745162,596.021387654579,268.495063514875,444.214460157309,594.3990974138,730.19193275686,448.53490570726,779.273256991569,332.386103187346,736.291942308736,962.470090680868,981.497638841311,485.362167836012,1012.0682573654
19.8186496621954,67.3473036287977,64.3916524638686,120.779363064324,147.158869840021,56.6867485935799,127.007844187391,192.222546884434,163.173826846663,243.935779350257,299.900633605459,124.586688421057,285.32328668677,323.239058475834,134.839748124039,403.880973198759,-335.518944235602,105.554352370756,438.452830517596,-188.340016740284,-135.580372457228,-244.775404333667,-101.757155749526,-24.2827859535338,-76.9461774585238,-1.31989265700524,-25.7476671252948,14.4608287300618,113.440048312886,17.1933781408641,56.300965076069,129.426854895308,191.728272599087,-0.0305551404995503,44.6163091936558,84.1462847728569,124.417117818244,172.658538404317,17.3702870574639,42.1537552338182,60.4196062709898,93.7097104112654,34.5062932902935,28.5281574557284,21.5298785183353,169.464472885095,214.985493495003,162.362033643113,328.788225208525,302.751154326382,216.641441545492,560.356253780142,246.993703541325,399.090715846954,554.045073867189,661.441039219554,440.306616942862,720.642681615609,354.827475130718,662.063634645545,774.8078140328,922.20970264959,545.903943790893,818.754735521631
-44.1442039077072,10.0346389911009,5.18835465545809,50.3344519425602,75.0847137060854,21.2015031673403,61.2359181316415,111.759639647881,98.5922205080055,135.002543116685,178.676492236815,104.735115130164,179.789938416147,173.503479048859,170.001506279704,281.992000062277,-264.342867632272,51.0324636145976,152.129705136588,-230.340785666359,-296.121315431192,-272.586846096153,-232.750660264707,-238.506769867932,-162.32903213075,-135.152769526687,-78.991421889079,-87.7984597656609,-13.5855074447676,-51.5897538460483,-32.5560108288037,19.4502189684764,93.8471505325018,-45.173302716234,-28.8101306694816,14.0409233026325,47.9730644784646,126.351669634399,-29.7286513810369,-21.0167804422062,5.15799319058261,45.7379047916077,-23.0400263056135,-23.5910583095657,-1.57969292295982,16.9564570270065,160.433541783512,-16.9827418974492,220.724178863866,54.64530510745,37.3258840826071,259.676605639299,64.3332758796941,201.059347941326,318.994117557636,329.874531858148,219.561914158011,406.235637758022,114.97846053608,335.653368661919,389.533265704281,601.260202083367,315.161390341353,419.388637313105
-172.453614387676,-122.609683662087,-120.180474674265,-93.2415001541076,-70.6102357458199,-80.3895439934595,-81.9840560329068,-49.1628901160424,-33.2838645109268,-58.1354071869114,-35.8283652572561,32.0959762920507,-4.16496738360849,-55.2491830225635,205.424445052,143.756826909064,-124.624115025184,46.9603064458215,-89.6470174726758,-163.346599425189,-320.0588588765,-237.302828331936,-270.465121350488,-399.110336683861,-201.305462418525,-221.930889351079,-105.412379264256,-172.571561276763,-166.213065464292,-112.002349303088,-129.798744853697,-117.806059700045,-30.2136256648659,-78.9132706903532,-103.000899175055,-76.6892999614487,-58.9234236665884,52.6195196509203,-67.9791696816417,-93.924101522371,-58.1620543785627,-14.7739004932697,-91.8300755406995,-86.8531055607436,-42.5087105475813,-154.323413920515,50.0225377161168,-270.619740575244,-14.0009011261079,-287.297031839846,-227.303878014249,-167.781373441105,-247.460456414273,-121.510218457444,-55.7614693587305,-263.266481135745,-182.579741559656,-93.8180884302421,-292.125846324727,-154.696811842989,-25.5167842665364,140.978713964711,-175.153956533529,57.3337572038275
-271.588784196001,-236.600996531444,-215.62820195675,-208.37303646938,-197.501942971243,-155.861776185476,-187.370092178172,-175.62110758307,-121.607917026658,-195.251696332863,-202.457982452165,-18.0006745196411,-120.063016170387,-204.217419269852,254.711325512023,79.0287921980195,69.1571034401478,93.711015171714,-130.59647350638,-12.1375857497896,-208.301465274553,-131.422947936072,-211.358781211305,-365.295333442333,-177.479280822245,-205.989725364921,-76.2256047141135,-192.189165555361,-219.655690064164,-118.655347936863,-159.595356670221,-165.622001164528,-90.9458638004199,-68.9347895483832,-118.081280085368,-114.150151541537,-108.644779305266,9.76065859593821,-65.3911780968356,-121.494447420513,-95.8671488161571,-49.1250493330782,-129.692213561748,-118.719639058985,-68.8758684841454,-265.02502961354,-72.3459596373082,-500.253092342772,-258.877499978352,-500.218906025259,-458.816779947872,-531.975824900006,-531.506719616879,-423.412998905938,-469.685434125288,-866.361067718523,-558.254248936927,-591.785316603786,-603.760224956733,-578.828909829273,-333.912296169939,-297.483777027537,-660.36297296997,-175.811157213804
-284.153571972222,-259.672090549266,-217.560725482671,-224.472330029824,-231.634240167987,-139.96169533472,-177.32594294874,-180.179106191811,-97.5135876027636,-183.421400033439,-214.479515504675,10.4387943901272,-88.576952090869,-179.697398414449,303.570273819715,107.288482646463,243.945040824019,151.326131784397,-22.4446483468185,124.705949087291,-73.8638375386719,-5.28989134289809,-136.635830957338,-187.535341482907,-133.301778962798,-131.603811422633,-29.9446765866087,-166.010311304527,-147.210649724507,-91.7693839667196,-127.36741441383,-109.577975251729,-70.6022323180277,-43.5411234085932,-94.5787554236904,-93.7417856739234,-88.6112106679344,-1.96582644395627,-49.9284425931704,-110.170296958727,-101.09791285121,-56.4473473214093,-132.3988013192,-116.407819398917,-79.5350552566461,-242.866121732257,-200.821392705204,-542.189734051747,-425.351711227753,-597.733123394734,-533.989784803408,-807.898378454015,-633.778409523916,-558.14639037593,-829.487753993179,-1270.633568822,-716.908006196606,-946.880020576577,-648.738832864763,-760.664900948486,-540.348580721459,-661.341129342742,-873.396862853627,-363.269300416798
-232.048761410059,-214.381461263378,-153.683162578688,-172.170221935153,-190.613937368987,-65.2237493233582,-99.7146359344401,-102.36185071735,-12.010944704183,-85.1478465551615,-120.096505609006,89.8140887277964,7.84302381657397,-63.579426976195,321.279241244487,138.214116628742,341.239259022823,155.620325315393,54.8311312445586,171.032762101421,-8.97396566614622,80.6726868387402,-107.645222402794,-45.184147756545,-97.5684688209347,-75.2919381618341,-6.96939866360772,-129.87490637525,-57.6219053711768,-70.3353534189997,-94.8003246103487,-51.5863112523281,-47.2222112081052,-38.0031813926943,-86.4325717203652,-77.3049786888673,-74.2909143766692,-34.2163147971786,-53.0005726100063,-103.233617766833,-104.559691362473,-75.2093277641921,-131.185260415823,-118.709469554439,-104.474059100324,-87.5607194414084,-299.947155569579,-351.508762643494,-450.494474785587,-708.510448171221,-441.488544075033,-968.520483683813,-544.294260635426,-484.853589542765,-958.772641332015,-1383.71317760185,-647.655638831187,-1024.90357728852,-513.773686205863,-673.250748897211,-638.568090080614,-899.065534493797,-773.278981677241,-523.231967334641
-179.143682226932,-171.954970224706,-99.1028844997044,-127.131575684025,-146.468345231386,-13.3049744048191,-52.9835774074343,-48.0855683055187,37.3751845040114,-22.1550462926599,-46.3003125635692,141.51591796512,47.3508894290728,1.44126636164894,288.179326509177,93.3773496372675,352.012518174468,100.682462324637,39.5769118129029,139.393256938658,15.7693497000282,103.008204687638,-87.9769469225541,3.53784996498742,-62.6664168468063,-32.8807911447783,-8.61845074341999,-81.8141366653112,-31.0746548074632,-59.3617847072564,-82.643151848475,-57.4396807938676,-75.1199661355001,-46.8792448610587,-95.6330595577924,-94.1445387889235,-108.90879543268,-100.561340136528,-65.9485660400433,-110.949456760145,-130.439849541594,-125.066478304021,-148.314742738369,-148.632510834928,-153.023769818221,87.2395462816226,-290.466206036982,-99.1952120373918,-315.067448726898,-796.104027075086,-291.345870911179,-862.589701327902,-394.130898664592,-286.737718683711,-717.790153049563,-1166.51257791779,-485.5928831762,-761.191581607816,-410.679624999044,-434.119710190617,-562.571350426912,-900.162420170175,-556.906267186944,-570.072591224392
-171.008258692699,-171.368599529906,-99.2993749224302,-128.040208596475,-145.423338333395,-25.8076964366316,-74.5256177934932,-67.5018634353978,11.8245356798307,-42.9971442125832,-55.7715114119251,110.960389818082,1.2357044266378,-34.9907899220216,193.39708192462,-15.9143164226948,281.096243159628,20.9431516561359,-11.6975708238761,65.6171287619808,39.9747082615206,55.0693861298959,-51.9857252977718,15.8008728355367,-44.4011651693862,16.6045718275731,-33.8170470412987,-32.7160593219869,-48.3272704690675,-60.8941654718693,-79.7121028446316,-100.610526085719,-134.88969308058,-59.5992649477308,-100.683703305248,-124.250913405185,-166.919725504684,-170.805450306046,-79.8550235296957,-123.6737908297,-173.516641304393,-188.031162620997,-181.820973792705,-194.283917581771,-211.656807553222,135.623679740523,-175.493770382153,-1.46046683710785,-108.729427639327,-763.647224556136,-209.426990955739,-484.10400077668,-316.113669112698,-115.045857661577,-272.944502268022,-750.109060855008,-378.65564780689,-344.901026694816,-439.159375821772,-251.061401941554,-346.258918133651,-671.559019316275,-469.112623421132,-492.058053016753
-204.819915057788,-208.416999946867,-148.864521022723,-169.699580463916,-186.168711950355,-84.7223779321529,-137.765568016857,-135.164944776823,-63.3549859196016,-122.772284032213,-127.639509463071,8.75273096037413,-88.5218485154533,-131.058876150576,47.2076754513333,-132.637883852987,150.259110967886,-67.6960581420711,-64.9416334610723,-40.4197112167123,34.6079338750469,-44.4746789024047,-53.2304898469642,18.6398533359139,-68.1822236824768,26.9224123186046,-82.543564571828,-27.7757124636942,-77.2620225624183,-89.4414334443177,-94.7700444988446,-143.797717423835,-194.43572822031,-82.9818967285657,-112.811123959668,-156.25474049434,-221.953959827944,-233.2006148467,-105.830326885193,-150.865251977983,-219.295655926867,-244.270019223721,-222.605581502662,-239.261339662462,-271.675067833198,28.5289628479904,-92.7805420107229,-83.1196129170942,27.0402030067883,-670.013872285567,-236.990384591794,-125.882000759174,-350.416863235702,-75.078124391067,18.5462941218271,-449.243573803299,-390.304558426582,-97.8932741162946,-541.12132997414,-254.089979026105,-119.664679678754,-390.809838460744,-574.483129811335,-345.587991306425
-249.315368985911,-265.926236734136,-215.889214785354,-231.723826993869,-248.564842816947,-151.337942207547,-207.032746896296,-210.101771608457,-150.133542804898,-215.733900551847,-220.938823524797,-106.819449606557,-182.211250643082,-230.728613752522,-106.268356160577,-205.434757901441,3.25944637395034,-153.544918621525,-109.075985787208,-172.427833402018,-23.2488590031262,-147.007825600309,-133.291290903633,0.544630560544531,-123.172322729552,-45.1864975094006,-136.889250573028,-84.5354761334816,-119.437966758413,-139.742533233536,-141.789159786141,-184.027060307936,-245.752789381297,-116.515858266424,-152.293424892546,-198.601634521124,-272.527542707309,-297.980772661936,-144.14858773959,-199.51395969684,-266.088958927058,-295.922633930395,-267.350995272403,-283.414538263216,-331.691797713668,-129.759925266508,-146.447727191706,-201.780835040867,46.8866634447159,-604.060776540349,-353.758702973629,-55.508003424626,-486.862495528486,-162.56375003409,9.28095777114088,-462.027630615761,-502.670870298421,-149.031544731389,-632.873614614441,-377.433036299581,33.2303576059515,-229.53771917027,-727.740589238858,-146.62062424019
-269.512732656377,-306.926978540943,-258.896309763717,-277.164597296534,-294.080900478285,-194.964574006125,-250.241374009098,-255.557241884775,-216.770330818436,-270.324363756334,-287.259841101452,-186.529054394125,-246.890275894636,-288.322213188618,-227.842783359163,-208.709941872051,-150.437396685181,-212.87631746601,-117.41437465149,-313.261268461016,-103.730956692917,-240.474448266427,-248.907830234866,-40.7775108276786,-191.577680206206,-161.554710666743,-185.566316351807,-172.01826705329,-169.486285214381,-189.351278645828,-201.58136405379,-218.328735583497,-277.090651528344,-147.633269611927,-204.002641600098,-244.972194769902,-308.411642590645,-345.535900405734,-178.418761742241,-246.737370156473,-313.062918446014,-339.306291344626,-306.867324439354,-323.16221421191,-378.085392287374,-231.440178231322,-256.83318768419,-260.335631560995,19.2773076012521,-515.221134302277,-528.155757056387,-202.802664081204,-692.733811527444,-317.72398389948,-152.02301903764,-651.298496496496,-664.90631294583,-347.072813049843,-682.249084067857,-477.071320130137,90.0449140162641,-220.219022649488,-770.408245778664,69.5232245897811
-223.296652913383,-264.029235466287,-232.562711243745,-246.819811954814,-254.850403738794,-187.919217300816,-224.561045829453,-221.333295669499,-223.565655484944,-238.498217585134,-260.289531775449,-210.022833679976,-236.21112969533,-255.702123521701,-299.918280999199,-144.18345251273,-314.720414932816,-230.174431867588,-73.8264682733546,-411.215664743382,-158.298995605164,-336.562087543472,-303.692304987651,-86.6692059136381,-246.164823464349,-240.383752333342,-222.616412522348,-231.125263448282,-188.367997460864,-211.334104517369,-221.990045345189,-213.298285581149,-249.028898139307,-160.967540816801,-219.99293370826,-254.288145752717,-290.562288423078,-315.763634200588,-185.797849884121,-250.142819038502,-320.414337915237,-327.98091545073,-301.82061885096,-315.602189093208,-364.08748026993,-231.15933259939,-238.521029823546,-250.16307478088,43.7058731694595,-325.547444485001,-659.100109156817,-281.863558800802,-838.508058296729,-442.333084780235,-250.654670969509,-685.412428723509,-753.493357734009,-428.722204522009,-631.324327389516,-447.128337570918,72.402946688461,-255.482933804603,-637.673032437305,196.480053208893
-88.8962881659262,-104.513626312455,-119.483524267352,-111.247727774879,-97.9336160265254,-111.874496267365,-106.432220714072,-84.1684967207559,-143.164867994325,-113.933720826368,-119.074687326235,-164.443329013307,-133.698138056486,-120.168539445756,-298.272268645589,-42.9273106875631,-413.063282091257,-213.696949806714,0.626849726141902,-384.802951232916,-167.863805477746,-382.753520497802,-236.176621986153,-103.769272812547,-219.58905154132,-230.645217039444,-216.985501385641,-200.091249523193,-144.079481043175,-172.736743730517,-163.214400780941,-135.717208880174,-130.805342443416,-137.012198161231,-165.78161333271,-182.446319052494,-184.632435382655,-172.47187587937,-143.346625861079,-178.332053819383,-229.191742285685,-209.555246472933,-208.205424276866,-208.841308540155,-239.345127983265,-125.821458973095,11.5245282746414,-155.446345494743,196.972060301581,-70.887451832134,-590.678689481898,-125.075811261326,-738.437483482856,-399.616716007953,-183.511712208717,-388.327407414874,-589.614077493931,-260.450261222153,-378.077175020227,-214.239437439964,47.1513892582606,-212.352708512052,-306.272804745079,158.989635691174
76.9606542596018,96.2453688596737,30.3991822626074,65.3078495321765,98.9706887232873,5.63432899490663,50.9321904029666,86.9020587716938,-16.2231717627487,34.7831719249281,48.7670985216247,-66.4103658820639,-5.98945859112981,36.97563204819,-225.106288383363,27.3202341352245,-354.988530992417,-195.594674678316,45.1901917786373,-233.005025898703,-168.992488607855,-323.94468472565,-98.4566398310692,-83.4523655561036,-98.619471640009,-149.095640663569,-153.640043338811,-88.4621674694586,-67.4518526379274,-80.232311105224,-54.2552025885979,-14.0665201714958,35.8728914435783,-73.7188264814305,-65.583427809642,-50.6512464345258,-24.3811313942648,26.9751711296545,-58.3300872095175,-53.4056513291664,-58.0084593217155,-15.8910359516519,-48.8132147340544,-28.2874513012609,-32.4244778424982,31.825353881248,398.207051609642,3.42327450643918,451.850212059472,132.465677292124,-307.754108180804,168.044038916851,-378.129150883988,-167.320770972435,-0.460264185495966,68.0578769976976,-177.770455800661,23.0316347772902,41.7730319680688,171.802069311113,40.8108595671939,-107.830403552049,146.118323508768,-18.1721672299695
164.171634938002,204.572466750251,123.898101945325,161.50594971935,198.763395090459,90.1659887801517,139.417463598442,171.26272324982,62.0465580217199,104.330361300064,115.581063807333,14.1344811899093,47.6246431605991,92.8933183070011,-149.284127682887,16.2329984232485,-195.301924565349,-197.537007899044,10.2980421709498,-84.5242560173024,-199.352258741991,-212.504565076507,-17.7771100851024,-70.1439380787004,3.8375421693573,-77.3660169766956,-89.1778838607768,-6.39366440831012,-38.8262982353365,-13.0782233249358,11.8956281845057,56.4111197364924,133.577755143671,-16.9987036104397,3.53262151942613,42.6155055166078,80.1061950408349,148.622139248052,10.044059483725,37.464501808708,70.0868150615565,121.922909579303,73.9881635483329,110.127674037337,124.689643964079,144.961066167283,664.149813795489,107.160928481525,624.847426811341,164.771659474246,0.295029811657596,363.564962023756,16.4072316123508,77.582134775447,148.198870245501,365.484830914662,207.254900930269,164.339338125294,395.826583496371,472.919585025122,-7.5616047252663,-54.9499988807697,483.972250887393,-251.840540134507
138.317475154959,174.569162162573,122.234606449382,133.607292105814,158.323211774075,100.269470303239,120.7192464747,133.739672941193,56.0416159147237,73.6436480677364,63.3823280255297,33.3072479205309,17.0268676705505,35.7612148094197,-115.856850849903,-19.7129469938837,-70.9388708836234,-177.342102021011,-45.5404488995715,-30.2620883526142,-206.163693066024,-124.161769434529,-32.5935274422272,-92.6860002077064,6.55132444020901,-80.0458449154194,-79.3245826239494,-28.3723043241013,-90.2908134821107,-28.7766411149962,-16.2467398326527,15.3721175646832,84.641523385573,-13.6262982341311,-9.23343349883729,28.0493840280566,53.2735366873351,113.11110836993,10.2747617399414,29.5665909129508,59.1731973370621,107.508514238887,79.5100930039012,117.778953287972,124.429277251155,156.396338755763,622.06632722772,73.4305858049819,552.918387901788,5.51040398457731,149.877409530891,333.827255466402,222.862698753362,161.095586443595,149.644674521192,392.133343894158,338.434742248699,85.8401291519595,524.158623402202,491.747712471113,-119.582992049011,-50.0570834059567,543.608958379297,-428.131736328573
