9.5695298053467,14.6442804596972,0,9.78701911910457,14.6442804596972,-0.507475065435052,5.14724709226982,1.88490738590162,-2.60987176509455,2.53737532717526,6.01720434730133,-10.0770048707817,-4.78476490267335,6.74216872649426,3.33483614428748,-18.9940667348548,0.434978627515759,5.87221147146275,-0.21748931375788,-2.89985751677173,-6.74216872649426,-4.05980052348042,-10.9469621258133,-18.8490738590162,-6.88716160233285,-18.4865916694198,-16.0217127801638,-27.2586606576542,-12.3968908841991,-0.21748931375788,-1.66741807214374,7.4671331056872,-3.33483614428748,-29.8685324227488,27.2586606576542,9.27954405366952,0.942453692950811,25.9537247751069,19.1390596106934,25.8812283371877,9.85951555702387,14.7167768976165,12.4693873221184,15.9492163422445,7.03215447817144,5.94470790938204,6.66967228857497,5.72721859562416,6.45218297481709,5.65472215770487,3.62482189596466,4.71226846475406,-2.46487888925597,7.75711885736437,3.62482189596466,4.13229696139971,1.95740382382092,3.55232545804536,6.52467941273638,4.2772898372383,-1.23243944462798,5.87221147146275,2.97235395469102,5.07475065435052
54.686744672716,75.4314846142864,0,55.3562443153705,75.1414988626092,8.03152945179242,36.385482286625,18.0783937240068,0.665576838460097,22.7692608549844,34.2062195166507,-38.5356141739627,-11.3216595561942,38.5161162125191,21.6959328993123,-83.8917196888663,6.63123925341758,34.678174635192,6.50764771135543,-8.68500710899688,-25.394260949127,-13.1014636455465,-44.6209453267878,-77.3315203292362,-24.7773129547471,-79.9613368839753,-70.5129323606281,-129.849198040901,-49.4709239467213,-8.49911493793825,-32.4156567306458,50.8006210795097,14.2623003086571,-142.812951531268,93.3834897674962,40.6238922605049,28.7582279760511,147.798620874519,79.2149711710059,98.0845527073966,62.5149034238678,95.784495424095,55.1796542968327,89.4529909030764,56.493776272372,40.8943800507385,46.7991983808313,39.5724124668102,46.0572023002574,42.9982332945298,29.3066023367062,36.8588939492982,-0.966321286789907,49.8567108424271,31.0465168467692,34.0344459587094,20.5972808056692,30.2675442751698,40.9639634003941,31.8950727680243,7.92642615524305,41.6378326754442,24.1807565782128,37.1289349113307
134.810267916408,162.411384361162,0,136.37436418626,161.252897898585,52.2392979265456,110.268085611827,64.5554984116242,48.9713178923619,83.2804990348234,81.1524819913483,-38.8964011602198,21.1231632253686,95.0673529478779,62.1249787701731,-140.360692699841,26.4998359477497,87.9468367899663,32.6362970702715,-1.07638590582082,-29.324620048605,-7.6317803257969,-63.42289831122,-114.222613549857,-23.0747168064473,-129.098821126084,-117.839967237252,-246.979102089743,-78.8746844137943,-46.9800361536892,-150.509847098936,121.665293795619,112.410825142977,-274.42306862804,47.053969747592,39.2765940565313,116.347068629147,347.914390313209,106.002563162843,86.4611080778509,147.18559496273,251.343750675592,66.8568199663465,202.085470476949,178.583202986332,113.062723714446,133.023036244511,110.940057275016,133.217342730235,130.1979325932,91.6649299019868,113.782337850395,29.6409055102334,134.175301849328,101.153224004623,108.668138684485,73.9401051358179,99.6619897488414,108.077506959867,97.4417521920681,56.5361612168065,121.550226925354,78.9230702233271,111.070966403291
184.469485829094,184.578895878014,0,189.784456812922,184.856944952535,124.67113463017,184.762153975017,115.61746800781,146.74305712707,164.410932856883,98.050255042182,35.1054102704701,111.522698055017,130.044566833987,102.256686891231,-106.55840597139,46.5456158453467,123.289785138118,52.9271916018339,24.3789693249911,-1.59247412437013,16.7253131073778,-24.3093086520784,-71.3924514450895,22.8883937657634,-84.3687435297101,-89.7870787592124,-226.732930286718,-93.1134125064064,-117.736368311217,-331.873237857225,81.1677581565319,212.144206280438,-271.051823167256,-233.447935409078,-116.898525872301,165.544216160488,398.546969046728,-1.83573932421452,-160.38789608661,123.27344596605,312.402283541519,-77.132236530485,208.800486201535,298.52762306107,156.436034952814,196.372562650105,159.180865512567,198.633791498734,202.310407757489,142.533156234422,179.307226153052,73.5209533570128,190.629743918592,165.374037152337,175.975225593236,126.54571567216,166.601456805533,150.542720365634,156.13387451092,119.566803432471,186.329049745314,132.822020303785,173.769527981569
150.722367548719,108.300940307195,0,161.088679292561,118.894930251385,161.695775881966,187.892856549997,113.552750159241,208.594726065162,198.216993405345,51.1346209727932,116.030919072043,182.276461739354,105.567259618988,112.933225665343,-43.6508161771107,43.1663353244949,106.260918053091,15.210478057392,43.1541014501708,14.8060454226461,30.2313034111142,39.0305732604404,-42.0993578668418,90.8337572960665,9.55550049671803,-19.2163578451732,-58.0546490629858,-156.029351215355,-147.603970430877,-406.260428937841,-180.081650907281,66.6057091346811,-149.209610976452,-482.05497889452,-396.178535559009,-2.61903005677209,99.5539612971589,-147.365057377881,-460.507168567413,-101.418837857379,96.5990307220556,-327.257874940093,27.9942425456858,300.804119850998,101.173664366333,158.257172725704,113.527767408604,155.856990608901,168.371444808029,108.25752673649,149.819478203187,58.674966047678,144.206587473903,142.102152235642,151.951812082883,108.225756865545,149.503531753668,111.21094400891,136.874048712018,111.494627805667,156.676397958302,120.462664233972,148.422895223172
76.2351969570659,8.69704305629687,0,83.5787026351023,39.119927522461,143.077246226328,128.037113187186,60.8807930829177,183.660028502378,162.59244817844,-19.888264913576,123.643204259408,169.626782457913,50.4689072107119,105.003224472614,-48.8685990859396,36.9031670387882,71.0304275114036,-61.3948287501183,57.8493779884402,3.0784256844605,42.9665866880387,94.9131910976964,-87.0980518115894,180.058442665352,83.0465711332779,52.643830683802,142.64851388344,-223.288375111041,-46.5858403121144,-259.303238765991,-470.907972537482,-344.444219356022,-40.5733805279168,-383.721801483799,-522.14076934272,-318.653850949032,-409.567808538465,-149.322422573702,-494.514407518024,-329.482304521227,-261.676756370116,-430.358839915678,-168.602631129289,207.274408838717,-4.52177035177203,60.1603086790913,6.92761226413105,43.7264562838343,60.6763542043111,9.53413754632417,48.8447790889114,-20.142640984893,36.9587436668858,47.3562119471666,55.144352819539,28.8838075611132,59.7158071708969,27.7056775910067,53.6417376544708,28.8073312472437,61.138127723654,48.6659274197782,57.833819817594
25.3046542312217,-53.5350853179004,0,25.1626800533252,-6.31661488051492,124.159245198864,80.9471157154436,14.7171012822936,136.450720828554,107.277027977347,-65.9030876590226,95.3816788013293,122.81143262135,6.90838623912444,105.72070123513,-76.224658781898,64.7702754254196,68.0627268009914,-95.4860778591209,95.7672126377922,16.4683746237782,91.9736130260385,167.811893811754,-84.7438601351791,294.472128550305,183.968595739384,145.693890976325,323.372249460114,-120.311141829128,142.087627768742,17.8857025915751,-483.200936053611,-667.594747682424,40.4696281442769,-75.9964406817424,-314.794303014653,-473.179239633817,-765.714429104953,-43.8104092562315,-280.607297831491,-296.363309592017,-433.680216538577,-274.536359803222,-163.963158001679,110.1251763933,-82.3157593238366,-22.8222965108656,-86.2476682863237,-49.8880244719936,-30.5632198225044,-78.0402182245728,-42.5671796150049,-92.3410982051351,-48.8201859331404,-42.1215286207674,-34.455045332798,-45.306907132327,-24.3152592485399,-34.3697398023589,-21.8073461692217,-48.3574332879203,-21.0525556860874,-16.9024872990251,-19.1482818525055
5.16837733432646,-76.5459847942443,0,13.5965058464204,-28.9127973008765,142.651629400692,84.3777869106397,4.31057191543718,134.216368570564,79.932457819747,-77.2304382811681,102.473524699864,110.736697228715,-16.7637317935203,127.362924795734,-39.7859368058071,122.447227523585,109.491684128391,-46.0263533836364,160.287860093435,95.6503326867554,167.216485040239,273.675344709403,58.2340701304598,394.314725650875,373.50248270325,245.959408148583,503.577509232288,197.396287495165,291.110516158394,308.290449158746,-191.12806025345,-595.791027946346,139.590749608967,160.827934470275,74.2355606009508,-309.412011866893,-724.757229816112,26.2920079030239,-32.8332133356093,-26.5008182915675,-304.651884145946,-9.47035062043241,25.8124661380709,41.1865650333194,-141.98727757639,-95.6480237258508,-153.476453021135,-119.895017483547,-96.2265362067283,-137.300898341193,-107.810655891867,-134.069940323781,-106.964088207016,-108.219197748901,-96.0634842461694,-98.8736727332704,-78.1788727766867,-71.0017902997319,-67.2605058017577,-91.1779578978844,-76.7782351294549,-54.2083215427813,-64.2499151957929
7.84566591911842,-58.0257367217578,0,39.2493694365584,-20.8506661367519,181.156971744096,120.178571630269,27.0598769944135,167.742903047942,90.6829476582615,-52.0551278774686,147.981657690983,136.828141925762,-17.8096113279075,173.086949948486,49.4791593693355,187.418217465495,181.292615178738,58.4218311986807,240.005576575915,217.471817098631,246.404231456804,393.015345766374,256.759791485533,468.879011783855,586.427234189591,338.233198486602,665.060172860731,537.551192902057,374.671222376559,570.008823432063,164.282500081627,-200.804433463572,248.729799317481,316.285143903291,401.626335715339,34.3834174022818,-350.169545584983,69.2096186060223,188.687223112869,258.47944055436,-30.1078348996413,201.978086344531,232.493648344993,20.5824441882395,-207.064013354065,-172.386803570582,-208.548184446064,-184.909370191301,-156.087818157567,-182.706888473491,-160.712347484195,-164.958504877339,-155.816079755383,-162.857016741675,-141.60907570409,-141.078050334816,-117.786798400274,-100.10068872157,-102.484461132442,-119.408363098802,-118.408471711408,-82.4544331318312,-97.2798223604948
14.4885134636022,-21.8828724431621,0,59.1639462900923,12.4786428305741,187.510659073832,135.854954803716,51.1577734232584,177.298054188811,99.783295941383,-18.4848730414651,168.446933331145,148.802516473549,-18.2218735595028,202.968573174373,105.832382531317,220.679899799395,221.866883418975,129.661434780649,284.074953488105,283.946434308462,295.602284741161,440.48536799931,341.295343524644,489.049195481794,637.274314037094,417.151590846955,686.646674515724,634.877054632283,412.377197224053,683.445381862771,348.771917635825,173.586150483788,316.852494602887,428.788946800023,537.39033274447,297.806031814873,35.4583984169569,131.159493692932,356.887653066791,390.631777024989,173.721280383691,294.674252749814,322.579051436767,30.0856284862632,-258.4235275824,-237.599455740857,-253.381244103082,-237.001044342951,-205.272046352707,-213.139594011417,-205.228794666016,-187.670879222901,-193.728692535353,-204.531976603828,-178.908160579535,-167.989298706986,-155.476502616779,-131.870298114507,-143.11164439378,-150.184112281117,-151.997770164177,-117.428127717172,-134.431381876436
-10.2104070335086,-12.1076727013526,0,40.7985441495687,32.0251927946516,134.658997801164,98.552888826939,42.598979262734,131.405108784179,70.1691764639961,-13.949570170582,121.452453527766,113.268822943815,-51.0232095450583,166.966806469306,83.2034285359197,184.608475344549,170.273953337048,102.032193189847,232.210699498249,218.522251614558,261.939794900986,329.966129615703,248.609287891138,365.442976064384,437.695299314537,417.513050388092,487.159454651938,431.400534484288,367.366305859577,542.630748580553,314.992558385493,266.906945734686,313.867341167072,416.072410399954,455.828980288168,318.64992478939,158.25818167649,162.784388159544,367.56209892959,326.024163709904,185.872019623479,260.020656387868,246.93583647667,-18.7771291672453,-256.642005725378,-259.304936714493,-259.143839298474,-248.420543697078,-222.15855165085,-204.007581454049,-222.981230385714,-179.109953593996,-201.337395388269,-212.560039123493,-195.405744777516,-167.180791591718,-178.003090644961,-153.016418576305,-169.292427557934,-171.705473020317,-174.894486557807,-144.344491715541,-164.231245189756
-51.1243451642066,-9.40699541763269,0,18.1884467593131,44.1900198741724,71.778547135014,52.9014148158339,29.8101684119321,77.5291763977231,43.5341315955819,-5.67115421159315,55.5254180958922,74.0434044918038,-84.6527875206017,98.4841810845315,36.253419938399,114.481003233873,77.2818283867979,32.2348298732001,132.850575861091,100.27440676842,171.600922600866,142.752906453897,111.63168393638,136.054898879315,177.294577404021,313.358338351454,211.786134095509,178.810999077363,252.045106709888,307.319856145215,210.591108164748,146.611388427768,277.871474933765,299.358413695195,270.827993493376,166.421737685719,69.1514108672717,150.371878457797,251.795462033592,148.57590435291,55.3242268631922,160.62926286177,58.6232001419211,-141.08979877854,-165.212607845231,-189.51016904976,-172.314446348783,-173.403829997438,-164.547455371221,-119.345480226428,-162.548951323787,-108.315886989217,-138.770502989445,-144.544303703393,-142.433892804151,-114.586306780774,-135.571218794183,-119.338935219238,-131.001908234415,-131.482428994828,-144.735336370499,-120.311503474525,-133.661704359863
-74.3503210865803,5.74161671994807,0,9.45907862947736,49.3718164163062,31.7828644638077,32.4811130598039,29.6191199789749,49.9768912418057,44.2660350379495,19.0250539571347,12.5809303441876,63.431639161527,-89.8732917884895,45.1508647723992,13.4124141203957,62.1611938002063,21.5527566126793,0.199930901231852,72.3168475706623,45.5240781451526,103.950580224067,37.9287460563889,73.6528462974451,-20.9917186820714,83.1653934636705,181.289406815999,65.0344978991607,123.646842779624,140.109351997961,210.332996545877,181.754092304161,59.9672783602965,236.546706420005,207.674913527183,155.569683598328,39.6382072405438,-7.50986329783321,131.817129458566,163.334984207051,4.88308430923959,-66.1440145849471,77.4218453562306,-117.931743542483,-250.488314401594,-21.0725966660188,-54.2548803042688,-20.8783310362965,-39.1841200918466,-46.6157170091823,5.97400143564804,-38.7393213270075,-1.04130436243925,-25.6846655058173,-22.360213103522,-31.005980326877,-30.3600404373823,-34.9203746143273,-47.9444919047529,-44.932121438041,-35.1193509623651,-58.7429273941102,-59.0015811080752,-48.2767592931108
-92.5162447764387,-8.7163929502649,0,-27.1308669437169,-25.0941305260795,-19.5060070579612,2.01872944813514,-23.2940944717388,18.5484170490974,17.8119601209012,-29.9979097186199,-36.5076038555236,48.5717175342116,-105.347782037453,-9.08337034985054,0.951566547278492,20.3261400926875,-3.72338079692213,5.75897968139957,45.2046905550992,49.062157827083,72.8996696090467,35.0947427087219,123.189175800616,-28.1662595975673,123.713989418374,95.2924862965716,59.1160103359733,227.715534400212,75.2627332185201,237.498146811861,247.805799362754,145.664150409191,184.096462290602,183.913027760748,165.010077853452,62.4885410574,39.4823765761366,118.170667114104,163.168483383119,-9.1660659181128,-65.3078238175826,61.2428983946843,-166.368544197755,-268.910259047586,96.4381804424715,60.1120398700167,99.9650102173249,65.8366376373395,58.9280570247117,93.655235186391,64.6183829881613,77.6565778602462,61.0947219358266,71.786607025212,61.2048710857813,32.3752056255579,49.9460401508964,-5.217608747105,17.5143488755645,41.4176872952878,17.1622255447295,-19.8976540449961,16.7675769057107
-122.698616759311,-62.3863957707945,0,-102.500353501883,-204.258011602904,-93.4737831489922,-60.756401718515,-171.284932162934,-38.3436436447527,-63.5811218523636,-203.154317207869,-114.225808097856,10.4351660211693,-149.401080793145,-79.309343329409,-6.05486563781193,-34.0854617676931,-29.1789379749489,28.0720423847651,12.1883925543781,55.3737831329776,40.3446817046099,45.85774195021,180.170050200374,24.139241888418,127.404013010529,63.9833852745099,73.7277128155799,317.301121003584,73.6446423729555,246.316602410928,381.823076795744,358.674322675349,161.350911441257,204.584790386399,247.421191722493,220.220046287383,187.562997131421,135.821621563185,229.021188923649,102.834648864628,64.4023845059589,145.016852191648,-52.7424862971485,-165.745771397453,190.955274306258,151.497363534975,180.660728323769,142.32229656324,143.600607139758,154.048125837538,138.236187945271,129.093798175175,115.874319665476,132.286885303291,125.977854613773,80.8005883205429,105.683368263321,20.9809404672488,57.3355496213361,87.5937026519395,67.6881425468505,3.90263757328565,54.4067824494449
-180.112349754466,-127.577906278689,0,-206.053141351303,-390.427013621158,-193.779532024542,-177.128367810093,-369.480653407415,-148.492379565564,-214.365057730033,-404.027253792014,-247.441350738916,-73.6669215976056,-206.309447446308,-181.2817431429,-31.7909017859432,-124.204192879748,-85.3478205223861,26.2714291484776,-53.6210931895088,18.4519266622244,-31.1404806421999,-4.36470958462057,165.246729663186,20.4006802548923,18.8717833699403,46.6201212685937,26.8288239828054,284.333675057639,105.652797034074,192.660589561372,495.874239867639,529.884658690098,179.23892229193,232.874174481621,313.418036020153,368.986325653557,330.792428072857,180.540257797543,304.219263636459,225.947557217647,202.868648312502,262.53393372501,101.735825057855,-17.5798162204055,278.889463380162,227.858468483191,246.416523813929,207.848266135523,203.536394598524,210.676723139083,189.475335803504,172.573271469664,155.49404737273,173.619983530606,169.525018338075,122.298605860514,137.336443621995,54.8546747993364,89.7214755382181,114.866850720051,97.3933586696792,27.7303327818135,79.6225752239052
-273.627403479261,-183.694360046468,0,-328.90609510315,-451.04058659764,-341.527316916663,-374.289782559664,-519.668210207042,-344.639040568014,-455.058295568354,-467.749097741961,-464.990001317663,-253.18558606596,-257.284158893351,-325.168508210496,-108.787707155327,-236.753879782975,-183.666636204389,-37.1189300138091,-147.389901017561,-69.6326959774457,-122.917451481488,-104.97440982638,52.3100937114182,-41.778315925235,-121.381669877482,26.7911385008611,-48.4804701604598,140.956044616034,110.001347122713,123.711467070176,455.144959957222,515.21871247079,170.667995648975,216.486864824448,281.946579094036,354.296963409238,340.080668494518,172.617129504111,296.083050676273,221.166665419501,204.232604731502,269.548174111261,119.505138664163,17.886805814049,279.176039415247,190.459711196431,232.016479183214,175.910301205889,151.969541792008,198.211404894142,142.392588776912,166.035854620744,126.849853279283,130.578631642847,118.720976311335,103.665473417534,86.7892450971869,49.9075586681301,64.8324102014072,71.2970829201016,53.2543816816319,8.30700572143657,36.9844317118978
-366.654494195798,-193.801061651613,0,-407.071714530451,-350.389010766583,-501.342777747445,-588.14994007516,-529.637604401528,-580.997344060956,-693.236057524447,-332.897188246438,-702.009281327125,-516.898311326497,-258.129074395973,-443.721492652048,-180.904699588147,-292.448457995061,-257.455982993209,-102.286670690493,-199.578678243898,-129.454092327257,-153.630709126461,-160.984121982448,-56.8819651740001,-81.4168277355807,-165.578871430608,32.7166862835941,-71.3889420279828,6.05868300746716,76.462064422779,78.4285909902657,277.584289554902,356.349052740152,115.709007680083,143.680888621806,167.371335610217,200.171787034015,216.172394693471,84.6412517351084,181.418233257617,82.4567049295411,72.4851057350566,138.049632023506,-16.0709301810536,-93.9943327736161,117.955653944148,-13.6098874603667,74.0113605834944,-2.42581626251026,-38.3225355378465,73.804387313286,-30.4292808477517,80.4173520333033,1.65064576247937,-21.14204549084,-47.9194098325542,5.39660721851448,-57.3100554905185,-16.5659438453804,-32.545155576247,-52.0223118542607,-76.6833203589988,-65.4431750051849,-89.3617979080878
-417.81251477348,-154.24184585694,0,-374.633149677266,-194.033488165849,-605.550359787597,-691.785285591377,-399.189699262096,-756.682655126562,-773.233007907127,-123.167055058459,-838.548823978056,-765.411373283609,-188.394850703629,-465.453166661024,-178.342032272095,-259.388293806076,-249.087958365743,-94.5761994339501,-170.717480631092,-103.513994208968,-105.673486912227,-129.750077710497,-59.9978413111934,-78.4148516364168,-106.556145819697,51.9966115441155,-43.5093843038053,-24.9081008115811,38.7906838301489,58.3603490181853,139.602582896524,214.884941376772,64.4416619936371,68.5215321848762,72.0239719021425,74.6961522714956,102.25493878502,-3.14379660566734,65.146581344272,-47.110063998599,-41.4708194592653,8.598054651718,-144.609647374354,-201.349047796909,-140.974676502909,-250.176383117136,-155.678034724128,-219.410648072774,-243.360358396643,-106.793421945419,-219.515107000534,-53.8240042510167,-158.862777629127,-190.586101944478,-220.272156130018,-124.686546656396,-204.977164594556,-114.542509659364,-148.982757679692,-177.161406414054,-210.664675240185,-154.495643505017,-219.021000389697
-379.668998569199,-98.0264742594528,0,-226.178611780336,-76.2482028523252,-592.405321091678,-590.75634143199,-189.433343388245,-755.220482540589,-637.296675856335,26.5492163276425,-782.251654033144,-831.010033068625,-73.831143917532,-384.257944166442,-104.507456212289,-181.662602155366,-178.579711720723,-30.9112399737284,-99.3158104838166,-37.7320265276313,-41.5286410045451,-63.7594472098405,12.0940680678789,-61.9374353405853,-30.9674764565484,58.38086872333,-11.472632849385,37.2932359737078,34.6330887343547,76.6562511033919,151.715089642412,195.38757221885,63.2830186780554,67.9633686371349,83.4618873613501,94.1366732952777,123.241165831113,-1.61978016235314,72.7044272670302,-23.0406977135071,-2.06907201231024,34.1476310288742,-106.395312874607,-141.080296898745,-308.865160840661,-308.229926312774,-273.564195948252,-293.119409896789,-289.315859528045,-221.082438705121,-267.62221550098,-156.282350044764,-237.878534398542,-245.953394618724,-254.318958140969,-199.285759318508,-240.889142660587,-182.59618817365,-204.382013404671,-206.795586334166,-236.150617639083,-201.049377444407,-247.652578213506
-206.731009228913,-20.4618250099828,0,-0.943816044918042,27.0786035634649,-419.467588308136,-289.053493054099,55.4105220623205,-505.986459442074,-343.565954077786,117.63877294245,-511.857529746595,-596.511916172238,59.3273038310557,-227.77812750071,6.34421786350356,-99.2791095115792,-90.6271911690882,28.0294351848794,-33.4186426224013,8.0923000707882,-1.7498169534996,-17.00294790735,70.6766319244006,-46.6214498438921,5.43250010839307,56.491359504254,2.98551150948364,110.612407289048,56.2836326508538,117.736555705216,231.581530267739,262.469899779162,96.7899376381024,129.07267717437,164.665767560384,203.780608719285,247.569301869382,64.1555619247411,174.325088779278,115.075476430767,149.961385594682,172.953409206869,63.1049919898349,54.783219205707,-255.778122995709,-137.552140820601,-174.818229082931,-149.119633237013,-126.683214424022,-178.766431211894,-120.97409742011,-145.581046696528,-154.384066283982,-124.743030842743,-110.629505575047,-144.853885277722,-120.914488887756,-148.089728853809,-134.300145147416,-95.6881073047914,-108.691742163768,-146.030125873552,-131.980954910416
17.5124812536463,79.4456559572191,0,204.21312754469,143.121675138621,-157.42131492167,50.0427316338243,273.055226809178,-129.121750184224,-16.6867382213337,191.213976552774,-147.981414631983,-188.962276391653,181.147753569697,-70.4417981647174,107.687251491459,-52.7671314576195,-32.9637148425518,45.182530830935,-13.3201839975592,14.1806525773195,-5.70779419669093,-19.8680859824318,70.7158844379086,-71.5196112367572,-21.658745490171,17.7448950736158,-33.5686097966346,100.424395322561,29.5958630176057,89.5162027679031,213.029215129512,294.964227004519,87.7081711697978,125.400259260595,169.070498515812,243.031455924527,318.831128477639,71.9173712572585,198.824962274822,176.926485955985,231.432484685428,223.751480193128,160.701138016726,181.918140954538,-59.7079962945754,97.3154009233167,40.5926833522932,88.4496129642203,105.898808115692,-30.0497004380743,107.523113860789,-33.5174188696931,35.2151836590739,95.0412312749185,106.012882762396,6.83304690712355,77.7836229629394,-17.3903730196984,30.4683187270798,93.7282644850514,86.6997276588031,-2.56848512199544,58.517474607969
138.091594896165,175.52064264745,0,306.116268171877,247.256384752842,52.0102392783002,238.233023944914,401.879856274715,152.486564270749,227.150843054247,253.116615880066,131.702290379338,132.712234539075,263.521261936655,17.6346526541499,166.463856897483,-59.0936555119706,-22.0474718871687,40.2927097256845,-42.1430427193667,-2.57293801175355,-52.8301487473179,-64.8214822963651,37.4548608026341,-149.325480268764,-95.8603010399556,-68.2264768220775,-118.298569476974,4.05999821622813,-58.2811435137217,-21.7525598475322,75.0907625479868,249.972916693813,24.7777151375206,27.7749836844457,62.1771562131667,165.786769968316,269.025688871461,4.48860880445805,108.229288441349,107.772019058484,176.355601665114,144.558475343106,114.985164007851,153.343855071234,165.487686008064,269.571009784412,249.510397287684,284.959470417372,282.894806042417,143.348284973654,302.612900058478,131.749813884311,231.281801353486,304.630908962035,297.70948869364,181.143751103261,267.415035487472,147.866994761994,212.293156051428,278.065337628077,259.972578239336,169.221290043274,237.510349401376
131.476570087582,252.650028136448,0,326.727260238132,293.969448950405,162.10863971509,266.695690288006,432.164261978793,269.157488488855,339.011606061558,272.142904960144,269.795577946188,265.952371211092,273.172169671848,43.8139498708793,175.836736491984,-84.1261259194561,-37.6106054761402,33.6279186480942,-82.8089602363681,-27.3036512171827,-112.289807832769,-118.415946837654,-1.59985669807729,-230.911804075645,-171.996115676868,-148.95348792395,-196.286805929012,-101.119959195449,-133.861311292796,-114.485093345037,-62.367468332999,170.29459473366,-23.5222023420907,-52.8452045214257,-32.1447799695269,65.437678787922,170.706010691438,-36.3502018117371,35.4701808750852,24.9456509433839,80.1676715555033,71.2694181446766,37.154390125019,70.0958544260564,404.521951824766,397.62679293858,438.253779339768,434.095110584,411.984685933408,336.362614907721,452.716442807471,334.129620673162,402.842455191205,468.826370497347,449.496087199584,351.215288353385,424.181389661217,311.256860568142,375.595648328929,430.83184518446,404.157010762701,329.701318938177,382.119671683601
80.7329795783444,275.465461794602,0,310.465767602958,216.561977823813,222.673244160361,243.03049192184,361.339284381214,304.38962576819,325.720933633242,176.187840431967,327.841681488865,275.614675670113,156.903279936531,33.7977611061397,119.457287219578,-112.604877923088,-85.4451263635653,-23.2440041191199,-135.55061953698,-93.1419386353264,-176.925857311983,-192.1660305503,-83.3862020619722,-309.750658604902,-261.519395063657,-219.629475692475,-273.937917556048,-199.665156726257,-194.787871968473,-176.55537196985,-154.061716882013,47.7879624910763,-60.747872357088,-103.359735944874,-75.4011610565113,-25.3708408216506,56.6522559107253,-51.9221240171753,2.16326615722559,-36.8282325019883,-17.3357085837481,17.3311543901539,-42.5467887608993,-23.2816893987488,573.397462029204,457.984874485895,554.254190732926,510.324487390145,472.555828893584,489.168736192333,522.82313144972,489.77181964521,499.654361600507,542.241590900676,516.983825699761,459.533995042004,494.856253872848,411.972070659607,465.493696815823,500.453617578884,478.656095852455,413.617511200689,448.720434442024
54.257904111251,227.491089699677,0,270.999963442653,47.3799852007893,294.179346304245,245.434645153015,228.967068055641,347.177741589137,268.533516354758,-30.654353731701,394.490676682342,265.277842902226,-47.9674319043794,8.50556735908864,18.6767155053093,-143.731767975578,-161.202582812252,-146.017084685395,-208.701698787372,-206.069717563162,-245.967554168142,-295.250062760254,-215.787582788602,-403.446074597957,-379.914208406178,-302.988876285598,-378.594898185884,-311.950700453427,-281.648700531403,-268.571705533103,-232.274912657825,-118.372510060242,-117.221126244966,-193.369199748309,-132.430836829848,-127.925033344896,-83.6446594000587,-109.108363324723,-68.1411949430729,-117.887180114783,-126.616347393023,-74.9964540373559,-158.793798047198,-150.646437753002,554.994481621264,397.37381968417,518.197703062837,457.71330984333,411.094951433529,495.101324469349,461.495274607426,493.485116071375,462.195521041594,479.913508575367,454.108161333426,436.213839585673,428.406854591832,390.340331537366,422.931778631615,436.048387504642,421.329195937451,369.196647307788,386.292590280933
81.9745149609605,172.496385355982,0,244.764826680913,-42.1025356238209,397.559159765774,302.42930860621,151.566767657404,428.412695290544,282.784870538335,-209.842775067024,504.061285241167,309.50493286627,-186.630967372604,4.28272921025633,-55.3456725451312,-152.995741222436,-217.898658121689,-261.143159190563,-264.42352650001,-304.711707380883,-291.901389536567,-379.973592942799,-331.765034895289,-475.931253171019,-475.486840141346,-363.573404398034,-463.734586708937,-407.006347539232,-357.227886112029,-357.628510245366,-287.915021246391,-247.347139488446,-142.529590570387,-284.808032402481,-191.43755689712,-197.969524497489,-195.907445678041,-162.799556420223,-135.598170831661,-178.633214688727,-201.017899597308,-134.323237853463,-247.246275204156,-262.186044772466,416.930140882322,281.560750853067,385.90068950726,331.871748355637,284.773081783262,378.472898768642,324.731593857294,380.33929213657,336.969099812797,338.24821506307,317.657105438883,318.883330224831,282.870927086377,283.388869324208,288.934325124131,291.575465520318,276.376814331754,248.039614343867,238.703772702768
131.506042826757,151.240117210806,0,249.204454310242,19.7697333524016,478.690164372914,376.736516150238,178.908203491793,495.57858805059,362.465139965352,-267.215511542384,584.636071632849,381.198390371012,-192.668093910095,14.3356318378502,-95.159119465709,-147.332804741756,-249.776972846759,-332.428678240034,-291.70474838017,-366.105757365227,-314.248622558847,-429.396955166268,-408.959383745251,-509.789095586638,-527.608716797469,-389.601361931234,-504.36724475753,-469.257627440343,-389.911398995723,-396.295569162501,-313.912925913541,-300.215973840346,-125.81643920008,-317.356574988624,-212.813442918948,-200.103309007005,-227.059426368379,-159.962611870649,-139.612792826826,-178.122370338396,-213.527898333415,-103.648912340775,-250.769268948353,-319.08986244034,286.693831380386,187.479126774955,251.904349154599,214.16328801034,173.013018637624,235.288959412127,192.481716767976,241.443281564228,198.834890523836,192.558648493865,179.093629142872,182.686173315338,137.651295352359,153.517899326285,141.103832348773,144.483901405187,126.607545215116,117.90971601864,83.2718768389152
131.76953136825,111.437360029235,0,233.670936887925,111.429410870095,482.398985052721,394.487237280427,244.420506549801,482.366619841257,403.626151911111,-237.781544974403,565.617878800893,391.308716673576,-151.08787674219,1.87839770794398,-145.429569050729,-150.649773003572,-283.32303658997,-380.648335869111,-315.137396721158,-414.962797725124,-330.795306969427,-468.471121775186,-472.369665241997,-528.985864982605,-571.075885308042,-416.993905593816,-536.264561870559,-518.371048173829,-413.656877558238,-417.485954777185,-333.658887200702,-312.768358261862,-135.623818090478,-327.252573644861,-220.243768673458,-169.434714579439,-192.994553486445,-150.275346625302,-130.565724329417,-146.476191074737,-186.084953536107,-52.8227971340586,-206.497709825247,-348.108310012874,150.908266370794,88.4832779263828,108.534485796476,92.0085619115128,62.000279820328,82.822054465505,63.6700819397872,90.5252808787819,50.251904593129,43.4792220681816,40.4328219176619,39.415348830497,1.10157091724726,10.3136051435435,-3.14859034765245,5.81649923039311,-10.1545192405774,-14.9576548692005,-57.6180380248247
58.6882142558303,-19.6588936193083,0,142.730634315284,101.664092137078,441.727368795885,342.955791504345,279.715407194282,416.478991304514,381.982443825234,-170.847648133462,497.299328421845,335.243771744261,-115.849671039767,-17.6278552261538,-189.991966318654,-137.351235811463,-298.548084711042,-396.342847588979,-318.732867193346,-436.921969251201,-322.678670037683,-481.628134567283,-500.482444899655,-524.058366896573,-594.364834840716,-434.876399869062,-552.736092057946,-539.258863877913,-434.232601661008,-436.129722390752,-340.229150128562,-306.94104600119,-174.619516270642,-346.74651970464,-225.337914979128,-139.432049911044,-137.421495243995,-171.171922707176,-150.754492458204,-113.077241013799,-136.970097153108,-39.5061632146065,-156.317674148888,-348.695198437327,-40.0095299162027,-45.894425640477,-70.5156956247021,-58.0027715260219,-69.932440889306,-89.5265923155156,-75.7653924577818,-72.2861235568837,-111.80700985533,-111.815006869432,-100.791355031507,-105.016528573765,-129.976682763379,-129.983114368788,-143.244245282635,-122.27523865215,-133.214467930355,-140.768538043003,-177.518935950172
-69.3557314211606,-278.108827644319,0,-35.4477857273069,-57.0344477229553,390.843275890321,255.098800310225,222.355971203299,356.726367277744,336.424903454063,-114.687013837593,448.024479291948,278.409408924184,-67.9417365232719,-12.5900802207955,-188.707839636918,-87.4922568843234,-270.670155557251,-363.976782043067,-278.761575516652,-408.537436460863,-276.128638164805,-444.477745345235,-473.303438314242,-479.423399432035,-563.887290429195,-413.093393228971,-522.353218884912,-513.739240001213,-423.114237344837,-419.558909752983,-323.971657131408,-293.498790980824,-194.65094969236,-348.495164337108,-215.744070338172,-122.255613791035,-97.0991261201519,-197.331153262264,-171.389920158291,-90.0554778114821,-100.07163050273,-60.5863330231008,-123.193593399608,-317.927983858514,-254.806540860973,-188.730737095866,-252.928962693469,-209.895806214009,-198.906434453743,-249.870398683795,-208.681463123317,-214.664236167775,-255.270260238073,-242.631737180799,-222.957372033643,-220.499391111719,-239.535457535393,-231.952740761116,-258.598780042011,-222.978908166128,-228.491299151143,-234.377293144571,-263.637102134223
-229.944933174224,-609.786335526546,0,-266.558334859483,-331.414336734576,288.556406063121,137.196473439826,11.4885373963849,294.549025425012,262.30439525912,-137.434716443075,388.008747731134,237.691480686711,-21.0163404745872,8.24964994046893,-143.461742478809,-28.2983003538475,-211.991321375298,-285.943630574273,-212.303129692486,-342.205134399698,-209.921671266823,-373.231245336052,-415.774728179808,-411.710452386812,-494.681267939528,-363.93590367721,-457.463894330074,-461.697100143901,-377.114203046485,-362.59672763439,-302.183400381159,-276.271144299971,-202.030508391293,-306.241758474293,-203.016508957447,-124.158936323859,-67.4296845207576,-206.249171914943,-169.067043709604,-80.6454554073816,-93.2104374248337,-107.166419633576,-114.673931204523,-288.270189781756,-407.630657281564,-291.370708263043,-371.60046061525,-317.276309064805,-290.388348714295,-342.678000573756,-303.14554621723,-295.772891526411,-338.022648334043,-320.89257000174,-301.843123715841,-274.790104394255,-306.734491797213,-272.003511704946,-313.464161791036,-284.593533634348,-285.854449133112,-278.602478251971,-310.439138177042
-367.70226169456,-844.99203639541,0,-466.430109053306,-576.56437166714,94.8115628524082,-3.07833012025978,-282.842403165372,174.120784124758,152.920867977483,-207.83218460365,231.768561505095,168.429955601321,1.59438232881445,22.4804339679573,-54.5342152424616,25.5432925478154,-127.934089573961,-142.724711985534,-128.485691939833,-234.344721261503,-125.419064393257,-272.017979271341,-313.983997656418,-314.334784364844,-393.309466403222,-284.923439660164,-356.574794892271,-376.089182267688,-286.093822643393,-273.041134953527,-255.145242318304,-210.456406891225,-190.531807095032,-210.879520345842,-177.096642852782,-114.667632011262,13.0822602329102,-176.704989620052,-139.737387158917,-57.6762942729235,-55.4904330669675,-144.724927190199,-88.1354917808954,-234.094703207596,-397.943379453182,-294.37261086097,-348.68375684171,-315.210179698444,-289.865290485045,-300.863382727546,-298.458778470966,-250.915636870622,-300.166720311988,-302.724254459401,-291.627523757012,-214.48167071904,-286.46426171308,-210.201147512204,-248.319721468889,-265.451499874692,-270.984398385533,-228.926333747858,-289.035519223009
-419.485256355399,-849.371172077023,0,-552.812349413034,-615.543988390778,-190.731737029579,-139.012958192419,-452.996965830181,-84.3503659389642,39.4022596185873,-163.118381021944,-113.838381516086,4.91344952311512,28.3822729387949,-13.5913079875385,69.7313389176202,62.3953264551481,-34.5928718521006,56.7260380145976,-30.855366366463,-79.4496552472834,-27.1910815833616,-133.696127395747,-134.383517041737,-176.951840713263,-241.690594821469,-153.59048624296,-194.529564679537,-229.759865732398,-138.630188783945,-152.832471164505,-157.16327437857,-70.1531073308468,-98.8225764508139,-86.7643549976723,-125.699328264358,-76.4686086134015,159.680279725382,-96.6584081839679,-102.691620001452,-36.2506833299567,39.9565420943961,-134.032638663166,-25.4707871930192,-89.813517944643,-214.350934051031,-180.915831369936,-180.571756276223,-182.133787068919,-170.358123827571,-124.040132152125,-170.277740567542,-73.7629828409359,-135.462872897149,-166.001617043674,-170.857355274073,-36.1666979693975,-162.654994209095,-48.4297339642515,-64.6027831561639,-135.65892141614,-161.256772323422,-79.5536515055851,-180.356255632075
-389.770056750751,-688.159348697532,0,-532.545294406777,-436.747713455835,-514.58142930572,-258.929472899238,-378.152857648103,-483.568756346271,-37.8818282868627,95.3794330123049,-621.33219345504,-249.480517841996,107.44266233559,-124.539752880121,185.286064306067,55.5874874370523,24.2168469984569,237.230002620497,47.6682337331555,75.2281630686115,46.8423909096184,4.30753364143327,67.2038426802104,-48.9802960499765,-73.8858984144448,-5.46917692042168,-7.13024002757067,-73.5499701505571,15.3519570114251,-42.9340634951439,-80.461771138564,52.833759214463,68.8928315695548,13.3173841934894,-114.975019570344,-101.638247887087,253.515158647646,-2.82606510155349,-103.113659683796,-133.010566468601,49.5107796037034,-103.325171944802,-14.0210269777159,103.087583626542,-6.20840713735519,-31.337472297753,0.645464811322332,-16.0727056048302,-14.5638111026629,50.169516234275,-12.6201401150629,92.590708872325,28.7206457232293,-1.76375390940445,-21.3354888157798,128.92973771838,-21.4541940355132,90.6770256860715,104.375855327434,24.7439321534757,-28.0007833263047,55.7194388684696,-50.9743373223414
-333.678818300379,-565.777473938222,0,-509.998555278937,-280.726145331762,-734.973833751873,-344.190715479348,-204.884847456993,-817.618557556022,-40.7008145620053,396.487863800154,-1008.27163012529,-441.016816732564,236.889129419024,-216.994511470744,273.638056605951,29.921340445781,50.2383538928055,344.688253831684,91.0107522339484,178.010502997551,82.1840124351471,90.032278149768,186.505209915435,14.776181956576,30.2983734338377,83.5600401316352,114.843034806922,-14.2283284589337,112.769506156204,1.09156986287901,-141.456392310838,17.0178770847952,199.560240058673,97.954922941526,-201.451044309886,-304.572217506843,159.859572347715,71.679143494603,-117.606486249179,-400.531920254527,-194.72114365283,-90.309168222458,-135.433836981548,202.12032441226,65.4318154786835,50.4345991618817,57.333386823455,54.6966320552628,58.7971275518939,81.4644920229187,53.7989055050275,108.329367083598,61.2180001365972,60.8396723570601,40.8929969421378,147.833803406536,30.7529178066755,93.3724155116481,134.613629733768,91.1237812064686,21.5621732804574,74.8372761469646,4.30125668807989
-292.503247844871,-624.76293931163,0,-588.593759545074,-422.461805405758,-755.027727218977,-370.133286573244,-226.161213749586,-857.837066433875,-6.36759540157694,395.177561425351,-1016.3748919053,-419.259779506241,300.07939828434,-191.104081281075,338.004672787104,32.13454734715,80.8019981087848,382.011097965669,110.036571448206,214.733972316251,90.6065241920992,104.279253383617,189.031147327551,11.8283497698841,28.3745674216463,83.4479965264869,114.663907993554,-78.2400284692804,160.702007267251,-16.495942398239,-339.480717353631,-176.988491385699,197.822297900818,227.236953213758,-311.922248751758,-598.544208292001,-81.3513672752498,144.63322568521,-43.947586758379,-650.284512628674,-566.034981555812,-43.7606499825115,-310.153862083466,140.070235329058,8.50199528545338,37.847806575881,1.02933053989766,11.0427031536228,26.558585258495,-3.76583746056138,15.0730078327496,15.6028609803094,-10.0131099048545,9.46625186804321,-0.62712289127875,55.0773016385395,-7.77573355516248,7.35544988116759,60.2596889016367,45.7681720366066,-23.6044742155432,17.3339380587263,-20.7607589391051
-285.516231127247,-805.915285361538,0,-782.22361925413,-800.711818292714,-664.665350622657,-400.135987376726,-538.371437068654,-654.046287106136,-93.9705534640365,7.523591925683,-755.351333560406,-251.561601262521,163.036889369821,-92.4108635363858,358.350120266028,55.1289946240076,118.435714232433,374.394801330167,109.056662258387,203.74391544689,78.147348245882,71.9029694512728,143.344216644109,-23.5877664695726,-27.2416985522278,42.4849097183647,33.6090552274708,-156.446167283074,206.733626202644,-32.0716224614021,-504.284078237178,-314.466442896542,106.77801827139,383.198572174707,-329.612954869903,-697.95675818858,-247.920601656614,228.30529875456,135.563337998498,-629.000905064668,-666.451106317818,98.7224155156497,-356.556265299431,27.9356717459174,-41.0039838091325,-10.6185484611942,-44.1566442233402,-52.9557362313803,-30.7079157582585,-59.0873568311758,-41.1582748196614,-35.4201105067838,-53.7032900133204,-52.8415591508553,-53.2191053750457,-3.79039627215594,-46.9198459203634,-30.9954163289144,10.4416377810682,-10.8615646869091,-67.622774188846,-9.18521511511773,-42.0293139335049
-339.405728172163,-917.891415403236,0,-1038.55643472659,-1043.43574965545,-637.461772718293,-602.296891988886,-917.957130749504,-487.393523787123,-428.579317880901,-390.304169034856,-522.834129836797,-168.327689939268,-109.103993466559,-17.9537432129899,324.882942492616,72.9885169864093,142.671527833964,350.729852499824,94.5858593527429,184.699940491591,57.8183935014813,41.5857667623506,136.215351389719,-56.769338822616,-49.4547985700689,19.2529675419582,-41.2130865399604,-150.339519084103,238.614121691865,-23.5864922063401,-481.145311534616,-225.300788918972,41.9996696510119,440.906531093165,-264.482631107222,-492.927520275014,-178.554381667096,266.249803166146,259.454659002373,-384.803575031695,-352.829371039281,247.707759559244,-234.761469726099,14.3048692551527,-10.2103791497819,-33.106383852835,-9.38671044345937,-52.5659353773386,-37.1671873029931,-8.10234543094387,-40.5151640533481,17.8300109338248,-12.6181502347976,-47.668278706745,-42.0501677976496,39.4177808586384,-27.9151969673414,23.6222155739304,44.106930900209,-0.158439318521037,-37.5131358390256,38.2107789526441,-1.08486783639773
-449.66696602512,-834.890022219921,0,-1248.90677359221,-923.670903207929,-774.749362255731,-1053.33589678155,-1093.34211817531,-603.407083489528,-946.472253373212,-398.262111700869,-495.41592193048,-359.536931371106,-312.189951356431,-25.4273006920123,239.194269911579,54.6031479605673,118.945866736182,306.468063792373,53.3372661087839,150.544639332348,16.0290562574875,2.03608161893584,137.479615838534,-114.891159102657,-67.5058201585596,-22.6647573894263,-121.482465407364,-146.954584688589,159.915811591835,-84.2741313681058,-363.528828776975,-73.3318085836517,7.93944754298253,284.044258715942,-267.827546653023,-254.966608757489,-11.6031871154167,162.504874352537,125.965946828038,-245.856088389217,1.03082244487929,203.750771570659,-124.112008786894,65.5448720276745,26.927978648245,-47.6347432235656,32.5185604532588,-27.0480038566909,-26.3615583864464,58.6641617699161,-24.1090429155513,81.7345060308411,28.8389467932799,-25.3747908515339,-20.2517141398955,95.1867634360834,-10.45361816881,75.949499040508,79.6412892161968,21.1749412341743,7.6383941593112,89.3170835445546,39.3556450785023
-486.488352313792,-541.040525187705,0,-1223.89400353955,-520.942877979786,-1031.40125294546,-1524.53188374595,-980.059319886061,-989.294292913565,-1407.90555969171,-35.6151163654711,-668.49436668346,-795.539711314981,-345.43884911699,-131.168617704639,111.049023834476,-27.8282121620948,29.3760617051921,226.903612221882,-38.9412344086861,60.3225454381925,-81.236419254471,-101.603902311298,52.3208445101849,-249.285249864329,-184.514275428344,-151.712339172552,-291.942466264985,-285.164245369944,-67.2892337363484,-297.69765156374,-350.784575011305,-140.943547927572,-80.6561949779344,-48.7854804143554,-429.654548638114,-236.84811924038,-46.5766384492535,-74.3674251774569,-245.586345419566,-359.655340152263,22.5883928667243,-73.0102100589963,-198.781583603967,13.4494049461328,-7.43196366348499,-100.282218494877,-6.20659255005973,-65.4405639191237,-79.573235130181,28.1725715289757,-76.2646141602772,57.4759935937286,-15.0268553955429,-76.0324092116378,-79.9395093182548,62.6532541860812,-80.8380250059035,45.0838051082193,26.6473118967767,-40.2469381997416,-33.9565630847443,68.6847379027547,-12.1743210446326
-275.319366715413,-48.8664438310177,0,-847.231159075072,38.7569920595654,-1203.48223959068,-1618.30649276006,-631.962945437093,-1311.63018987188,-1520.9903550984,403.593106739376,-845.638995944666,-1158.79660727635,-219.039017871363,-238.483177626258,24.7665445283802,-109.775803959263,-44.9823329669219,169.914078566639,-127.789078223218,-31.8467694660514,-187.105195380253,-223.720479684245,-76.8872835375507,-405.213134842395,-355.721837734271,-317.273277896766,-518.975570888248,-482.457754276065,-335.306367390877,-576.035028328236,-414.833461905904,-405.182331095537,-211.869959751296,-392.73426395629,-604.355541491142,-321.248747176658,-343.486287703177,-279.97693072015,-581.284572379605,-494.161268006289,-173.308511273355,-347.041621286865,-422.178449924058,-186.466822887852,-60.299251171816,-156.898241914266,-76.9416542210728,-137.202193558454,-171.107591687642,-47.9256147877862,-161.697867861588,2.10922333844252,-82.5797613154517,-160.071458958763,-183.109326005137,1.61380111944543,-187.370018981088,6.36230978767376,-45.4833755677462,-133.918010525897,-130.190001558771,41.4314569517478,-100.824601008856
179.6896657626,591.904543341179,0,-238.30242836236,691.450710454581,-1085.46235111615,-1195.9582579117,-134.132870149595,-1211.45612611217,-1186.46064417882,738.004747681361,-753.964092282092,-1115.77576129625,33.0722087549271,-193.260876465884,78.648541166336,-86.2979043240019,0.65540449702963,206.091356206336,-125.003789713975,-24.248912787726,-216.791669531042,-256.703882872954,-110.315754134828,-482.030343388111,-415.727370855338,-448.837858302443,-669.990297808201,-521.164880720428,-582.004417454141,-761.40113329973,-370.218659243585,-580.667838020522,-334.936528873419,-699.041684634519,-585.148696838401,-280.328309774477,-603.547353699907,-368.419203241273,-686.797942666958,-388.900586479706,-240.79614642877,-383.309419665366,-571.447837845702,-384.031428182625,-61.7868859599203,-161.672920827976,-90.4276967025039,-151.355686671209,-211.999584726305,-56.3137514123902,-184.180552365484,17.9194244221714,-75.2290483499657,-175.011980429409,-225.156318743222,19.4691634952846,-210.059931186962,64.5298112878996,-12.4873099469357,-138.721676512693,-166.340014234019,118.932568777266,-99.0193393135165
717.809292249188,1271.70935660028,0,406.196964685358,1341.07863623655,-653.412805660437,-496.035132405283,439.200015847592,-690.133531500141,-593.184130251793,1005.59064462101,-331.312549833943,-674.38288450964,335.514605347532,14.8721756989883,239.519920709355,24.18380025632,140.274352247621,300.109895875363,-47.4365379719275,67.1027374290145,-191.096453846032,-196.591455817631,-28.2462855911467,-479.71512744771,-319.740510147469,-601.636891301506,-696.660095213046,-357.44839012419,-876.679734611887,-807.795457283755,-194.043378677652,-486.013038381827,-516.391581194333,-1034.56210108087,-416.74700167942,-89.5791099036845,-515.68368143342,-457.688678633374,-643.054251736545,-80.0276425173421,-57.0985449647753,-232.14350634086,-451.402750876201,-392.126663874505,-62.8746057818525,-157.760303300117,-82.2565715737086,-140.093281154808,-219.294017086114,-34.5342548949846,-170.171524606083,61.1713456887564,-42.5795220112699,-150.509134543204,-221.435622499695,58.8995576414848,-170.000095482583,154.111668491714,74.579628862337,-72.7817810190744,-142.99429834202,255.203872394659,-25.6889415124327
1241.79423532187,1863.36646038566,0,1011.99996594076,1846.33642340446,-23.3606551585914,215.886549042611,1002.83935273198,-19.3117288046535,33.3692497523291,1249.15254241933,230.432992021123,-82.5332391019732,591.981483335108,262.069663506432,393.006412881547,123.592259633514,267.426221102334,362.912667196106,23.6190238617963,147.393121503454,-181.869397659517,-116.289272940019,67.909883796181,-437.525235995305,-176.479996909155,-786.652751078466,-637.26292200541,-161.997783057905,-1156.52548756897,-762.869686895362,-72.6262280344989,-204.772656762171,-784.697599210157,-1283.33281330331,-344.049707198937,110.81491539502,-112.999871324451,-599.135147882798,-570.991523818641,174.316182847777,236.531388717585,-94.8386929807407,-118.111945520463,-123.216345484522,-128.383322427098,-212.082904048814,-135.654368229448,-194.357404077073,-269.987656021104,-90.6667453282566,-211.804900841526,23.7629855427366,-101.819031542444,-187.65681463632,-261.675481164252,-19.2167687399375,-178.49002696633,130.405631269539,51.643308215187,-45.914077743609,-149.593142739118,306.401679911197,5.57063123292267
1724.27215469095,2249.0878794536,0,1535.07238275647,2099.08294378251,656.27595622892,854.968858399728,1423.98656235882,603.74098141472,591.60947660146,1383.94457525793,741.081165436385,474.251128269711,757.434093320594,471.033859992165,486.033435369146,195.184970456093,342.560948113641,367.667994607376,76.4009406633888,186.590717185584,-169.598876941193,-42.9593694702787,117.083432357391,-335.381739624879,-76.9507511842042,-836.807175968285,-512.60910614659,-90.274839635448,-1181.38790786572,-674.166387837808,-153.919383151364,56.9507299503277,-976.967127783713,-1223.51155396166,-457.896757392918,161.344711145883,341.41637422299,-648.681408932212,-465.280771565739,181.810021737469,445.866822685852,-32.2880616383614,207.452114997596,359.100882725514,-200.061739895581,-276.217585352525,-221.36868292051,-274.854824322579,-331.137885229593,-196.37424218703,-282.729882783871,-77.8430887457733,-240.537181521994,-264.552621601238,-328.278777040978,-212.729763639401,-224.785947901271,-3.12059642138259,-111.493347659667,-67.0156856388798,-179.551983538773,237.571643555368,-1.24985267540394
2071.34387975824,2355.58170463201,0,1864.64782559486,2103.68424161029,1217.12054814558,1356.68588217025,1608.98339292852,1093.64115936342,1002.74597088886,1360.87038112021,1123.19886720555,897.466645247947,844.932496600073,634.134307075733,529.828104637808,287.007514854763,397.019621481966,349.463110343097,155.291586864666,224.976401324228,-88.3927132489973,48.6310603458976,148.902775437873,-154.50219783368,6.0319174477045,-633.618069099791,-314.364744529132,-99.9650793572295,-882.047380760503,-532.960151535008,-317.38006047026,166.941291231578,-942.810595424563,-887.827573903491,-562.362874672963,17.9448265637977,667.608640020607,-531.304848832117,-322.591385211683,29.31548511219,467.13826790192,31.0010989404785,419.89908488651,863.667560185955,-186.45470772388,-253.610866223215,-241.945245995957,-267.160181668259,-304.911274559189,-234.399137987298,-278.37014839874,-139.520331387533,-333.829588809897,-276.742273875872,-319.582145016633,-381.334441989727,-206.557501455577,-116.839524471178,-290.067597698031,-65.7508286467497,-143.987643382932,128.365364532882,40.9740115085726
2158.23762043039,2200.83962590464,0,1933.25200045937,1950.56818942938,1519.94437392599,1603.83987765329,1599.81928791204,1358.97166939835,1193.08454971265,1252.55190088645,1330.59033106388,1104.09757806331,861.928932211555,724.550283811662,530.841531756863,392.807018923415,447.069533084496,334.353753180369,262.517094082379,289.767679549225,54.972713956163,177.196921399251,209.668732628509,63.2601448492513,155.553146523272,-289.441593534053,-43.7560029572395,-29.6257096127032,-453.407409091126,-278.764266209292,-315.717042060569,120.697270844116,-722.968756854864,-491.920973202283,-454.034896856169,-209.934324847731,774.424611680138,-361.007280192011,-191.545983717801,-69.64263585261,318.617702651589,110.014229385164,524.182853208678,1187.85019473294,-112.318235810742,-157.838387758632,-184.064852744042,-176.810148745121,-202.581805903352,-185.523204947528,-193.975004340373,-128.07928091461,-315.433367007288,-211.797162310341,-223.827423639002,-419.134836084786,-118.768473079807,-139.984366484494,-381.609228349437,-36.3135369107693,-42.2296092824888,41.8864482816502,118.208603214061
1963.32121560349,1868.26477327579,0,1787.09988763019,1695.69328590689,1552.01141979536,1575.04049545005,1480.60689118646,1371.63940918119,1181.6673144105,1099.54540295557,1358.20671579739,1084.20634311316,785.234188092571,721.923163216785,480.355914708247,462.425089454967,473.871914273273,311.484030410648,355.929383399099,361.883215957919,203.517676748649,324.907976022621,295.235982021865,267.422652991502,372.98219337127,16.3927599279854,255.658751327338,155.077722878104,-75.9095054962014,68.6907293919403,-154.764571381854,2.07194241004654,-443.695628432181,-145.473073959663,-188.598952370199,-383.664557797633,586.561556967135,-251.692496106886,-86.3480387156087,-113.167585337673,123.535317168346,110.966486443027,474.190081694311,1242.34635465449,-80.9274497386791,-90.0511985111204,-132.565993891176,-113.923715723266,-129.755191799755,-135.93929031123,-127.462497456745,-99.719862702743,-237.525016907301,-150.284287959819,-136.437892786,-339.583992734581,-53.4482954373796,-100.027274007476,-375.719114187064,-27.5529474943091,30.1180147972933,-0.46467099421321,139.921435631692
1587.80133482428,1445.82110095365,0,1522.00959539482,1337.01569431973,1428.3842334547,1399.3259688265,1272.59092024992,1249.02689595145,1076.85311247715,861.143794550062,1290.46854321518,953.423216183795,625.849882613139,673.067036598028,388.741639431488,487.640695080439,465.324494590863,266.88652798618,410.211446253087,403.245636755975,322.86834189436,447.901631106068,363.987829204261,439.509986733311,552.475463985006,221.526604603863,499.791641723501,325.302524870838,204.864060175077,359.600437208502,-32.9944249974331,-73.2139310491177,-202.614709764098,125.018450879748,62.6038660492574,-390.318139327785,184.662794668867,-212.830845017158,0.616655360614846,-198.751858590451,31.2157340105118,-42.666173010285,281.695813026441,1065.66571988416,-115.119008826471,-74.0410157092479,-130.618860129465,-104.538803788147,-109.63727624559,-126.643896209058,-111.228591030428,-94.2188562930853,-161.401261813661,-119.710180420703,-98.6274070581662,-211.482744211721,-35.225481426222,-39.1905916360204,-284.169092963131,-30.5103333561846,44.0443752036891,18.1754979157376,115.480482736355
1163.72747794928,1001.97198519778,0,1211.44185927208,899.554016276248,1271.39270472474,1211.0991000635,981.088759795771,1128.08265834669,967.142205183659,535.046033969704,1216.27489736817,857.242888023585,440.099365843909,622.64027540381,282.751139611866,476.842992119479,421.788523196235,202.554611040881,414.397340461389,385.951007211028,383.147920766185,500.612562264569,381.796046579139,550.849958062531,604.564313178167,329.864644219942,619.478114442274,397.367540546591,367.588577898322,488.021416179722,37.1696267873623,-59.4150194172538,-58.2806879290711,258.03729349621,245.291373771003,-175.64802941219,-189.095935153423,-227.587355848935,20.5333251766802,-216.440715303541,61.0256654662987,-336.889368326139,91.0596238262715,687.21707647673,-122.533899119879,-25.4310123173016,-109.375264785431,-57.7978478728306,-47.9598657757745,-99.9950839480814,-60.7203291148199,-84.6021260292023,-71.7625581577121,-54.917961668268,-35.5310122600845,-79.0594393499465,16.4199921519174,20.5050711028377,-121.005645827799,21.0682884590122,81.1035035834698,81.276586404635,145.617509225182
755.865636607648,571.87547108969,0,869.716968232319,452.570079251887,1098.99335616688,1013.87777814627,632.587721088527,1014.04681640252,827.588280750828,184.39584767662,1118.95527634333,811.501263896361,244.753652447925,533.605905054392,160.58839718509,395.229490960476,329.433095550599,110.48707033844,343.37073288977,302.035698792214,344.487876815967,457.8789217718,326.586314620422,557.484488311517,533.125803276779,337.246363881558,609.851400101833,394.915696500008,392.445872952865,485.931314774124,152.461504251412,-41.1739018662859,-16.2689124564404,228.489262081858,352.391879433318,97.9733865236205,-402.512717958113,-286.635887634078,-98.25741699889,-75.9713524264443,54.2931671798969,-695.969103277377,-73.5047851377935,50.955695374954,-50.1644734228234,77.9110042112252,-21.6500131403213,50.3930109094056,77.9859637736759,-24.6574378767314,53.463287781265,-50.0315478957477,39.9118016241331,59.9074257152412,83.6055109209846,25.8886513973615,124.8570600086,56.7654609387336,42.2845623553032,120.619899555493,169.349239416194,120.286987799439,229.640395926544
360.831062794065,175.573224529201,0,492.098862019741,63.2409903872344,868.957430702142,743.072869064698,265.44672547275,831.571281882226,595.371866552586,-122.754950677197,925.12528702561,711.198083409177,31.6658196183453,365.108825622408,10.0248531647257,237.968965634292,194.519580572318,-4.68436728906828,208.196792232379,186.315503653033,232.284586762027,355.328495571444,216.465527048303,491.332313669918,421.002566682128,290.722179198577,543.794511096606,375.303413469671,351.740103979918,450.987739243901,278.699803997171,-82.4501809277702,-13.9840940868092,151.849401503274,375.089442908397,198.776767208241,-500.574828514416,-317.471647619672,-285.821926211869,63.9105746631279,-82.0711406680165,-965.284480089747,-302.356987676067,-718.481349031015,27.5135203005478,129.177408465151,55.0109710601371,111.288602564503,144.221999532688,33.7632347587139,121.234101364539,-24.7921723769551,105.444368248498,128.778205844988,155.156149508805,67.3687204719184,188.585491976364,51.4380178592248,113.646766008831,164.703535822591,211.578267061958,89.697582411694,250.542285394841
-16.366619749965,-153.37901003848,0,122.111815720996,-235.761706237372,588.785840017957,407.466099195644,-63.7883954885345,561.731274684786,302.027339379767,-340.516003284926,635.658561968624,494.454363623021,-153.076064067964,166.346517604423,-134.780563044057,90.0793535544127,72.8248658800875,-90.6375374603533,88.5521131601871,105.987454548605,146.628755038131,279.258807132113,131.73211420591,460.914888596539,373.699047351343,287.573643807105,522.401650689509,410.287454768306,375.237070681597,471.936876084051,387.318116605167,-78.0035072952548,36.6868634888906,183.59540660829,404.073725803968,194.497726099314,-494.577488939278,-214.844292765184,-331.319342600893,124.521384918949,-184.684364643816,-971.156158617728,-454.875110337276,-1145.84227380374,29.9005953214697,63.0449259763012,35.2297796264608,55.5106804814577,76.0771878775335,20.5649304174287,63.7466972442825,-40.7547453537698,72.2715322471289,84.4736324408919,100.506557126512,40.3494930230137,138.040852943129,5.96261419303179,78.8004238838845,98.5528160577276,143.375581464785,8.338463568134,161.363666312937
-344.807441524333,-417.327322063667,0,-188.456155449374,-476.366357430113,310.153784739477,83.8471622199956,-328.421308258296,259.156736563421,26.4217100183855,-482.236122979841,327.093573103506,207.284434327733,-275.452060551351,7.50420460992941,-238.954884750866,16.8537576997093,-8.13456270707557,-137.061300848412,39.0998805950519,63.6653441512964,138.041471260523,260.905458230102,97.0744131311529,508.184302738239,399.765220127618,351.472814093551,566.844878658149,489.207669314447,483.316658563375,540.366776188432,504.990748237068,48.3746437947045,157.035333918307,309.763500966041,500.533033080164,282.37180812791,-379.369143923127,-9.56320406049342,-175.984690391307,230.195256130069,-96.141916793596,-731.010231662839,-293.110077647712,-912.634192056727,-39.1534395219611,-57.8097424196702,-67.3451012225832,-64.7233918713328,-55.3538042708763,-47.131539050835,-66.7686227116027,-102.729288297907,-35.068922991567,-39.079401205367,-31.7912261614925,-39.274829100582,13.3643318585245,-80.6265125936635,-22.0921501069225,-34.2513336034736,9.99995458218021,-108.048547071536,15.146270140779
-605.65740029876,-670.430637347226,0,-446.153121626656,-714.879989236568,69.2563176562772,-174.171591225241,-557.987436644978,-12.4389812925884,-208.739336359632,-619.554396373406,59.7350009582011,-67.7110870437849,-386.154469056497,-108.725945346046,-326.526002766549,-18.188997401092,-81.3707483315864,-218.312641966865,28.7175269077646,-6.2086558532944,155.719010285893,249.231549978592,31.5499227440094,565.365082900895,399.366700429827,416.847425209676,600.865573539699,474.98659369363,567.112699010949,551.212855525805,547.343605343427,148.375568395855,277.453924429683,381.258407745091,543.937626690499,386.579809871824,-280.464092756906,146.437456904048,3.52444883104591,366.16548732766,54.2010396157066,-439.336238358075,63.6298573572062,-340.905457265071,-157.594489824463,-175.959611414725,-205.889401701749,-194.145337865721,-181.519606627203,-154.60954420096,-207.277182673012,-218.540016881337,-176.045965446089,-194.672034148805,-177.852538976081,-167.467250482685,-138.691456900662,-216.322198537705,-167.505431840047,-192.175281269351,-145.149213066981,-270.270523518279,-155.606536426539
-805.944441315165,-924.751566322278,0,-678.901291268958,-929.4728735008,-128.090279002658,-364.828296884465,-754.261238773165,-219.147202694019,-403.500031114638,-774.102504927089,-146.227607361972,-274.5995158008,-512.737028551621,-204.009738692371,-417.526446861249,-68.9129400735208,-152.24185983402,-341.653008228967,13.5740059343353,-92.6879504348363,140.869663422539,214.578195615202,-76.0872208122476,565.278475660576,331.987145738753,440.163147541758,557.768032392193,314.519528920168,549.456334805971,453.989645148856,425.261059625763,80.70554698002,332.68464790434,346.616479047577,431.303487054761,324.889126736306,-297.481490336619,198.229215509727,85.4390125776752,365.411464374396,70.2114271562083,-212.153204560492,278.050297828621,16.8810919386148,-322.003386675061,-308.826377604814,-364.310488014058,-336.641069476502,-316.712590528837,-310.663901242256,-359.68410011453,-383.513021370513,-333.825855267769,-366.335823526336,-334.388389803698,-331.084729379156,-311.352395714053,-383.153306720603,-341.918496130927,-368.984143811243,-324.284737616372,-457.932477521781,-351.286572091734
-947.326233734265,-1100.03507976161,0,-851.802688575715,-1017.33359209781,-287.71393953388,-490.723967313463,-844.329644678096,-351.33621398896,-505.632196817213,-850.863398985676,-280.754448576048,-381.101968486495,-561.156883029435,-260.105717297806,-457.979507581948,-116.202960063316,-168.787955943751,-382.04635516937,5.82028195134127,-98.6188287026071,114.29051578954,196.059966854061,-102.687354978787,523.967890638718,279.792044527383,454.234365330787,467.759212211098,164.934607768913,482.24593485895,327.978518270098,253.60089377979,-41.1107767683121,344.658837057021,298.477764856979,267.595337089742,167.326964056707,-324.17741813926,230.542883853572,127.918096864192,244.281368401108,0.262667604690119,-28.2037463506343,283.905479382716,43.9316554679867,-477.581361776816,-437.721489280882,-501.604333945667,-468.333808422572,-450.445287115898,-468.76624225298,-501.505173758612,-537.769371908975,-470.561321877972,-509.938493976594,-478.35083150514,-471.191646136042,-463.334008881821,-516.950314746558,-487.738106814017,-522.279071710579,-487.029491643709,-598.620198567648,-525.300384031607
-998.692610466681,-1108.64810274355,0,-879.281143909651,-929.429421852095,-408.496879507985,-527.201765641975,-774.302067219206,-418.902875763336,-462.868204756582,-759.21902112411,-362.1483178853,-384.377695284045,-444.400867140028,-260.367310617996,-395.457380696079,-115.251829923762,-118.795317189482,-270.649300965455,31.0585168170542,-19.2238539524786,138.025501907634,217.981153312779,3.91520401571861,502.004890528487,296.272538140349,506.29140424674,414.268205257313,170.773761542236,466.055332852446,269.479819008722,205.465352391821,-27.0550202143565,370.497823930643,312.126017550969,203.836035814918,111.896510213267,-220.876767102604,299.664401875017,192.242628369669,181.861157471042,5.66959874196225,127.365283395227,265.604741267507,3.74298757702202,-530.238237260257,-476.793763628917,-540.677464930436,-511.922766950529,-498.551172767963,-532.918150187218,-547.91010574526,-593.985109812014,-514.456779390246,-547.566017079957,-527.026546379821,-510.04899056419,-509.536631606567,-545.592370196158,-526.499248035494,-569.685704464494,-540.36300971717,-623.331085701688,-587.382246527155
-957.51083116166,-986.755519115176,0,-763.054054361403,-777.255478085751,-499.75975409821,-490.267523150052,-620.835528782741,-471.171725795409,-350.280717486356,-573.526401859097,-465.495086413989,-359.560489585207,-259.849295476779,-256.252182938438,-298.719958163935,-86.705874247615,-88.2722552216748,-135.22394125465,56.1710785948161,6.379316366342,204.005857158378,220.902440604833,101.412799831314,506.868465517455,308.273098105086,572.492543572665,409.214581789686,244.030558988406,511.218302840109,270.59432361848,254.707980704211,106.842123645909,402.903849274968,358.121729537178,226.071884628619,170.574577952863,-33.0647964486893,359.019573162699,247.54488007236,218.966744041604,89.0881572764192,220.643981292079,296.663988868579,52.4982487939826,-486.481063524595,-417.464827903812,-487.116499843271,-460.742440840046,-438.294971167113,-493.487212532369,-482.070666675012,-546.425674858692,-460.371079101217,-480.401121062899,-459.894847606505,-450.182584060705,-443.715201527067,-482.025328434265,-459.175185185594,-502.989722769313,-471.540178941329,-550.275440579642,-522.015384692907
-883.478286473132,-868.147899612052,0,-624.550288057962,-713.344929794105,-567.075988445694,-452.387548047487,-523.355134006484,-541.365034119179,-312.022439049292,-453.315535010158,-621.41720109241,-392.146255720165,-180.082812005324,-296.626973253049,-271.53345010386,-74.7126054729075,-132.771460637004,-122.655913488605,44.5110437690183,-90.7684160735549,250.557062845705,162.060293065555,53.9153049094177,500.818734824738,253.378063076926,600.38162511376,403.467747558485,230.344802822503,551.584987208106,276.264678920544,262.549176201622,202.346747746265,403.928595988228,387.390190346361,237.853222612298,212.193841613429,102.757113560313,369.788610576943,268.050449821016,253.531991073004,146.469407645038,247.041896608403,306.969482048907,127.150378679218,-438.380441538636,-345.243726790251,-426.018213012145,-389.808924334741,-349.458900885561,-432.584246816937,-388.906604239592,-474.221382806503,-386.190654844032,-392.480076027046,-359.812295698652,-373.059871998006,-351.148946497001,-407.824050220753,-368.683768562422,-404.584705457142,-370.011634998831,-462.264826330617,-411.965600984401
-809.812909402179,-804.219653778678,0,-541.463576873088,-729.375746068632,-575.16994779341,-434.70301351297,-515.885945598867,-572.070573846137,-362.317416500877,-439.174203714753,-721.355529004697,-446.77124568543,-218.818928455009,-335.054041780235,-287.089197796515,-68.7617932437675,-174.180845978161,-182.95881790949,31.7375402122602,-179.559079572077,261.758502490635,106.991230717179,-58.6276644835708,474.54123945725,195.479453137722,592.024575153613,393.323033491806,166.459644532247,557.338365790654,284.83326496328,214.077841961358,199.407988004022,388.478403319777,400.850607971651,230.857709777669,189.492861986742,147.406013276669,367.856655191115,283.043643373445,242.922939129426,143.630661381857,250.231381060348,277.598509504094,165.804970676151,-382.303254274197,-278.172327544177,-358.975913479038,-307.130863832926,-260.651301447247,-361.012168455815,-298.325416240546,-398.381439077356,-307.895034148024,-301.011390412852,-262.154579507,-297.90855186266,-259.28443785248,-335.554569002545,-283.834189291666,-312.023505068394,-275.920429696827,-382.950963071226,-304.63720663965
-716.812197466477,-721.647223623187,0,-474.379195141762,-703.129353495619,-504.512263652477,-392.402758541804,-524.645770835145,-502.345747214179,-391.024045118591,-463.056443970843,-658.325149319017,-429.752561042716,-271.32521870848,-313.408716866632,-261.671246702019,-55.3240259490211,-144.931547874744,-179.936247577887,45.4586644177884,-138.44266969667,249.818014898934,109.315125057351,-72.659742043052,427.283207221711,204.642779779798,563.588249605434,396.952953776664,177.346300396413,540.849945598257,313.292387834714,197.085772258781,170.098834718659,388.96929549547,410.08767301758,250.086907270098,161.306208984846,152.870162300924,383.696078229944,313.354275520107,225.46204237069,118.35580204537,265.444176823403,251.448762671933,182.470153245655,-224.496926833418,-148.812605548004,-205.707932082829,-153.8944674163,-116.717031881381,-207.961496099988,-151.687272363011,-258.882754602626,-160.314471873133,-147.670558689809,-113.343476747196,-164.117378465417,-120.107649416174,-207.664258175048,-153.394983258868,-184.215438710998,-146.832324170814,-263.450834364358,-172.389336793025
-607.557432297133,-566.890629475174,0,-385.828044709787,-587.744468032242,-405.784754721116,-316.667767475226,-490.948841346648,-378.285310324296,-349.304327790127,-485.000947613575,-491.867186187236,-341.462083588373,-297.858059687369,-264.766873334714,-211.433981072213,-66.1235415190774,-104.248964075357,-110.563598524842,41.4203060514462,-38.9395087382059,209.093528350215,116.683648304855,17.0822031602139,343.465164422074,244.679073157467,501.537046615908,394.146905020393,242.989442697196,507.620537010031,343.663050404059,229.640648845996,171.886274844218,394.151087132068,415.147999473223,289.081517224926,170.335987155459,152.468593465969,399.443352561346,348.698802284631,222.941994785661,103.729901158029,296.729164496724,237.269803828966,189.919738745865,27.3784584587309,47.456345343202,26.2524267819327,51.3567875066921,79.1744884551155,15.6470341046571,50.4653747206591,-56.9833370031561,49.3476649935556,57.9642098164405,85.3912478157553,23.0060891243046,59.6223311317149,-34.4550786854506,25.4088166756898,-16.4212551562198,17.9255004694079,-98.0192168509933,-13.432370028459
-512.326187424798,-378.413065607607,0,-304.498122105111,-424.992997104582,-331.216576908477,-253.023737708164,-407.111332187738,-282.594315323632,-293.368384439084,-496.222658821678,-349.411526916838,-261.070123654286,-325.97117111525,-249.906928854978,-211.266323185056,-121.288599155592,-122.900648193922,-82.8527458633783,-20.0141442909067,-13.5823122778165,131.85244226154,61.8580237436972,73.9380135128242,224.769830847264,233.06639947509,390.798983996629,344.882099174227,245.303281518634,443.386334099412,334.15177774369,242.976852313443,175.212700570761,362.715073967825,403.505573039433,300.615672357294,188.535560764024,127.967912934211,390.040812818485,367.026245216072,213.224691566005,92.9494061580602,329.340159520239,211.304967376161,175.201364023844,236.05461792071,215.185942070818,219.097800161954,211.385410268366,236.090616120462,191.958024208815,215.138842131845,105.154990729005,214.879611651664,220.031614710496,242.352794490342,164.430568368527,200.715450695018,90.7011181238287,167.979230921938,122.753388441304,150.986527184246,37.4469129370125,118.592609330023
-425.23470628494,-202.349672051201,0,-239.745639139951,-244.609346064515,-248.683365655656,-209.184356517281,-271.498419329414,-200.449117907512,-247.451871525908,-466.736028154505,-224.08364886107,-204.08988008793,-345.047204964015,-254.816678165136,-264.245723032625,-189.063118778585,-178.680194153931,-146.797135285327,-114.337491262015,-76.6765315420234,21.5660541729699,-47.3172793355348,22.0624875623603,89.9013586400892,138.768757744594,236.959796905724,225.695982636421,165.885572818663,325.506333992726,256.110732195853,217.047200951724,155.049928116969,279.106861402828,340.816683312145,271.671757343653,186.572858207984,79.3873135896913,346.646450027031,347.876770874399,186.390647281297,66.9334505245331,351.628669726788,180.301522701802,140.040058530841,317.535457128839,295.146596531722,301.940250523408,290.138121547326,311.668785971585,253.54811061362,295.857153988194,162.456981737492,281.016419929607,294.04971900108,315.569851682219,209.665035280563,268.030974720443,125.692469663853,219.393881575749,195.436971927506,224.109133755265,91.0493031083261,198.220033282173
-319.604458910188,-51.5123300531237,0,-153.129378951995,-91.7085733458031,-90.8685408656465,-136.772521258624,-112.404026342349,-42.7522886071996,-170.939937177008,-421.021104714315,-3.67596724908113,-98.5256551216165,-331.531187669148,-227.293994521321,-309.097852367358,-237.556124177779,-223.14486365349,-258.129343404393,-195.538593573332,-158.351144974014,-106.274282400929,-151.523051950606,-82.7082778082666,-45.6054986545784,4.03743890407206,61.3072245354362,60.5002416363238,88.0750932021995,150.989916186983,131.438696055798,196.939441141614,144.23319621759,172.266166866145,207.070303308456,231.944263595507,191.847063718141,38.7713080570726,264.20392754159,293.27246559077,183.651159692879,40.9961616718224,370.557355551564,176.149505651165,102.066711134793,313.113804123409,328.220740759268,308.515202543607,327.044799394294,348.332683001548,239.939605260436,329.098119261145,154.053292943012,283.554475813045,318.09103340308,348.331202656323,197.709771144889,293.981985382176,113.581249176922,206.175843835365,225.778792387985,262.569673878023,93.0112524487298,242.337793503608
-217.058239183501,41.9662928775964,0,-49.0257386276645,-58.9428530137806,119.972052435577,-33.5271087828712,-30.7847197760649,203.968232428039,-82.8193502553995,-480.424127916053,322.985293249328,75.899164288946,-340.233465639857,-164.951447350628,-319.259627639063,-272.974203573398,-250.603528955433,-370.410716354345,-243.652827563303,-213.950611503917,-220.439037349316,-202.564191328851,-160.679062498378,-154.411501700442,-93.7402627987655,-101.770596681414,-76.4806109537122,61.6664156766874,-37.5654315420934,39.6141163607812,177.740689408131,146.321635557056,82.345733867953,51.1245706217244,205.671413637366,229.951808596594,-3.12201516487094,148.099932792165,238.6250857074,244.781870302638,54.0269669409537,396.640871730522,201.699737566082,59.576257543002,270.991890564692,346.375617670707,277.444823190527,325.583291147883,357.731897467343,194.53091159849,326.160117029992,127.516124225202,243.940571667193,301.906177850443,348.089831494674,157.501258696993,284.868189349897,84.1593362393883,160.225913646043,213.929679861188,257.710580429603,78.6937564383223,237.822788107374
-168.65971298343,61.9520831054293,0,18.7702893979462,-133.432187308149,276.919013958517,30.9719167426849,-80.0309819643815,423.523794516345,-64.7023163814292,-663.598018486653,616.59869548778,225.23522859401,-427.904879931863,-93.2761078799581,-311.226865290653,-286.061429701384,-254.305570267451,-453.844762709815,-240.429069186675,-220.687940917587,-262.956650146583,-178.923198627418,-169.801237687474,-178.815486466679,-90.0981948344233,-186.56324700555,-110.852932625681,92.7224927472477,-147.865499876843,71.3769699522535,144.936777255282,118.355633176081,52.6024196495711,-16.2282006288282,224.258871181821,285.026846729571,-63.5381403008756,57.4811004517396,242.077632964951,353.275684705306,123.510277301543,430.309319928254,242.520906871321,5.52052877150679,190.785426620767,313.295576859898,206.811398991214,256.723291818312,304.495062191414,125.035244507382,263.930563785901,87.9669493531901,161.020819593729,225.876690021794,280.538275187632,93.0572098725785,220.429264126758,39.3080832947184,92.8912029876547,144.054772627621,188.051792230217,46.487027061553,165.923194509027
-178.874562237436,63.5037897901731,0,50.0279501521364,-157.773553256053,306.872385688411,16.7536826261792,-148.947527804404,471.693033032632,-131.183029152446,-775.893165555758,717.290065510699,233.586281384214,-533.759435950744,-38.7748496063139,-309.269261880304,-250.242117432115,-223.670462618543,-481.192703119787,-181.082661910691,-176.546669080626,-197.824889073282,-104.63592719506,-119.032571259861,-106.540787883503,-21.2670335837057,-155.559642855845,-69.011006000944,156.875563512987,-129.716153696977,201.073884241429,155.070171714181,43.3156877250503,86.5661974052725,44.0173556312722,306.689611487928,318.28412404641,-104.067557257878,46.0951893162031,303.160217101102,434.871682444912,199.369408582597,442.736777494721,274.241795594538,-75.7205028870443,61.2573657623703,188.776277245276,82.3557136322531,125.159869951552,178.970525464337,28.9732199434982,143.704055778726,23.3672447270322,53.2159117134535,104.845974422743,152.795567159483,13.9736313854048,107.755479145137,-15.9946267462464,10.2504495686918,36.5891748239755,72.8465317734201,-14.5623687814059,50.6878349928406
-191.943631773548,95.8068792327564,0,124.139864339707,-59.7159161816063,239.098641647107,-10.1523824349323,-93.2152318268819,330.084915772451,-183.455538667444,-667.418689508247,582.448592323783,90.2092203829682,-550.116689425709,-49.5067328207933,-341.404090124685,-200.832550286492,-204.530008685943,-478.21487445389,-137.469653088394,-149.949403056346,-102.835704785519,-71.7417200787417,-94.6336800320633,-48.8380395248957,-35.6698449180226,-92.2289343391682,-89.6330844566037,150.613475703945,-78.8329619166009,248.057195672534,217.830885712727,-45.5806695732938,97.3204967898075,102.506477103887,373.222663322327,281.748064071525,-90.3121605404951,54.5059294636318,311.58454759085,406.312765645482,185.414074824615,379.421178219971,235.960063717147,-224.747103152324,-108.812557568819,-5.21469105659247,-87.165994531745,-36.6329811746347,7.7825075952559,-98.8287385334051,-9.56479982708812,-81.3475909080243,-64.8148304130152,-33.0861345196409,2.44667933150205,-82.9289113400822,-30.9173087560779,-89.3242609157074,-90.2300999584857,-82.6091904343821,-61.2705696113935,-106.762587494205,-78.7460984047363
-140.133234080395,141.704572978749,0,299.864373764168,53.8026573189844,194.625302440409,91.7714591145611,88.0465002642436,178.36242319709,-75.1873665091439,-443.511296599686,367.361533414794,-43.5779023568774,-441.307114726073,-118.090818808779,-388.114022172734,-188.183116592236,-239.094917653536,-493.042046745025,-172.119812915018,-195.917603359153,-83.6490210634916,-128.379574609211,-156.433308048694,-93.5918654449619,-169.90453042953,-82.4683408384168,-207.765388380801,19.0335380653246,-100.614767254538,119.972469432029,255.87045992971,-58.0681756658647,42.513000010307,45.3845026015599,336.329976602704,196.104437102293,-13.9619277476569,23.371124631236,215.535672747597,289.028064444098,80.4726735677397,253.839068744786,114.903888223467,-405.776612480732,-241.545221991008,-155.913812593876,-213.407837948941,-154.124866145287,-127.889236292177,-208.645731410916,-123.479702734927,-182.749869410754,-149.30723545725,-129.772032386309,-104.247955084025,-164.916776858034,-133.79543897479,-152.559432521803,-165.345627671594,-164.148073315803,-160.718791684915,-183.574466002932,-169.14441752544
-14.1541534471942,152.309646660824,0,513.59431984954,61.5400266203197,283.998764148443,394.321338662265,271.609506859329,235.413547937325,249.495187210458,-312.081659324403,305.884082562807,38.8790488675033,-259.44710787006,-141.260111310513,-369.623210567356,-177.146411947793,-276.220122275854,-498.541079098375,-210.075698223798,-246.179033621655,-105.860033933878,-174.433942552717,-223.442724335647,-146.39721378863,-237.832752272347,-68.5994012906661,-250.998329629545,-93.2390176544075,-131.569193277224,-26.7576478573974,254.108771069277,88.7044477466881,19.9005594146517,-44.3489265159959,251.357269305777,171.631251305657,142.126042305616,29.252682600615,142.831738112167,212.379375568429,15.4210355783193,173.171601280003,17.4433141324983,-467.005523244108,-214.478105276878,-130.161058541295,-170.819363731326,-117.28957242148,-105.96373758849,-182.021178305773,-86.1959573720833,-164.594054509758,-104.025993201915,-81.9226261650345,-65.5542944395637,-133.279150691888,-92.9585667300121,-119.618473604895,-118.170874747095,-114.649812285779,-126.675701272132,-156.84711898695,-127.625269531284
83.3635767592255,63.2175207463812,0,600.822027764342,-70.476877124973,456.10797612671,747.513369761353,326.848540313411,485.070207683167,636.023066327745,-361.314616128985,418.334387516138,328.599256791302,-117.308033671398,-90.3724720505111,-281.615081323852,-144.188544911995,-267.41500603046,-453.733461035947,-176.287700956673,-228.977537606117,-110.645679663201,-125.148885906695,-205.388481740926,-114.318736444841,-134.389461949026,-16.1912111921919,-130.571325982564,-65.807734349579,-88.586054814167,-52.2644728943309,237.71963981248,314.997294553691,61.2090077727537,-57.7422720919727,179.775745323856,217.230103848018,331.763812202878,119.805679010662,181.896620685976,208.844047582526,50.5587120606438,178.910946727044,20.4778951552916,-336.971306251845,-2.75895007095499,72.0931435109957,48.2217737973723,91.6727478062072,94.0454704811865,22.1839994444985,117.48733493625,10.1610888570737,90.7021182227108,128.519785929901,134.632918141425,40.7458045246999,107.189652914191,23.4224470276883,61.3072955501392,73.8191659321717,56.357045181043,-24.7037425858434,48.9613396013703
20.4564638320555,-168.381325563936,0,453.702287689308,-315.504855618807,538.905915623553,883.9072302481,211.462959895058,684.891035392643,832.691497717017,-512.883304715393,488.885224651436,590.281317319733,-95.6597337122193,-74.263093694967,-231.900344936925,-163.166480254393,-254.623687332778,-400.45824460152,-145.053295822443,-186.087138403571,-165.680136191295,-53.5822399351106,-148.85822076099,-75.0626755732559,-7.56564964266254,-29.8661497863059,11.1537346692698,-14.7723486679225,-18.7675357666501,-26.2297602932966,160.226908257092,418.570088922581,52.9752627500364,-9.00114413940453,57.8226107014098,183.971665082108,420.533144092897,199.217343906013,235.698144579191,146.842888787967,80.4469667932549,187.686382729151,63.0018274750712,-123.854797043497,282.384218748956,317.139985991098,318.51724809973,350.336984563066,342.611175105948,285.689994394415,360.214982338815,227.627532666161,317.623231490989,374.156309478693,371.742518603222,243.209655277295,334.681116071444,172.132542671032,249.221282914997,272.627096101959,268.331594673814,100.09059025102,235.231852811585
-193.856546922795,-491.437231357286,0,143.772876510249,-607.00672216591,462.540338850774,719.257876749144,-1.9656365984682,668.028370399264,759.66230136063,-617.15568698575,391.5023980542,650.708660201147,-142.462584820737,-131.228144665946,-249.684604169207,-243.31543035607,-251.847585426949,-352.168514159662,-166.074101809492,-140.932309088184,-266.783580401479,-12.9760513259326,-112.071462586911,-61.6083634121888,47.6536030633834,-96.9771683112527,103.042542972482,-27.6636715999645,78.7866385283946,6.0797921818222,27.6841885990633,332.804949777482,3.38835252728158,112.215222429745,-100.663113208397,27.9987906434442,345.236538131752,225.094221819086,234.318992800436,-28.961484411761,21.0131594428023,151.369607545527,80.5817245159715,58.4295557868474,505.671441369517,498.453863791504,520.632140443043,534.217113241396,518.500891814647,467.251225703532,522.97375264089,369.664810265126,464.185324329993,532.870523719101,531.819858199392,362.235855688747,475.330553771912,249.193886438621,348.002127825652,383.175948566027,408.780036168329,148.899850705076,341.743228445125
-441.311249615487,-814.21789380868,0,-183.58765445603,-881.48794924867,282.010780475228,389.128778125029,-229.734204657375,460.337486530361,527.584260746587,-619.270065121858,196.193954413997,514.293689320349,-164.906047263489,-182.450617597163,-244.358251735768,-273.194988835712,-212.921114040813,-234.487936086754,-160.267779440653,-56.91036803741,-248.877792926702,48.5302628173235,-51.4547720039041,43.5597976746618,122.979482037009,-16.8978598139192,251.102095672294,14.0077227244144,305.041047413078,136.027310041297,-36.4655172020595,186.988139546054,79.7381534891868,356.43945523672,-127.134460341321,-103.302294973913,181.057138049538,276.163544552251,241.274156554081,-179.264584395432,-84.5442624142661,106.967752636975,79.6690944901003,175.393645367434,579.545717606008,581.035622712566,595.345998527146,602.51096217833,594.652869872039,521.835060293281,582.538705324652,411.208602247068,511.583146292687,584.725067704492,598.925046999509,393.884482875941,525.424898202858,270.612688539599,371.067298161785,416.689951592965,474.59607489381,149.944153987725,381.461293028558
-675.94071015744,-1099.0159307871,0,-475.796784919345,-1105.38475233995,18.9458271127764,21.2778630323802,-456.307543457963,136.294004841467,235.617300312544,-592.678642721863,-40.7076262839509,231.731094169269,-165.699605985316,-215.21885707132,-200.462161341068,-220.880220618658,-163.565430762037,-56.7413325011388,-107.15180784859,3.36699564930252,-76.4973088375567,111.397394144496,36.4489574401785,250.422864775469,224.2917535496,253.239258643804,456.08668845506,156.610013392221,611.755010015628,364.386156780601,30.1308856540307,113.087523082434,309.062165751421,638.168179941301,48.2386725479932,-92.4705618198258,27.2081892801675,377.842092413738,296.991824425622,-162.292113551184,-153.837521775027,92.6566792339585,72.6100427130798,197.093209054272,505.884044426524,562.278236556154,545.276007169099,572.913154309346,587.873371304269,481.449005331635,566.582896669156,381.178957440993,495.161985659597,563.281295085403,597.888929538842,393.670556744102,517.57856477664,273.481199153923,369.735404616052,404.884158472787,485.623688979292,133.800678224617,378.993901493853
-911.61834575677,-1310.1699870629,0,-727.602408338926,-1222.68485129214,-313.791106428538,-326.370416739565,-647.739102341709,-225.250836850448,-65.8303339139306,-572.052593614553,-310.470485274366,-119.074502197289,-180.05016695832,-275.36327711613,-188.647123920303,-176.577090982804,-161.363244469781,59.7633693642276,-78.8287963082245,-58.2652207834053,72.0994702746528,99.0890532347177,50.5297242336565,382.783191018447,220.47224714528,484.34623375542,543.727399391281,243.728063845173,767.823709361082,528.624658290756,158.464177717895,118.022390602001,519.605889196645,776.018001884412,295.400735626914,40.7603099078253,-72.0355759424791,458.619248954231,356.684054277835,7.73969103936058,-132.586643277531,129.660638234196,70.6995829247775,111.589541721741,387.603822851903,489.246310030404,449.984348875356,501.736978687267,536.40418481228,412.267267892463,519.653201896701,331.839406790978,469.050900291518,513.649194863971,561.454220610418,416.175747893351,478.683397096875,284.949497019162,386.421829146547,364.727106537981,456.735475460322,122.886148677421,340.481853874635
-1093.38777240539,-1367.91732949666,0,-880.422118467074,-1167.29638538551,-610.301940317986,-582.785788252349,-713.906396622911,-506.25379093467,-295.217373564749,-488.22032198432,-534.294677138949,-404.882746664474,-187.73570972117,-330.536417256671,-203.447465357812,-180.664445799382,-171.00122637175,76.4254628804225,-86.2488497376015,-161.396671813866,78.056224429505,33.396932531165,-23.530234445697,311.539879671893,80.6044126018622,474.985925180244,389.744300699343,157.544469872134,627.780700928819,471.243313187084,232.180914328681,114.507220564352,556.976521361312,665.499302247401,422.597028978776,194.692868602934,-144.508346107972,431.946486372308,337.314593892708,179.625294017469,-49.3527986858499,163.408884036253,52.5720170063549,-58.2475072445864,300.115807629559,401.931854246275,375.090908462134,426.071324510137,462.556945759599,359.402311102687,458.592397596565,303.913221213954,458.112268777102,456.355663623706,502.279875616012,468.326370787676,421.275890327736,317.659768128069,434.054367465533,312.919447768393,401.3424758735,149.129581303764,275.969186156975
-1123.31169178556,-1229.80044167472,0,-871.159597545102,-944.705517371321,-764.209847500518,-683.124408174287,-609.682570512574,-636.701013574659,-369.096371686059,-287.63148707846,-635.610267170469,-544.10828311967,-144.064949238141,-316.852978110077,-179.667706980148,-182.209381720839,-139.043176749483,79.3634471395421,-91.247054556692,-151.304899862772,1.12512271975847,-34.7429216199335,-54.1354655632544,80.8867408839417,-95.0796162093869,254.53739347593,43.3330442741702,-37.6251286507799,273.713251116718,164.33955872649,171.039309419992,53.111527010739,403.227021924781,336.421786893772,309.097200013286,273.728100733225,-225.334631669853,266.442536757388,171.824911721943,205.485552861361,-1.32904449499786,72.2116605869019,-43.0619556928376,-282.122843559123,227.466969216279,288.7517025604,308.855116782201,339.078753586026,358.481523676608,319.700683941352,368.054898598278,292.691695584315,435.635220929766,382.748459242533,409.43599774252,499.542921090845,345.672315188904,347.699600353978,478.166537197694,262.940007603246,325.974303453588,202.258492552014,204.504785975995
-961.445848806803,-935.659829279855,0,-696.267746989776,-617.480686760603,-780.453770776032,-617.156601197345,-365.951924589535,-658.708501280598,-265.820132450819,5.82195208767256,-653.651078382886,-552.61760257284,-14.3242796316035,-240.603336421411,-98.0751730504831,-139.509561121894,-78.5669316929681,141.424046672274,-82.3535574967235,-40.8489439248317,-54.2896973408159,-109.143502288131,29.9033706049255,-161.947609399608,-220.822590913658,2.70018294186942,-309.703888925928,-199.479894187619,-82.5506044183087,-237.827920686601,31.0801828070641,15.981639957793,173.836698132077,-43.1131925993931,24.25135465528,288.5371876148,-227.135411325307,66.6968580913384,-74.7630208315819,130.68841307748,4.60139333383168,-93.8952954780126,-160.396141597853,-457.918894258715,195.842898080588,201.726216891879,272.536385925392,281.776300408897,279.231961314221,307.162940938914,298.432801644531,296.137590381095,403.88055359887,331.339652250729,329.641693655341,483.093889522749,293.338283433373,352.543710129093,491.230109302692,248.438411484306,272.240229921649,242.862369711205,170.507811145065
-679.90511166032,-597.011567602855,0,-443.663101112696,-288.847918314727,-719.611582660554,-442.850330265807,-78.0819930358639,-644.241880253852,-63.2740990130009,289.331552194283,-657.717245222531,-476.090706039513,175.661017602389,-154.452394776141,10.0227088419273,-68.3621200409208,-17.4603944061858,240.59194560578,-59.9491732168191,39.2234992244111,-53.6612776543009,-174.836292585373,138.340739243633,-291.385829227713,-262.49653182008,-135.512203470009,-477.744844138669,-230.5955172338,-273.784669230933,-476.2204062076,-32.7032056797696,78.1098536427477,24.918494382518,-259.709749768293,-201.093815205043,290.410391268575,-40.0965405565648,1.66651526950168,-215.718556622867,123.354419917381,50.1432287480743,-100.691756496943,-141.918586438569,-442.140497126367,272.049989107203,235.678099785081,326.387007806318,317.162379697779,306.852817807612,349.945104511791,327.238946201778,327.903824320044,403.164860875515,356.225580404743,334.019793484311,442.389710021372,308.472914045535,338.169738780713,474.695932759366,285.656972527594,285.465454451835,254.388754617887,197.20086246854
-455.483382129264,-382.738546506586,0,-311.154061275303,-115.278817963765,-624.620953874485,-300.66498987336,71.3831587578093,-607.727049124542,57.6087773878761,393.774128372555,-636.752143222151,-364.725014718433,290.346707626014,-100.503277459062,80.093577232345,-18.1144288678564,17.3266081394819,283.0039773132,-44.1447777352599,23.0865855541695,-43.8563848149988,-205.797334670557,151.631749128736,-309.532173062811,-235.662534189372,-173.209754558209,-447.836008005084,-145.140308931087,-300.82723917494,-453.042944762894,11.0286669425481,149.97578376895,-6.91720335503877,-259.633103874844,-240.63537900571,226.545784655187,229.267498381071,88.2852877092712,-162.739332866344,180.170467390703,118.295331300226,121.528560508816,17.8997536123901,-219.377595630001,391.178309182191,337.580448067749,410.979063546472,383.126158824246,381.061982258269,386.847892401733,388.948847130565,339.326648130287,395.857140283758,390.724548032439,366.929298684364,368.597563268356,327.889324546298,284.125353774423,398.271124454332,294.25389920812,304.837419237898,215.361787678269,209.371914312738
-410.66502856064,-367.275375229137,0,-427.671521796374,-149.795337027768,-530.532322633914,-316.346892565349,-32.5469527150673,-536.266417383458,-28.5574194024783,251.048473690615,-559.430185137089,-264.825905633541,223.160591921408,-82.5687976283531,65.4796936413287,-9.2843791171762,3.00749228076497,212.551388043077,-57.8533558793911,-49.498009737065,-73.0995980343594,-218.552523937419,57.5366257551232,-303.904042020766,-208.884754570581,-204.717047452088,-374.201869715469,-66.049741143491,-275.339529780726,-332.395658353948,19.2622943391478,114.487882205272,-0.466453180437773,-171.185571648492,-200.688927950096,46.7183586247848,348.75645171417,195.11903158445,-10.4196713964252,145.207979303829,119.866932590811,393.509379360594,175.427945597979,105.109400735432,407.589747790114,355.369209947684,388.807641518311,354.633940462065,360.021070502331,317.681176787262,342.173604149572,257.328645700968,294.637084302464,315.365438663003,303.20065460719,232.320031676386,251.883196882173,163.259089930995,235.994809236752,191.209506450812,227.074816170982,110.245535402771,122.163406340337
-472.317023905109,-411.121904985179,0,-657.632850663804,-244.239079756797,-501.241065159727,-477.191343460225,-259.689158239548,-486.029215403458,-246.147375077801,27.6114767153667,-482.669123767098,-222.010390293479,57.9708798190618,-77.0594973816779,1.18611647860374,-8.62862007179241,-35.6185784786984,93.2269578960895,-75.8106673751912,-104.517443563306,-116.472066620064,-228.380255155824,-64.4840122260609,-313.693069467597,-227.081380442772,-253.62339739194,-362.128064185736,-108.925232568254,-271.032256666401,-298.34366322165,-121.37298074741,-22.3351226943328,-11.3573830972516,-125.127410029723,-233.069007004781,-168.528777546413,228.45543253927,226.181898151858,102.2298490493,-22.3732694044492,30.2521314883463,537.906795376066,235.366653530599,388.638157548548,279.234975566948,226.607326752676,222.088612977002,201.647314230254,203.780497446729,140.737460214824,162.990358745376,96.4198573017095,100.699177264808,125.091264228561,124.190596927193,57.0639951583674,79.5568714568329,12.4024848461804,37.8067857434862,13.1194664980033,55.3050807588997,-21.8616823696673,-37.2029817731004
-502.07900287113,-351.587423270191,0,-779.247523824369,-251.479177641103,-606.070151596796,-692.881302348179,-419.656061650702,-556.078195127064,-470.062890747389,-69.8802901764797,-505.776735622997,-300.511327161534,-62.1159322797448,-81.4523366745078,-54.4447810945134,2.92065837199364,-60.2040767940942,21.1876832557369,-73.8925673290598,-115.308150167986,-136.978386604658,-234.201511199567,-147.01085988972,-331.991281368252,-267.661965632117,-292.455180179425,-393.872165124951,-263.462421639385,-303.452534011593,-363.506770390419,-360.597964075993,-211.203992810006,-54.4305995377458,-166.110908234468,-358.22385368029,-347.404940896255,-45.3783186257128,159.540314589975,97.4363047398748,-226.801720550304,-137.983434603229,497.71673048928,165.171613387561,448.408850471725,56.9087287194538,-9.93222580643364,-31.9574246333661,-31.9032939059982,-33.9206220992088,-78.0398271447046,-77.1843119901888,-80.8004132118476,-119.990372299062,-109.075527104579,-103.257704906788,-122.551836095764,-132.169572662359,-125.007639194371,-143.517503114907,-172.879526315697,-140.981987641528,-144.624885015871,-202.365429467081
-436.239612202408,-167.844475999014,0,-717.34395440348,-132.06544882803,-782.238673820888,-856.808178978624,-471.177466448045,-703.753251074531,-659.866549513056,-18.0806671420092,-606.349288707369,-478.96533626346,-113.026887137788,-96.0559383469243,-74.3465495156499,13.3174427749591,-55.1604697638503,29.0955471695915,-62.6988719241125,-92.8631330748322,-143.851212623079,-232.535737506332,-161.899271117292,-363.072420594181,-286.633721298421,-320.042510674772,-421.857433921151,-398.896949603421,-364.085278863993,-434.396056552991,-544.533725529864,-403.100977241289,-135.791488445143,-262.497322898384,-482.348388958445,-496.11588299387,-305.690085450939,18.2392454825326,-11.6461443240398,-380.37805034173,-337.044898961106,320.852333254321,-22.9783120858973,209.485759095542,-187.044657955684,-257.766721096164,-288.2838981832,-276.309977997938,-271.814919100335,-278.379929268182,-304.098908330402,-237.336170493349,-317.893359952214,-328.161973490762,-317.162580971664,-292.44293037905,-334.718581454631,-250.766684189343,-302.883777574321,-347.51261642864,-318.795033266352,-258.924032822094,-350.502885471454
-224.84471762498,131.197267384336,0,-466.855334847679,148.868283330884,-800.49235873711,-819.576755832723,-390.253049577517,-717.475462642551,-728.08625024156,110.173778114658,-620.177099115515,-573.727825802429,-97.2224231256022,-64.4508625810895,-17.9812389725452,52.79899064934,8.46746862723425,119.543737467029,-25.7516704033995,-27.2166151977836,-126.383467489207,-197.253156767987,-94.5193269643856,-381.888233620285,-254.334517218565,-332.400910032385,-415.882177895994,-393.123812230552,-408.693164648612,-435.427807571764,-563.122844778132,-508.694590448447,-227.849140101315,-335.563517704492,-514.575705336831,-579.953928628715,-404.216956521396,-127.267936928809,-145.180553502802,-456.529339989521,-455.926838092285,109.571855549286,-245.660315320385,-151.342211017649,-382.300661111416,-416.707031481245,-457.465132796433,-445.07502910294,-428.234713234022,-402.901242365473,-452.285211533583,-333.701756166361,-444.753733745071,-473.324178629151,-463.529893382924,-404.194805427391,-472.078423191238,-337.7230721282,-409.896715309904,-470.801425118836,-441.61176632528,-328.754810394772,-452.784945703272
164.526813868958,530.171169139417,0,-45.8812743269906,552.95942328566,-522.683792389355,-512.036322008671,-121.507922945579,-484.832389621719,-547.557185256289,274.549121411647,-448.450308829199,-447.062373333253,42.3709298827245,59.381730952069,134.921129245119,161.145624021424,135.674696870347,264.984326012479,56.2339316801531,70.620916909282,-49.474784136499,-120.713993112635,12.2165958038606,-342.537122445599,-185.000192355607,-313.159130051264,-372.171572494709,-272.559097672019,-402.929108942391,-373.301763800817,-455.321776261292,-476.803736102429,-299.175053177666,-352.505373867211,-465.478277798855,-550.04107738927,-338.668265689636,-236.557859056198,-258.411443494781,-482.097593036195,-444.459419516591,-101.711041023255,-426.931642661368,-395.354056889762,-513.556642362371,-483.807488696916,-519.25168113956,-509.239810854027,-484.870770744123,-432.729402715732,-499.271193790821,-338.936136805364,-467.719636799831,-514.016771422882,-516.39699365336,-409.108114396051,-510.246828606734,-329.76511395373,-416.871529938815,-491.107701720453,-477.570568925636,-298.63549702354,-466.529002777439
651.42390170163,907.536121298628,0,419.203540544971,895.111448187819,-88.248755902646,-65.0726151638649,244.969776258375,-137.123787682307,-170.517089754815,445.370502325444,-182.81354091868,-179.629182585121,295.32011437466,215.689072048695,312.50940826942,286.065017325065,255.995035437995,384.303744857419,140.020802892854,141.289904728671,53.0271643396141,-48.1668678518458,69.7369546485286,-259.44927855384,-127.223521185494,-275.890835976754,-309.272019369241,-162.503116469506,-367.165202403771,-304.455384892811,-338.526245782167,-360.003362516311,-348.834958572803,-350.206269895863,-401.125277561577,-441.003800446736,-218.757891584672,-328.402456548359,-355.301576792234,-475.460399926165,-360.189802556518,-316.414425497396,-522.256079410976,-431.005452289025,-558.277995747166,-481.925150825795,-493.472810439854,-479.826495001027,-455.113353067391,-382.210006695804,-451.776775027125,-263.837947879739,-393.646521403282,-459.607855552578,-477.333329062877,-323.052822208927,-454.908896763606,-228.92477010326,-327.431846756808,-408.918644871016,-423.589430402568,-180.565475555879,-383.186161160834
1068.31986553903,1128.70808769107,0,757.100378531755,1051.72126356278,264.351078315702,307.956536910757,510.561529556465,139.585611980772,168.00342217446,612.521448545844,28.7921713039043,68.4936754952409,531.603339533663,308.707585192749,424.924220284018,330.61842763232,312.117421501167,430.091711030064,179.001504834444,173.555928158145,98.5474504128167,-2.65290255464069,72.0153681447597,-184.871018515813,-85.523915733216,-244.92380420947,-230.352511955713,-104.008557953795,-320.802426342391,-239.334404929341,-250.598866286059,-223.075147999083,-363.023960144708,-334.096747180849,-327.78549919349,-308.166026258097,-93.3146941575095,-379.931592110145,-394.77672815305,-397.383169238165,-238.846835270372,-435.869552392934,-469.353022725273,-279.226795111798,-393.280409051373,-334.35550280258,-322.490734344645,-313.080747637585,-298.414026124218,-217.969961454702,-282.224953382238,-106.814172308902,-220.889452997634,-294.474181839834,-325.909561867823,-170.166932235111,-299.723535670885,-73.9736890061335,-164.734045336185,-239.767477272819,-276.404562782586,-19.2546068158384,-214.51125515131
1278.03332742229,1176.32383952731,0,880.003335322369,1069.60018004145,424.551758155219,470.053248318337,585.697748979073,271.971851119751,276.856444444775,778.176776111574,128.642631283868,199.27369623983,633.938058227939,322.045727425958,464.163313940905,282.67450692946,333.852522492785,449.181134881251,188.466715848017,230.106342170792,71.534469677199,52.0974807167308,107.652324332965,-132.09902870585,-13.2427051667309,-218.613933332815,-127.156424417066,-33.0265828154953,-254.841385551086,-142.883653586813,-153.512649451789,-81.5879245458561,-321.053037913406,-265.793742920705,-220.629483089903,-172.604591108548,48.9953692451655,-336.826892807921,-326.499664855467,-243.657679155074,-83.192505559911,-375.719639966711,-285.386452634181,-34.6269927704,7.7577377872898,-28.8529584313515,12.4009516918036,-12.7455581136569,-24.7416901516793,71.0565565605337,-9.514807923407,132.932985379655,34.3884724635339,-28.9289861564721,-76.812877239399,41.1272706741577,-62.3149780997896,111.915028189203,48.1430931832519,-9.40895147765232,-53.9906784542356,161.789486615437,8.73000320814348
1271.11229858433,1101.11778302223,0,810.140181487761,1005.00764474053,429.608673926848,427.442394893098,526.756129660558,290.025323227487,164.701365887771,893.200232687645,153.751127039371,197.28968017678,598.083100638093,312.187794001691,478.63525111439,221.125091791418,372.501203899199,504.144176873336,207.326985282654,345.155895057389,36.814201639297,142.363164494247,223.165285286137,-79.8477729416858,104.836992010572,-184.111077236735,-16.3238162803509,87.9250404536944,-174.214163881815,-15.8961560659627,-42.9694718263115,50.2902126824292,-248.560295690123,-150.470091446171,-102.957535771069,-56.5730161645186,172.603211813396,-226.001848281236,-193.819853777443,-102.847863253555,57.9694972774052,-231.417759049523,-108.057938139768,166.492187147578,401.615808608954,248.21367987284,338.319220868951,263.262075082565,218.60979177567,356.356191019857,233.141247915537,366.096797230886,272.633431167183,222.14467437857,157.844265381536,253.511123010176,161.671039041216,292.061995104336,250.108810590894,205.384424689549,161.199230657533,333.475702246206,213.880055286898
1151.16297243219,962.706915775993,0,647.354511898225,870.568145827086,373.309190517719,309.787184532437,416.949428614223,267.943978918775,11.1117117528968,912.868469227036,169.716601967416,149.531655018847,511.673587980315,324.577952477465,503.83363455193,201.557291660731,424.728042594927,584.762435273591,240.414232079933,464.550765070889,43.1656468566923,236.187700367688,357.781341399276,-20.0734050986881,219.197899584843,-140.489945793695,66.765458932551,210.186900903846,-105.693309059541,86.5523463502425,44.193719149532,134.982620166727,-195.074138107449,-48.8803908283289,-18.0420086593798,13.4355161709222,220.530071830993,-136.79894531819,-91.6757871035329,-42.0997212978393,130.176696444959,-146.812106192634,-25.61681328838,262.35857800742,542.894019398482,336.01985055121,469.189772908922,365.223067137389,308.200578102819,485.524616935433,333.926683642551,475.574357379455,389.552791670337,343.518605296753,271.507064162909,377.439817124552,282.849406493665,408.970257884432,373.674291696014,330.170906236786,283.268250854747,453.584204906153,334.932435052801
1011.01356508677,836.929275379483,0,506.436287139346,728.495979447904,294.097116238377,231.528032717793,309.345408152945,226.706453181429,-13.4192288727456,859.94832613513,173.196516077723,147.56417774216,462.010980810197,338.057869316277,522.942776063122,195.506789236312,440.721123176386,612.030218603737,254.71965480118,495.879412300956,68.6230666692929,274.930935253495,411.18252945175,27.9747992312877,260.620359368384,-99.9951946464132,92.936280994624,249.410525299523,-75.2946476169881,102.181258961752,69.6809765199022,135.895955628106,-181.958663995486,-23.5323949008184,-2.76305395689291,9.80567620339334,171.32663407012,-125.286799216668,-83.4209286789813,-57.5657608568523,112.019215055375,-166.580558049338,-35.2838690965531,256.098753805628,449.301179096717,250.761420785504,402.67581927596,290.681122527513,245.171619794207,439.337061685314,287.627583830491,445.013487943111,367.87350089121,317.136892417765,244.606465699786,373.850889392322,280.097955263535,425.864607175727,392.911227012176,344.01897776293,282.328125972991,486.985687286895,352.460109698369
900.701696378778,801.957352162727,0,470.915019172599,683.39516099976,172.23739875776,208.655113880939,276.555952913059,123.59218578326,101.228542912799,789.74651030502,95.5957362912958,160.05093388175,467.876587392435,308.293190507301,494.304202280651,169.414288207444,398.941667568333,537.095050593646,235.375284402408,423.423695144829,78.1118572783971,251.189166330095,355.975612608579,57.8025684846687,218.321658477307,-62.7604137671832,72.8495353792297,189.940082862835,-77.137171419359,39.3162821054406,22.7662391899572,68.7322105306069,-183.183859013579,-70.8485297084617,-65.5131467538603,-66.8956955559789,57.5462762221566,-167.594797598242,-157.946201163049,-123.819874825059,21.2549443177637,-251.11099453257,-121.586984191464,159.885306828359,283.241149828699,85.2544666651294,256.067208187456,134.933653691231,94.5843769318945,306.107698347366,154.298045652785,346.649148685189,261.43977516165,199.69261138031,125.810777368264,285.465580153767,187.334407808358,361.422915945479,328.451638006573,275.438889280214,191.831086043045,435.430177172968,288.298019233
889.186605825199,905.57988651925,0,582.980963306687,800.545137523022,70.9106875466065,249.487903225459,416.198845839345,3.14118281740044,268.942381982004,790.306086280055,-39.5996477777597,146.325728322436,516.812576485907,255.118470366799,441.201377369625,152.055967903726,353.625119425342,430.690150735071,224.285155514,348.263951073354,89.929947375199,239.300958220149,279.593943369111,105.310345712074,176.115257343633,1.84964432933704,75.2924817066978,134.481753314252,-52.6106492861634,6.44558519300424,-27.5225185634716,25.8929298206,-139.725269118374,-88.8541806426764,-117.238050957204,-122.230573964738,-12.0618336419162,-169.317420324002,-200.339670375494,-166.475563777406,-35.5263295172175,-285.551293699107,-190.162762004862,82.1379672295564,174.707763995566,-32.4818641178648,153.498940134841,32.1304580607852,-22.0254165075797,197.449396675135,50.4958706688534,261.952910115313,163.332330178682,98.6419868201215,25.4864171185195,199.065927112281,99.5983613996417,286.919156430636,248.738783516655,203.072191704675,111.423968610561,363.219292328464,214.563775236461
991.760152859409,1100.26740371292,0,792.930579675108,1028.7636973539,123.80227235689,374.172197139574,708.03271129864,1.1682347940559,432.843999370481,906.725697265816,-90.1792603293323,172.198956860356,593.438399992362,239.650168297372,424.230302908856,169.352799207849,355.041057162055,386.230939442743,255.513351062029,345.1655426272,135.057082122185,288.704267821316,268.991724645744,186.787812475555,210.87929040442,105.457087140381,143.843960857371,169.051145072243,33.9108021285486,75.1141808596128,4.1369502193725,62.7820165494232,-37.5471975273753,-8.353842385408,-56.096764056702,-65.2158291452708,37.7196256973692,-79.5001088084802,-116.343630165208,-105.3958138816,34.201720677456,-183.56886147019,-118.228066171533,148.982224410932,169.61619605536,-3.35509856429756,146.83135223782,54.2831396393277,-5.06248510903488,167.956944172635,59.5007703899661,223.791232821074,135.432451913985,86.6723319011253,26.5202846317302,157.602860459787,89.5533376688616,247.928651256005,207.745274352444,182.768989585158,109.597806462549,326.466605076992,192.385289049546
1085.08158494025,1215.5873865562,0,948.656326712869,1177.15419813,332.719212456245,521.756756199329,943.275070699428,158.109169333065,554.098159722286,1001.53222570334,30.9463674499862,283.134031087533,634.74686155652,279.014565049818,426.433833714813,202.110961854337,369.705177900156,374.729733949819,296.852024800999,358.198796005999,199.30340030057,341.072625020781,293.971391593474,256.13336301964,282.021478468995,207.803841258676,228.732767980932,230.59956588725,125.359163373863,164.871272819394,78.3717335076083,103.806922293341,58.833631375226,82.2896883116995,60.5108124496212,38.9941523777115,112.397636930039,17.4599101965766,8.52182273942681,9.9567592231074,140.733953584171,-45.5906241420513,25.9789665729083,273.298136732466,204.444564103957,97.123432488085,169.688280628203,114.381555721673,74.0215521540649,164.997981352269,108.829684209862,194.551868918953,132.218086820539,106.145001302371,68.0053217351347,121.833378462954,105.323069713977,210.979438564675,175.121699267537,171.549109029969,126.068981715131,296.631753623632,187.053223546826
1037.08523258202,1110.77023931933,0,931.747613480404,1075.46869073394,544.505277853058,593.023793887896,927.68699291056,379.681140868053,583.99035633798,887.199310161271,267.168573432273,419.148691576158,567.910943645578,340.391817267034,397.272148797223,235.18972083763,345.638693384944,317.489970301034,302.729894845498,314.081662739398,248.152104518194,328.286747947906,275.217857411458,271.453076802105,302.430919267451,272.108992919272,271.539741979466,214.48461782541,158.510125071431,176.890307550059,82.1417079936704,64.0888068744491,101.020780005455,72.2570498434099,95.6763973592221,73.3966728322488,73.3476355687953,15.8341449238989,28.4734008434926,57.9562098279689,137.769797285813,-42.2749534669157,52.6068911203307,256.590894128806,161.572490453119,94.4022690091672,121.878222299178,77.7031488720417,59.2068773700584,107.152625819526,72.722305339671,125.274028035258,70.9092140846016,59.0987204696094,36.7198819389653,46.4692708936133,60.9505665861414,134.524997051661,99.494452287894,109.759785878965,75.41344494342,226.614111675875,130.849508797695
868.22007684902,867.005835625594,0,788.146604206153,807.076966593142,643.25988926191,577.080823252865,716.553836335135,560.036811864634,521.917438603673,611.626312838591,491.672443031848,511.588064170197,420.908450879072,381.65808073087,353.487675035607,265.098342754837,289.184750505303,225.144599029868,273.13637055402,230.417266354928,262.848926487645,268.394389861264,206.696518302133,240.690025593554,265.208564565554,296.560130192544,287.120344762125,137.160585568617,153.775673084386,151.594595210304,15.6352678023813,-11.0339267395134,113.9117923882,0.111759487771829,54.0587738550479,59.8503220823653,-47.5957642061654,-62.4543303097612,-40.7380718181739,34.726367811973,60.9593802004243,-167.946991095888,-57.709012566707,92.2296168828282,24.4299908120376,-40.7685453436112,9.2859362033475,-46.5743160880516,-61.2364805973918,12.730579614462,-34.7745473253164,46.8220157301939,-29.2323175288004,-33.4958877241646,-53.4300216715051,-33.0459931587642,-19.7941389781869,54.7036931542977,13.3761574267134,33.9689038231876,-9.13761779084569,148.618386555498,46.9409347715304
697.574154998953,706.744649547332,0,660.460783495238,639.929431996269,633.212580837888,525.785117424064,534.848272010468,635.424535793118,421.849347048646,416.995360367314,589.346087633384,525.054529607397,295.52059072982,364.622517542867,317.402671012523,265.602233250774,220.66570344229,152.312673631779,222.660983889986,151.168297137685,228.635133588083,200.645597485646,135.306846820211,176.430036056451,214.625322659861,271.97346261501,297.148551421823,97.8922013892666,143.99413536057,181.005695672307,9.53637399748918,-14.4337265096843,121.482932556,-24.6057668932104,69.8049671221332,103.400712068455,-92.4226423397917,-123.065603529391,-68.6067123571083,54.3779457528233,65.6016404847976,-266.868451438852,-134.195946031447,-41.3884039546565,-81.3083980893736,-158.049703931902,-58.7774096722136,-121.867693585502,-147.83943860429,-21.7841091686916,-89.5058734373549,36.2648796355837,-69.9570146055743,-66.3177026749163,-91.2402680272065,-39.7445785641553,-47.0592048585749,44.1231202162452,-4.24237828346214,24.5722839364119,-31.5448690211697,132.668238632791,21.936094623797
574.711617968816,707.228930305296,0,608.714479412277,677.745131547687,546.761711338892,446.792752408453,492.233169493036,561.194285466844,319.924414142549,419.536286604588,498.095919716326,417.81815506647,234.585149366463,259.137962346659,241.898776668857,195.783428271617,122.353115019915,92.1563314547749,134.774044012177,67.0588473690782,127.370502474197,107.652470244771,70.8956192032681,61.2811846760615,149.598280227414,166.609900525708,253.455669101927,133.27978957269,91.1509443618362,244.554346987135,143.293195999802,78.3669981678854,91.1524762277438,5.68350647225515,195.713957776411,218.01200064738,15.39254521669,-140.234717821982,-14.1133871978525,167.881058253693,186.706872102371,-246.655259987134,-62.3901792014857,-34.0991158774017,-56.4657963855053,-137.039864462987,-23.5223310239848,-79.7890497118279,-117.242410945054,24.7694917799625,-48.3038646593572,81.4656223007719,-32.336040780738,-18.1658751525253,-46.6479097654839,17.4053315607314,-11.4018650889604,88.9481617558095,38.7765017130194,71.5534313062918,13.5489511359847,163.947474218311,61.4856205917736
474.56697791876,748.329692293626,0,596.859768179902,767.867391978201,422.187474669577,358.886550742688,526.700846151736,374.231514954691,254.04229861314,507.172901650041,279.037984047394,224.237681272442,219.293302466942,97.8704672080055,116.696402353172,68.8764403151988,7.96287479029968,29.7605685682897,19.2086051224939,-24.0515088877193,-8.70357901575403,-15.8849494549244,12.6415058427227,-89.2258456766876,59.824388398035,-0.462355487982062,123.52725075284,198.434567323182,-28.9522041305769,254.00065497401,344.365324661012,219.605181189065,9.72484801814238,18.7558484396924,340.801782108999,337.620824623659,221.910814147618,-141.539343436765,64.051742717065,303.251255929831,322.443895589239,-130.313586141154,103.541223845154,69.1681963294257,49.6014573798919,-16.4918810540299,55.4472135163467,9.85306704218486,-28.7459486822914,71.4461673241248,17.4312917414756,98.6191572768901,7.56137010660247,36.6727460492026,9.52869900377604,49.927383859228,21.7443783878996,103.772112928772,59.2020317985415,96.9609515198828,50.1025407480866,164.084449657158,85.8624205048056
407.168937712155,722.790355296709,0,602.807389042496,754.896324640024,350.006065782375,365.739486962737,566.12442660363,242.894615254493,294.330027243288,522.878617665343,118.933692824842,113.414301785138,235.004516746915,-6.52824046880267,40.5367969882811,-21.9896416530303,-41.171457517488,10.6286327334102,-48.4369819899926,-65.5403677240546,-88.1965828956262,-103.438190947939,-5.21360473661088,-190.283889060142,-21.1983646166031,-131.157176641719,-26.5593558361544,235.080134566278,-145.943666184985,189.614513336098,470.47124839476,364.046440584777,-64.7909635752347,-7.69160576664264,400.894096553231,416.356728445812,428.532646865958,-124.615709286279,126.82854875329,373.22038442534,391.516619322343,17.5504664061719,235.505962686576,171.483915614311,114.923072703541,80.8569264768842,90.668385037103,55.7998960174335,27.3592011753344,62.5327184698171,45.5446580697041,68.8457284310064,6.82545978250291,49.9241382769703,26.9241567908055,25.1576381878043,23.7748203228703,68.7080156165981,32.439220476698,80.5172115370301,44.9749646622108,122.056425864575,63.5861621813242
370.320923525191,605.04351520564,0,586.40353601324,602.174845949444,379.140335324434,488.132036648138,546.707508020011,284.507647764582,420.564268691994,387.391085595787,129.926809568507,183.298411630581,234.03725834491,5.33045505172803,58.1134158905094,-21.2408999027097,-10.0595538197372,34.7352264783958,-43.9134307839802,-51.5813779882177,-73.7573232884832,-131.005432430343,-4.82083409080498,-202.279187377137,-101.616924029261,-164.309106624728,-142.656565510117,175.527328363678,-200.907708199248,78.5458630415838,415.902041290025,436.6575415033,-99.9032641273965,-57.2992376296724,334.350692339296,401.445017351271,526.821954690314,-97.9529355944946,144.177566256264,329.348483200458,358.726904206521,87.2690743680685,228.752590639834,193.406242715522,60.0625251665044,64.5902962596963,37.4593203963971,21.6621938195253,9.46199377898689,3.68506134325974,17.5599834694385,16.9453772082115,-27.9036110436417,16.1855073774511,-1.50282607570367,-24.2852527831185,-0.502852089785272,21.3663056347279,-10.5279072373174,46.1547065290395,13.3762257099537,74.7676133010677,22.5987064471525
269.831772315359,370.948259259312,0,445.131394336423,313.389082768547,423.673905831947,549.447765058058,381.708756191527,391.297952821001,474.724797921456,104.32944921919,209.180904554214,299.013215448551,136.694716718052,50.1725400484157,59.8141039590646,7.25153805601137,-7.01501948661215,-3.11854853379289,-47.8920793710001,-86.2616662702284,-29.0030286560697,-181.604455044209,-88.1360915463664,-197.455994135109,-249.520481436475,-143.803619983764,-257.607235754129,-26.7281520308018,-222.703641698796,-69.5476098945587,173.532500781153,335.630278258547,-135.462949481465,-135.005695848176,144.040064425035,216.665741085392,441.457887241363,-119.004091434756,58.8586858882359,147.662175659942,194.837199825527,-30.4514421825531,60.9956040709428,109.75127324215,-95.7594112401366,-60.0729173909632,-88.8983867992995,-82.7857352408466,-79.730576140866,-93.1445239596363,-66.5951204478039,-72.1283700629424,-101.515401163633,-64.0637824098737,-75.720450902374,-89.9380496704635,-60.9144160058147,-42.4123848790055,-72.2689905175487,-12.2899049090162,-43.9962747637707,9.12275555823815,-33.424310360381
38.0948571013356,15.3741949977204,0,143.344614126596,-82.2898397991478,375.930363694627,392.708131497348,70.202677497787,376.586897116299,336.026825198887,-243.011973470842,197.791583616031,276.611082643118,-69.1405950650599,19.912513478887,-54.1380132251876,-17.8259121682164,-108.619498469261,-171.71905075925,-117.015569179054,-239.320134378054,-20.6893191533879,-303.675977977417,-282.610043129876,-239.736476220502,-454.756086514951,-124.819633524618,-375.488515416609,-305.856901706885,-231.80255823285,-222.550135769372,-162.680020185974,51.4596803526538,-184.077333783214,-222.226437849891,-120.845432584452,-141.229636212229,192.733266861899,-207.80863436033,-136.495421564303,-159.782180834494,-89.3524481372462,-307.989244914478,-202.855724621482,-36.6833413297831,-254.082363026795,-215.258570285183,-222.1958686651,-214.630195732645,-201.198251233641,-204.439172806703,-172.07648286854,-203.070430288386,-206.086078741176,-168.948875128186,-176.995977594549,-182.001471954117,-152.920604854485,-139.566863059768,-167.929106324761,-103.002771991498,-129.448338009748,-99.6201136110454,-118.051373337206
