12.0344086946028,13.1218552633922,14.3542947080202,15.0792590872131,14.1368053942623,15.8767199043253,14.7892733355359,15.6592305905675,17.3266486627112,15.5867341526482,16.6016842835183,16.0942092180832,18.0516130419041,15.3692448388903,20.5889883690794,21.6764349378688,16.0942092180832,20.0090168657251,22.1114135653846,20.226506179483,21.8939242516267,16.8916700351954,22.2564064412232,24.431299578802,24.7212853304792,26.2437105267843,18.5590881073392,27.8386321610088,24.6487888925599,23.5613423237705,24.2863067029634,22.5463921929004,21.3139527482724,23.0538672583354,22.9813708204161,22.4738957549811,22.5463921929004,23.9963209512862,21.3139527482724,22.6188886308197,21.966420689546,23.3438530100126,21.7489313757881,20.733981244918,21.5314420620302,19.8640239898865,1.23243944462799,28.2736107885246,30.6659932398613,13.4118410150693,29.2885609193947,34.3633115737452,27.1861642197352,62.4919294864312,62.0569508589154,20.226506179483,29.2885609193947,39.728047979773,28.9985751677175,56.764710890807,54.6623141911475,40.235523045208,38.3506156593064,44.8752950720428
59.4953771692287,64.3653005788069,71.0106584453418,74.3781014482593,71.6460946852345,78.2345312710993,73.7995864890369,78.0000102559604,85.5493887802887,78.235987815231,84.2118460391114,80.1364703583818,89.2068175348835,77.3489988588186,101.46409489157,107.348968432019,79.9189810446239,99.4371077180939,109.267939220682,100.179103798668,109.178411081382,85.2978360637689,111.478352305155,122.813120758535,122.739167776484,130.035537040161,92.4122359605815,138.980836130469,122.757656021997,115.422853723163,121.327672053256,109.881974126798,104.686545018649,113.087392552496,113.468362987606,111.567880444455,109.73698125096,118.429271080616,103.961580639456,111.023428887994,108.724944208353,115.115836270105,106.460522931474,102.877047158931,107.023462733448,93.3118869859795,20.49217750912,135.462574075185,154.933975276908,82.125471324902,142.308389554097,180.23478528254,134.072479685733,298.915162251475,304.898303196015,110.691087296965,151.297947856089,199.673132797432,148.109561131772,271.594647793025,257.26903713944,204.038494229839,186.975050636702,214.962151649542
120.501183925838,130.90576607402,145.904770069371,152.955337301476,153.432422309797,160.193659450948,153.447962601492,161.998462728146,176.031795336958,164.670675748261,179.917994421743,167.460659894384,184.313345469559,164.032001469979,208.29018568274,222.495732917223,166.573670937971,207.539891405105,225.548515930744,207.708067108977,229.563732292414,182.195808919909,235.324248272945,260.003961005266,255.835418705142,269.235862586174,193.802695674623,291.445311320442,256.388203324218,234.795302142625,255.915557679401,223.569350957467,217.842608295127,230.231340083678,234.316505371155,233.483925048854,223.026355945138,245.617866082496,210.487861206648,227.578015750779,226.439508943402,239.663444057946,217.960013844982,215.006949019213,225.216168579244,170.271424218312,89.9088949310855,254.271757381747,318.484317951714,229.918822125822,275.241925018457,408.655912914009,267.77352121735,573.207185942759,621.06158384943,269.186619068199,325.726789380117,421.600817982381,317.967929654521,521.924530414191,481.210849034896,430.721859821321,373.157169764446,405.232969587394
125.193748571585,142.591951692559,160.816468409154,170.635360003901,183.238432534671,177.43946081134,172.292349054845,183.362087605255,197.539009070924,190.294523636886,212.673875226777,193.49900383119,209.163760045295,193.593194918143,235.952389605621,255.378235560795,193.73028680794,242.194172365942,257.870093996449,240.347977355186,271.466056432903,219.457222847262,278.896336161494,308.41528246965,299.083901673741,309.50375693154,228.97086450794,342.908389513429,299.457269939745,262.326868958173,306.534860316178,254.861032146137,262.414955747086,256.395111448921,269.464339313674,276.707638616343,255.172053655438,287.678131422809,234.342324890721,260.353613867802,266.611377728765,284.844947656902,250.023724327558,254.611689574907,270.607547164947,142.507368760395,186.031457087684,218.69513139512,329.459169905038,394.631147979091,258.878756199157,541.95935677956,270.95024981102,550.696680469373,691.291725146743,394.814778386992,378.704103867777,491.387101953817,380.133994086461,502.54606143151,436.967353747887,482.359123891036,394.48951219332,338.262835079343
64.9782273731713,90.4211581000048,103.11320081088,113.74790801444,138.92862743618,119.067452693477,115.11640665462,127.824226456023,136.906139109574,135.842824576037,158.136765828497,141.853947029426,148.254803514192,145.971498056566,175.947359965423,190.291079879491,149.280545639689,188.142820828952,193.565103367716,187.649662131791,213.879769982305,177.360530214752,219.454957358771,242.775465829345,236.94265131587,237.093155924124,183.986504821262,273.044996248213,236.483366848848,192.996572806832,254.570055377553,203.589809590964,230.38300640963,186.702914034288,207.584010178312,226.918862061526,207.839227260545,235.025252865537,174.304238461543,204.021406520533,217.301495424533,238.562346120056,196.744394339339,208.972257901596,226.565880438639,49.5935876376542,210.970005861615,60.9968105900048,163.673340420363,467.361682869305,114.366402561134,501.652968839537,142.155792305543,274.535731938811,498.002768277011,406.387479803494,272.292922812584,358.78239921067,306.290733723585,247.413363246665,171.048608560688,294.223160751477,259.913512197253,11.7016429724732
14.6043284683725,40.6679961938182,44.6663817675468,52.5155142216745,79.8813332416757,60.313122370941,54.4235976252992,67.5660301887553,72.2936911316414,70.9115908423224,89.3049573813118,81.2498677962024,79.8868833303327,85.2002605223801,115.605419998217,118.052106060464,98.9325795180403,126.311936982351,124.959246665378,132.514676563047,141.668360793158,125.65483630731,145.131170336227,162.094670954812,167.889476988227,162.848909620551,131.610301645043,192.828456314683,170.734213194214,130.283816799902,192.5168574635,162.891521325725,192.672735605333,126.718700337243,142.928754360695,172.034964617291,170.049528044667,183.331669325245,124.019613528233,151.513661497535,163.667069065056,185.270567828425,144.198691641187,156.819115166853,172.59194077334,38.5238164799035,139.61578864118,1.58637461354439,38.9466039536345,408.770606230366,51.4541509564728,392.494905078616,61.3559739868222,109.530744653747,316.978434534609,331.301487150553,186.238612955728,198.649558278193,248.992890425381,95.8868208161385,4.98363987746692,91.4381794515997,182.199338268241,-232.003697461296
21.9408583216494,36.903278518636,31.8442687519451,34.5474077803395,53.278289255927,43.4660270604962,33.8126261144268,44.2907243373888,48.2234671802151,41.6039955651573,55.7098982225274,53.7001424484014,51.4225126961733,53.6855598070876,86.5021174287292,82.0706095785492,73.9254628257937,93.5897996138416,90.1732378259901,103.578023103625,99.336938879136,102.47049284938,103.734769868341,116.350695290464,129.814455751873,127.431054032801,100.510704159487,144.919741418981,141.621793762586,109.00993914749,155.453533930801,152.455018851733,168.549466671692,106.883508146789,111.283405617273,146.212702806449,155.801806605657,160.580557619148,107.260440270551,128.818773892582,136.320541144551,154.786197916143,120.747101702027,128.877554330933,144.601553527102,113.825228853416,81.7978116025656,92.5486643777704,73.145910773714,295.498932290576,130.855228066896,316.325270265238,111.819399521348,148.173371809794,250.478631709965,252.692765903456,231.891658551221,139.358875757641,285.594465059046,155.149951250736,36.236642114662,66.128830664127,223.915230640241,-169.715569308506
62.9753215189919,65.7842065132339,49.0484406408481,49.6449599395957,55.7255910700672,51.1033665039975,37.4739618384264,44.7448543811593,50.206778158538,38.626976132408,47.2678755021875,48.0880982596435,50.7720365663856,42.5826865498122,66.8631819516574,62.0867215627762,62.4968545025236,71.388858868157,65.5348551911027,78.3011250650402,71.7478228709285,87.7535015086114,79.9686404552837,84.9738148896721,99.7895524960873,98.5224671792849,72.1755690150102,101.780540993045,117.357721309695,97.9569593313787,118.352772592763,134.849304069175,141.2089628543,83.7807149670192,89.5934263104965,124.527724100244,132.382311081656,133.056105393764,90.1538515573066,106.514369462271,113.212006334491,126.559997386379,103.884809222747,109.351194667214,124.854754626291,161.105576312365,119.154980586317,178.650332394494,157.795778535473,236.296908447412,217.028796639298,297.91988872451,191.172429813081,211.385647765377,223.70276317852,233.532949080777,311.391870397556,173.328386247644,317.195224971957,264.650129079624,137.015210400446,194.989464627906,264.719509446911,86.6017734649241
108.442879834687,106.677038896935,77.6569670691027,80.6343582226893,77.5887998761891,68.7778642599314,58.2722430414207,63.7728237990743,65.9059622162075,54.698719755155,58.0495683985907,55.0432804496618,65.6428690247836,47.9804920619512,62.1174766192501,54.5146463101293,65.4284312306754,61.8459651961466,53.5440807503915,65.853449970295,58.1928304786181,73.5532982164175,69.4642601665413,68.2180049409289,83.1608175634679,78.533378425967,55.8058961138181,72.8610087646611,99.5635716799614,92.4930921690455,91.9592967987439,118.446313857513,123.391580525703,61.1102254254714,80.4912548581226,108.921960656374,114.3004373242,110.5059857527,78.1712572672517,92.1175639655331,101.544493501141,108.454254233008,96.4940043309709,105.688025018354,114.21528446791,142.222820080957,202.96108769972,162.513064044733,184.798557648706,245.652236769119,202.197757122159,310.249412509209,164.059145126049,180.093842667275,173.143752643144,273.609320445751,274.190487357002,231.103319367239,209.548695095657,295.902198785459,206.000976839392,356.78248467779,220.442369091875,312.985748783214
161.636460904526,163.552720846508,123.291258107066,131.566051191511,129.435245424943,105.727805165294,108.061572161842,115.019942763665,101.104172458225,100.02606250807,102.740682930011,84.3137874114061,103.081140010941,87.7050545047728,91.1726968776006,79.1733494454673,92.579004914042,87.7451936849126,81.280613294627,88.8447313859399,79.5865212958237,81.8325388183914,87.6911506128743,88.0719928489544,97.9776645788245,93.2571283960359,77.9225767568291,84.6797168675555,117.036045578946,107.251054150544,107.775875620146,138.204922805356,139.250803897962,79.1370201177558,101.816851597471,124.017141488811,134.379473637324,130.347629605642,96.7992039947149,111.415331165085,124.756908784928,128.757516071288,118.00400225892,135.469228365992,137.195234315806,97.6738175378389,238.746247482028,76.9994564571526,140.385675699098,220.012386237453,88.9257192391764,251.7558220561,1.44597049957103,29.3815477618124,9.33227762624801,304.187607281184,70.3029716909563,220.175697114722,-60.1994328177927,211.781529848741,187.09413007437,458.269738830843,103.866293153065,397.494464139555
214.751946506948,227.892063796342,173.990828549972,192.528515521775,201.088065222109,153.091347460738,166.349342530059,180.565856912359,143.747729579409,159.688134713499,169.417723666213,127.026369128766,153.02174407154,151.01695194595,135.401453535422,126.68248534677,128.891826042328,134.411155236191,134.788389579432,127.88458657673,125.121772277898,113.161821699488,123.851742550407,128.319535043039,128.050222615708,126.580311626986,123.378682841219,115.113466164208,153.944080664766,130.818718396018,144.817374084746,179.164748004832,176.400240786418,125.549848345689,136.476976658783,157.241353937783,178.579711980195,177.29351931147,131.584017133726,149.635183333044,165.6351592993,175.932880106108,156.673781858169,180.514114029591,187.636040912298,52.7895386311489,187.655655351961,-20.439998881875,32.0564228218836,70.8583573749707,-62.3510950997051,27.5916153744641,-192.60966618444,-205.45725453023,-293.45775837321,244.643699008624,-223.719823929955,115.17718341702,-368.41469858163,3.02981770312799,63.8796341818095,482.139468651612,-59.7134593309842,351.871757826836
236.699613049685,260.631787379789,193.954513559016,226.06016081229,243.816690778099,176.227649799912,191.033204810209,212.748873992482,161.949775185034,191.315140204484,209.460230055121,147.730526237585,178.998832748703,187.097738456041,152.587240012069,153.273915478446,142.649193477591,153.855276990753,160.253105482328,141.884509794337,147.198966389131,132.147670480268,138.397731225096,140.514540010373,138.212097513937,134.081465593306,142.586344516804,117.502775570194,158.636085883327,133.086423264158,146.722805371104,189.352347217521,189.846005419643,145.026570274462,142.094286236883,162.110614709204,195.797050918004,194.098898382594,143.400686077794,162.822684437146,177.9137083004,195.313351355201,171.535334720664,197.211597769418,214.046136407537,23.7980026054801,98.0831696754998,-82.4485374503261,-78.6564237581578,-133.792439622864,-169.315405252528,-272.214298154875,-280.821503023716,-395.906933286075,-525.620768782215,84.0476711261774,-468.786882189748,4.90106711231548,-548.929128190321,-286.695260749489,-74.4864855218825,439.736456397084,-257.930489857885,249.265119475063
219.808870330915,245.824744369165,177.353983399241,214.215024295813,230.808990113441,165.864059260033,177.568589535773,199.485797304591,147.083241152802,179.097128633492,194.274236537686,135.550123161965,163.839258910274,172.740372444632,132.551764042298,139.245991916508,127.502435040418,133.446352971584,139.521488181803,122.878061102229,126.731391220185,119.382358792657,116.571964520401,111.918469319397,117.58209623604,105.552939391306,119.700200410058,86.1311219812876,119.888571233978,107.212285319776,103.867919949578,155.085453860535,159.806036104331,121.604483825493,108.773321549007,126.189612428245,166.285104536216,163.316248892425,122.687259195594,136.395492187122,149.254858703544,164.057791784039,146.937957529541,171.453032261733,185.345800175663,28.3991774833929,34.5114372460781,-87.6214299151636,-113.551516945774,-284.958002763177,-187.368017029398,-480.493067315384,-236.635366563676,-457.049926913363,-524.745718446465,-140.283915218965,-573.177360085509,-100.565527024215,-541.384441556241,-558.658927694284,-144.889026029188,221.378670530881,-431.373057639348,139.113860190484
179.090398978747,199.268932832336,145.083428781148,166.771360556171,175.963512912636,136.863594081291,145.728225327789,158.951461523437,111.960525240866,136.477981438929,136.687555673437,107.543168059821,121.315219719761,129.509063113602,92.2850303627567,100.196227321337,98.3251130152536,94.8091704438687,97.3696914915252,86.9568237918823,84.1472118781136,86.5430039808143,73.900260625789,66.7892907039536,77.870564539833,61.7005437629459,80.4541660695051,42.8521925073895,66.4188654704284,68.2582278712369,49.931786848884,98.2902605479896,104.705760701828,82.997937919521,63.8680541005654,76.5108662092978,111.750300582688,108.859748655245,86.3273669465818,89.9249867522866,101.558698578374,106.926072815736,100.365395778025,121.091193202764,120.256624536746,45.7154997917741,-26.9655857648022,-73.4333265041036,-130.913737403491,-425.985479799329,-157.63653829804,-627.875801526517,-145.610377339639,-466.581178650885,-504.281539659211,-423.802334518983,-539.782205488597,-338.59528978559,-408.506608516899,-723.174526000025,-219.891214463721,-312.077791235809,-481.814522997472,-29.2897649247382
119.670920061846,120.994827410314,96.6068761745798,87.3551919696662,86.8229524091733,82.751803642241,89.0460109734124,84.4232143949544,56.4441338498634,64.4379923456645,49.045174217609,60.2729280595826,56.3112426475503,63.4521920455733,32.0497267358355,37.4841412735424,49.6832729728015,35.8771519160457,34.1717967526775,31.297206727395,20.041241027486,36.0119394669819,10.5008754596679,3.92228069578063,17.9913386787267,-0.128160138609027,31.8922461787428,-18.3969826251143,-1.11582039832229,12.6389531058933,-10.7524233445675,17.2948167178599,24.9642448266856,35.9731385184976,12.2765452212697,14.1882321361,32.971600264797,25.8859333611582,33.1134649300553,26.454341353319,34.375537154741,24.9732738172962,32.4118851906781,44.6046313483894,29.1500447811473,39.1332549153562,-119.646407561302,-72.9844013197659,-203.401255831855,-569.725225052266,-128.424563010078,-770.58275673496,-72.0450939211828,-473.332101247371,-646.336847134946,-699.92927957286,-419.828685051723,-660.805165223806,-242.343222502368,-715.799395171933,-363.247331649084,-937.559886591543,-380.618797824391,-285.223866477513
52.0428400606802,18.8490506895943,28.1839982556322,-8.17038875152418,-24.589344961346,1.83791180245808,2.43472134823447,-22.4399083829663,-16.0072433713725,-31.3711571049262,-56.5038523151283,-11.5042961574627,-30.6428835633232,-30.0452249081066,-46.3927551147717,-52.3580500904269,-26.8161123610933,-50.9471897884884,-61.7919777799986,-48.3107527266958,-73.5037140732064,-34.689939409583,-75.9261499651907,-89.0940118041072,-65.9671613086941,-90.9523806491355,-38.0018004868934,-107.428847498617,-96.9952777557303,-67.4241869654104,-94.3381797859589,-92.4709041180027,-90.7457617718325,-31.5646262113878,-63.8752159732474,-77.6434543705889,-79.6804169271577,-100.616439206219,-43.017091601987,-63.8937279640638,-65.2816243825856,-94.7480041874027,-64.0539542346897,-66.396916742154,-92.3664821745285,16.6161631277608,-165.546307975713,-52.7116090748984,-225.142972862323,-531.95986311822,-83.1206507680768,-732.470009180865,-11.280833915328,-384.66486280073,-698.148717091372,-755.08549999715,-269.359827694859,-757.894059464636,-107.042397660293,-529.432585168243,-451.367888982842,-1141.70339366739,-215.123694020268,-474.454295018979
2.61053065789036,-55.4143745358647,-30.1415345074262,-72.161357823679,-107.802145181121,-62.8382743730592,-72.8080756429135,-107.328216975836,-72.7205794564779,-107.253269045232,-136.158988560821,-72.8505532278681,-105.201943446515,-112.384766175743,-109.340628752742,-130.532461500609,-96.6801863995591,-128.670623556878,-149.180018491202,-118.680342609846,-155.707533157973,-97.194635966614,-149.124896090692,-174.930841489727,-141.815896895391,-174.841816285694,-106.804256819075,-186.183041034683,-188.046139392997,-138.308168408677,-174.586505100133,-186.546770222349,-201.246978240812,-96.2319721127126,-141.277089128635,-169.35488334864,-184.335104717197,-220.929709046712,-110.766187318644,-151.129885446255,-164.849136526436,-208.281094415227,-153.446501312659,-171.296747982116,-205.823499964871,13.4130858166736,-107.482694985283,11.406270031341,-111.111707029806,-271.70474633843,-7.04360053782781,-433.159390954147,46.6562619326776,-187.349156297136,-447.975594189175,-506.449482131849,-132.258662787409,-526.432241545592,-25.4581088511784,-277.878177918271,-368.826263130371,-810.159032677483,-96.8121845565671,-429.904927685662
-21.40503793209,-70.0480716920606,-50.0759839284443,-81.8570640869565,-125.979675274855,-76.041661669078,-95.7772645766018,-128.308567987933,-86.9122560734062,-124.35125402359,-154.931979677307,-91.3974380968995,-128.904513165201,-138.237888110846,-129.918915835879,-154.169818571936,-118.320932198862,-153.733213788837,-174.124863390398,-144.430208445376,-179.521868009964,-119.100430777432,-171.251103249758,-203.295418902894,-168.872271740644,-205.203344427869,-135.310150150455,-210.666898647352,-224.716295534062,-161.326666331574,-208.356016276111,-220.551940136312,-248.90193453127,-121.193110344137,-171.962760719454,-211.298498821081,-230.572318141418,-267.288922200385,-135.469016809411,-186.878198362121,-211.977511446458,-257.433093369101,-189.567562332244,-215.848984903972,-256.041279149165,34.6637969182367,-34.5841545076784,72.1878010945434,12.5215191439919,-50.7419836930671,62.9662376259662,-136.749149875975,93.6080319716037,-20.9980888472035,-134.641945204827,-203.558093038714,-26.8109581644243,-229.864378628583,23.7502981462917,-102.133192812693,-198.628237788851,-389.604410423169,-51.9324056120585,-229.296063896213
-40.7547161940105,-61.4592868082062,-49.4442610558294,-72.8679937384822,-109.114846335263,-65.4618361537751,-85.2546267855365,-114.340058879498,-78.2491124524673,-104.483204243793,-138.742985722968,-85.8478942537111,-117.221970493873,-123.214996558442,-124.914301893059,-141.854933634604,-107.260300386812,-141.505367463141,-154.351071889787,-139.559248652105,-165.019762277027,-113.356542943041,-158.331232318971,-189.232422487247,-159.608744593742,-195.346054512573,-130.083810525048,-198.033711205858,-215.781970571539,-154.638055324136,-204.316732788555,-217.188304722439,-244.99579821915,-118.340137054703,-162.319676837193,-209.379076529428,-231.830305709675,-253.887879448483,-133.810652843447,-178.446442642871,-208.572920408413,-254.250628266006,-183.520975347054,-210.189649745012,-249.101288416007,55.1724336916105,-36.2183786625761,89.2157009030351,20.9479284852572,-28.2668778583983,98.0399473155828,-60.240221564845,126.010422496707,41.6106492371785,-22.2204716601624,-90.6873924208922,45.1838684200223,-89.5159249869029,66.4121044530868,-21.745640482155,-74.8657206225422,-211.109060089853,-34.8353394704472,-76.3549824196788
-66.0776955359555,-71.2739919941172,-60.6011345898834,-79.1750770880785,-104.421938722787,-72.0340749995624,-82.4106938291731,-110.799183774231,-81.9597441767797,-94.7160972567065,-130.776650373699,-86.0414766285706,-112.04719321392,-112.015618583229,-122.201520125781,-136.835702899082,-102.513231895272,-134.722703009878,-143.879155443869,-136.85101680712,-158.231493074775,-113.154463707271,-149.15508803264,-180.556375150621,-156.087793915251,-185.867844365792,-125.940843790917,-192.636888702449,-206.466190057482,-155.115810713013,-199.925701409091,-218.625000907729,-238.627238220507,-123.528452401863,-156.96834622753,-205.240053961688,-226.826884811186,-239.431677094242,-138.195956979291,-172.242502555857,-197.661087147098,-245.209975831781,-178.926601487484,-202.901893584008,-234.362887581154,64.9331259869099,-73.356125505627,93.8038799488706,-23.5779197142072,-70.6382398545855,112.376542599868,-95.2072966932424,138.607740110819,71.4134568129372,-29.6791934237494,-99.4786081127155,89.8557715563798,-58.5268961591515,95.4826871740109,27.5460479354809,-15.1551122844219,-169.082476121091,-14.1236948192935,-30.9922715990505
-80.5266520478048,-88.6309667374448,-76.9844670570758,-87.9911046414979,-109.782127293244,-83.9478506903794,-87.5636944345836,-113.17401604578,-93.4898608967916,-96.2555309153381,-127.330524041261,-87.0575309932383,-113.937644952297,-109.149486850581,-119.181239620676,-136.344260845068,-100.393360482562,-133.996573264075,-145.410032448302,-135.171202481768,-156.00921327857,-116.070081899251,-146.074369790498,-177.651928376207,-159.089326817387,-178.137456989591,-125.440373467483,-193.865252354048,-202.163657200811,-155.507426452766,-196.429315211503,-216.818745292623,-233.281505561379,-134.027653441913,-159.935836360265,-203.395374660203,-217.50338584554,-230.204366740346,-141.436541365332,-174.4074759904,-193.357635906958,-233.735080235598,-180.818199541372,-201.44764291125,-225.598608392751,75.7605790554716,-70.8658383576701,125.577201292198,-13.6025290640075,-39.183666862067,117.01150769434,-67.0969096248787,111.168950893556,132.01780069135,16.3267483204928,-59.2314690910993,125.472576123071,-16.364656931127,100.031514517224,84.5137028845996,35.1664288504336,-103.962643723892,11.8410997101684,-13.1546055015339
-69.0385561528733,-84.0951862029601,-71.4960836837088,-76.1780987818727,-95.5545462349643,-70.6012171303491,-76.359382198006,-94.0233328932089,-83.2905176280351,-80.2750313483838,-102.177186767786,-73.6768145823828,-96.3623464080568,-89.6008763852763,-100.289577220788,-114.891152603011,-80.0590130714401,-115.100997100992,-126.017871148453,-117.088235758971,-131.797713545857,-100.475711666411,-128.968228577695,-153.053328273464,-140.865134246536,-153.238697435928,-110.285410485846,-174.228778343683,-176.545758316206,-134.61536653557,-173.904130879318,-185.845082424162,-201.691317812324,-126.301534254914,-143.544182977001,-179.332732222421,-189.971124269885,-199.313564844444,-125.410491166595,-158.424938590992,-175.074663538728,-198.827445631475,-164.713679260412,-180.478438155532,-199.973837078502,81.1142720629005,-27.1548146964699,158.915706616941,40.0480804006801,36.8410622255665,99.3310562366387,21.7787338161173,38.7924090029891,191.881376147814,109.877635309469,37.5290829188804,156.324052746339,56.5994104397036,93.6751249885501,140.698789925719,97.1708696153348,-28.299908912384,43.2691994162674,26.7071529083111
-46.2253786060168,-62.9941181438636,-49.8490784810406,-52.1481638295389,-65.957111165158,-45.5743475195823,-51.4955194435195,-62.6915008263241,-54.9218488691234,-51.1653914783953,-63.9806757047038,-53.7582406562224,-64.71019127345,-56.4229083075808,-74.5785595929646,-82.8409975403702,-53.034387054464,-83.5696372654488,-87.6688984572602,-89.6170481754633,-95.3179167829631,-74.4498488894764,-101.51226868804,-113.508332302726,-107.793677442081,-118.543921010047,-85.7323521021823,-139.492107622727,-135.423282408929,-105.688581554256,-140.913688177464,-140.226490333983,-151.500380581029,-106.210061225346,-112.011722321526,-138.267752163244,-153.869127379609,-156.460733916615,-102.178012329649,-128.256245464545,-140.32489625427,-152.279759728057,-132.177822202606,-143.310042554236,-158.268252627234,58.2251273443439,12.0239614561583,143.399562163332,64.9582198566931,83.6028133322042,66.9380674584548,83.8196502658483,-29.3905991312074,197.695315094538,156.968435260684,105.117385470581,161.540486925999,111.860765472671,91.169949982607,166.541532732978,136.84815190374,15.6016941583595,68.8147860277037,58.9158273976675
-34.3627814269346,-49.4109978980098,-35.1018393149682,-36.6687263233964,-48.5589274986698,-36.2924160590836,-32.4473652168755,-45.0204055147313,-37.3449927710936,-31.318191727365,-38.1114184459827,-39.0695577568798,-42.2299122543969,-33.313004171913,-57.1763221481958,-63.6480572173159,-36.704222315959,-59.8772721450039,-57.9323852799255,-67.9823756760993,-69.6470799048722,-56.4934993663527,-78.6072499621877,-83.1507209261661,-86.0914026981047,-90.9285771917055,-66.4277128147074,-110.893775672195,-104.749698060741,-85.72468189049,-115.573066887719,-107.895823226475,-113.441179697825,-89.5233924551206,-88.1286719064501,-106.057329043655,-123.04082078338,-126.219968605266,-84.3639330878817,-103.274629212447,-109.098352207885,-118.708942678633,-101.303030266469,-113.473383671911,-122.354032458492,14.4548419913675,27.8488942660701,81.0318869218289,51.8175848622287,93.988829295458,46.7551570706187,102.656410223966,-29.8533911277947,156.919486199878,144.894234028021,125.65217603268,142.808502423624,127.276005082488,94.6385447511531,153.598791682664,131.206428164329,38.5693701070811,73.3860184088647,58.0532241691838
-21.733820055785,-33.2680850474147,-16.7411402010888,-19.1738990596454,-31.2400139113619,-21.1884846905881,-8.75975996158395,-23.2921419667915,-21.101914237115,-5.55757121413226,-11.5839337587342,-13.2566841684758,-17.4588450270049,-7.9827573587518,-31.4634988406877,-39.7006115889351,-13.5185730051589,-31.8042559118722,-30.7142791116341,-38.7112925175382,-39.7106224234102,-30.9169545782788,-47.5726673666178,-50.4141815123903,-62.9897058335616,-57.2080798923894,-40.1375163906037,-74.9217481660777,-73.3450958745365,-54.4177578057373,-82.2440473882657,-74.4063638393682,-80.4264472630603,-60.4854290919127,-58.0717494891634,-73.3017348157449,-81.9880188720878,-90.9343547336386,-52.5942273781195,-68.3376454727074,-74.2974256472693,-83.6934967128464,-63.4055340983359,-79.5759864361672,-82.4936733660776,-24.1495724859695,37.6085038392937,5.31166442440499,42.4823306775972,96.532454867915,21.7875691215724,123.178153514472,23.2775458824224,105.600678869713,134.128989296458,151.818292213455,132.902827290882,135.158578005224,109.152051895727,137.334691990195,117.436652661336,66.8581740055761,77.5999970124015,58.3125342697315
16.4383286108926,9.90106283226272,24.7907629059299,23.4046636796753,18.1203636414847,28.340560891504,39.6830517895582,31.8519853390012,25.5351806703655,48.464258165147,41.5264879975979,38.1780515415812,30.4110128640843,45.0089331916674,18.2287012127095,14.87959001413,35.3996840912809,22.1585432676916,17.2038756149722,14.3202983352389,16.5511476116407,20.6320151189851,7.15284179293344,7.86624285789719,-12.8065438246584,-0.845961896578437,8.40450717588736,-15.9831188983139,-18.2404372747771,3.94863344038046,-22.7425596210903,-14.4530498107553,-23.9705103896232,-5.23308359777703,-1.15105079754608,-13.3940292819133,-15.592122848408,-24.6890136442777,4.23961543925351,-7.33941134802889,-15.4797858086278,-21.8797796137499,-3.17617759890287,-16.5497466241869,-16.1013667863423,-57.2672249241262,52.7146088433359,-71.8725630802418,39.0845084063523,94.2327596503289,-48.5799357138092,154.312513806948,52.3597826603013,49.1031829393467,150.287962874617,210.667412559951,139.805588344237,168.264467712422,134.926786593437,149.116588688158,136.520030614852,116.014691138331,107.680348248239,96.5164366169296
57.5096450337309,53.1261106705317,62.7018379917972,66.5929302266742,70.9440428153736,73.075609655564,85.1973497071918,86.1294437890126,74.8993607374492,97.4029513112866,94.3241202000867,80.0490592233349,73.0936603421085,93.9465981800594,59.0116101160458,68.2760672633079,79.2129592543246,71.7542317131495,61.2180121141762,59.7820167053594,67.5460305536852,63.9728790863372,54.8589888257829,59.6284917525207,36.153881879049,45.8556817510433,52.636746521019,30.7994321185822,31.8630473453549,50.4325083216491,29.7008694781708,41.3090234798142,33.1514404591942,39.4091425731965,47.4830130285196,45.9169069336014,41.5683346850633,38.9729250596488,48.1369217689179,43.4452507889628,38.3974871197341,39.858995337058,51.6852807223159,44.866652240766,47.0728538238948,-83.6952397781477,70.29294670251,-122.869771735946,23.0900057001161,84.3862841762408,-124.876309471132,163.742173932768,36.6223281069072,-2.41725203030776,163.643219690876,259.517227704566,141.977710957279,205.878415861023,147.410108757576,169.86014779127,165.829283608399,167.018641401475,136.505626715179,140.563312653152
46.3515877209464,40.9662910320786,49.7677122122025,55.9432878159818,62.4482869875597,54.9909778866178,75.2638688622851,76.4970193662191,63.4385467131057,86.3233701984487,89.3694964391917,64.7845893102283,61.9702515476276,81.0910384896654,46.7301623017084,63.5956108571392,69.9692284647804,62.5389786733787,50.944944106183,49.5666869130589,59.7491110519625,49.5186115766947,47.1038257939777,45.9114583354239,31.7357444800451,34.9463772061579,48.5794260566967,20.3924095951212,25.6755078666586,38.9360664100341,24.5109179090164,36.3435741138823,33.6286975994509,26.3427402412351,36.4781020650058,42.7393173138829,37.1469645981537,40.9121325619619,36.1840311093976,37.0621618687721,33.8600247997091,44.9261316248688,51.3393271759784,45.2352455158779,47.7395472777939,-80.1453883584453,87.1203155234376,-101.123624656557,25.5577145526771,82.0553138519779,-118.839171597464,143.491461255748,25.2573183839206,-11.0617007623296,151.480169453458,239.335812874521,129.429694525668,194.703625661417,116.317661887533,159.438470019608,155.223286368136,163.781029577073,118.822278115608,128.792550204023
-29.7998478214753,-32.8535593301297,-19.3794225124923,-16.9082072672913,-12.8734593355717,-17.5619143159014,3.60667606365177,1.95850961384687,-11.0750034111023,12.5537832979477,16.5059916261515,-3.0421562581256,-4.83529075006378,7.06706903538894,-15.6968692198784,-1.88709346722725,7.14862626740635,-4.37150482270612,-13.110064828133,-12.6476752616994,-6.02786627315161,-14.3006688459079,-14.8393015395987,-28.3329315287294,-27.9826868327602,-27.1289812977564,-6.04198003232458,-39.3140853063906,-34.3956093780374,-19.1053826839705,-36.1264950455057,-29.5792564716891,-26.8897270525955,-35.0534188885026,-25.7791511988719,-26.2582489219034,-26.899693018355,-19.821092133712,-22.3368369078017,-20.9790667707405,-29.3980464982895,-15.1229569054015,-7.65088861212491,-16.2833772413123,-17.3589866758152,-63.0806593618191,85.2884733222947,-43.709866747845,58.4006671018807,58.7098334323432,-56.153777094198,95.6336167010063,23.4875126724927,6.71405568866851,104.591911013439,131.98469326893,91.9606237625169,107.811536707053,37.5124550396239,96.6220118397028,85.6582742552816,72.5714702313531,47.1003682593909,51.7351432211634
-131.467936883825,-127.157688489022,-110.957899930566,-111.068854146346,-105.00261043119,-100.184306975293,-87.1131948437724,-86.0138495640068,-97.3187398669689,-80.987340685298,-79.0625975646204,-83.6555512311105,-87.5288550065279,-79.2681534878811,-91.6976478752617,-82.6265140050115,-71.702113868072,-82.2493000570686,-86.8275208709308,-83.2011888879187,-82.4992327801412,-81.6224511182055,-86.9549421425408,-102.526402035228,-103.057804943595,-94.4762603290022,-73.1401611387191,-105.790637899748,-100.048521243709,-82.6322456115762,-106.392289227821,-104.505319721743,-99.1682117009165,-98.2983791678985,-94.4657601581406,-105.766784809779,-102.092857902617,-92.8627624957522,-86.6666677288117,-92.4412471646728,-104.042988271625,-92.4647641589847,-79.8512650074124,-88.4141011624771,-91.6932228512048,-96.1561589647896,36.1948757792295,-58.1898397790668,41.0023791902773,-52.3443316042578,-68.6288666725569,-10.1466803169311,-27.8608777194185,-37.2799170042761,0.931432656408584,-45.7445424592414,0.184561880177686,-38.4067690971829,-71.1894877470034,-20.3071432111406,-35.1541323616846,-77.8200332866122,-65.6079498943112,-55.822959897507
-226.498187279113,-215.910004213642,-199.511280530897,-198.75495908225,-186.694555995424,-178.410632421872,-165.500320053868,-161.943464041788,-170.597533870383,-164.024660077301,-160.154369230995,-155.761340988834,-159.813973282881,-152.093142072212,-156.432932733882,-149.861005735263,-141.725018463831,-148.339517159107,-148.946886472814,-141.645526160958,-144.867785397959,-136.432692798115,-144.574352253359,-151.484824221976,-166.409541212629,-147.856925765441,-128.151228501949,-158.770454873446,-149.128161702167,-138.135990654837,-159.776024942422,-160.818647982746,-157.45315636102,-144.752524444869,-153.397502765,-165.494530620649,-161.896541175643,-150.336604972004,-137.905114226914,-155.657509930599,-162.255634467921,-152.280591736708,-138.211733405331,-145.235460524624,-142.260856209717,-197.877459540869,-67.521623626288,-171.816813299838,-84.3237069391577,-234.611132539959,-197.733442291823,-179.981829471934,-151.131312734396,-177.452729830338,-154.128245653208,-262.197825667144,-151.044549544022,-212.350319056114,-194.36616768338,-172.082275069467,-184.984438564947,-235.289443221204,-200.761716524514,-174.41551000192
-313.972108596332,-304.152581325485,-280.179561900605,-279.494938115321,-267.150684651195,-255.329731443815,-236.552864425029,-237.839923014059,-239.298752606584,-235.801370972421,-229.292120477019,-220.574197114197,-225.655082112627,-219.621426484508,-208.668639025234,-208.601102611016,-200.866370153036,-210.040970897726,-208.013924006084,-198.050472225307,-203.081720104693,-189.66681787009,-196.045881200798,-200.242044325666,-217.557353497209,-202.035846387457,-177.534804743147,-208.880145556489,-199.878408433011,-192.652735362881,-206.894966642314,-215.639903917349,-214.518890223021,-188.847298169639,-209.745967310901,-216.905461826478,-216.530216228645,-205.025797145337,-184.815108953402,-211.838549453645,-214.228619566062,-203.826679909702,-195.771961057903,-200.122542958962,-192.648026145116,-309.13823696478,-204.384888287404,-299.133407414491,-248.226886632047,-378.158039262356,-341.608744295723,-338.628312414263,-292.830401256475,-331.41171508881,-294.62264546434,-459.150814681523,-310.989387049137,-373.763597813493,-319.049585518333,-308.928123155511,-321.761289108871,-366.549729902504,-320.975069940606,-304.442554725256
-390.792287169399,-389.834447791847,-345.624385099315,-348.498009882197,-344.086436687073,-320.133816921636,-304.983848251829,-312.076667038256,-301.294388650395,-297.843108871739,-295.111761326766,-275.459001107046,-285.971237210388,-285.305618492568,-256.239549313065,-265.082015529691,-250.518945231677,-267.073014016875,-264.18499752933,-254.742107345396,-259.784757047208,-241.001940393909,-248.003775741785,-259.834539105799,-264.130527676255,-262.666832288848,-226.124882640276,-263.685241760281,-260.034594146039,-244.416904817769,-260.628026324396,-277.246472300097,-275.069328485259,-238.229898190693,-261.927678823124,-267.274235005273,-272.303644327864,-265.382493644469,-233.804436081809,-265.530822325676,-270.112110992127,-258.695725195397,-259.540599989464,-257.722653407923,-262.657382064472,-371.566940147007,-333.764082333724,-366.470448141769,-354.357524603577,-421.56593965272,-411.944613190354,-403.276945134581,-389.023018870948,-414.043144822357,-364.874904274487,-558.432222096847,-414.45053692486,-469.052082167524,-416.843687499559,-383.880299487166,-408.809888076024,-455.398904995333,-394.655490637693,-430.924273141007
-440.724547511962,-454.695458014057,-388.448727443052,-398.909534917117,-399.177650618162,-365.470785716091,-358.332846661435,-367.380797353163,-348.491785823855,-345.788866708019,-351.434305238495,-316.107884378246,-332.222280824345,-340.074184050318,-306.474710558754,-317.694236760769,-292.409232564505,-314.050215211694,-312.733243302643,-304.253211090034,-308.522613700909,-285.160564453318,-298.260805679992,-317.885997882552,-313.637530337328,-322.606168325249,-270.817464601941,-321.447623330604,-317.512434069675,-294.164318470286,-319.37720131831,-332.539639682093,-328.705391709936,-289.704395940558,-310.928871737599,-315.061923203336,-322.05971322242,-321.293995672636,-284.477067169198,-317.919327974899,-324.484018730298,-311.422286268664,-317.649042656753,-308.175639776423,-332.407845043355,-394.476970526694,-414.362011762948,-396.448770028068,-404.322810903168,-411.906037947791,-433.382108465113,-394.209145433741,-431.785417666062,-453.302632711507,-399.561818162432,-544.574890677975,-449.549885796849,-490.365825062192,-467.543579888594,-417.676455219143,-463.689612095887,-506.214739209842,-438.067861217555,-528.273274334241
-464.145913753897,-495.620514356313,-420.571431609373,-439.647688874249,-436.222365802372,-402.806547613198,-396.80083199697,-408.183356854139,-391.241076804229,-387.150717733635,-400.630447851446,-354.38314737357,-375.448880868703,-384.102740374008,-364.036422982411,-372.679750213517,-334.515146071419,-362.359783024738,-366.152766491811,-353.506611601684,-360.442636359357,-333.577181141852,-356.158666583565,-379.51010848883,-373.639652698119,-388.415448292921,-321.21391035002,-390.648940878449,-378.017350801402,-354.7579370191,-383.775491737282,-385.437926831208,-377.522619660067,-349.822948070456,-370.23170897863,-370.550071098476,-368.509008909188,-373.941228143896,-342.899126501418,-374.27741456262,-378.103529651661,-365.383729694846,-371.597411588246,-356.996635524702,-386.307814220447,-421.125627288677,-443.507950469991,-446.790898296978,-461.53908626993,-422.370736848239,-471.032211128777,-410.430009798532,-466.752540747675,-530.52397036789,-477.044866428254,-508.69064549478,-471.876963606623,-511.054695049066,-501.119701017872,-479.535575616494,-539.01705924778,-554.720186738172,-493.901265575102,-591.696730720815
-474.785100294666,-520.788233359496,-451.874968859884,-475.612483514907,-469.879151002582,-436.69777853903,-430.351406223756,-443.340654681389,-432.785925540368,-429.304517968808,-448.81579810758,-399.330243556084,-425.378306536275,-425.021682943456,-420.001497730991,-429.855858571388,-377.46745585698,-415.984457964222,-426.364200577006,-408.182668518285,-421.795710005808,-391.426544178957,-425.18794086979,-448.533585324004,-437.552691123752,-459.031379332729,-379.328029683095,-470.470086251276,-448.148127022454,-421.245000561808,-451.724398224051,-438.542242396814,-425.849348428487,-416.732665123224,-434.751627788165,-434.314721459643,-414.629265496493,-428.674530440967,-403.392900341664,-432.233316488208,-431.193713646248,-423.379126424413,-424.345296707937,-406.475692064424,-431.691452663127,-448.916863329621,-461.191469208826,-504.557030348329,-532.18443837069,-479.610984194673,-521.261834854184,-488.431656786985,-513.662532977663,-631.022716786632,-592.666648668326,-526.172571850136,-519.201280128722,-572.331055288702,-549.855050357057,-561.211027167074,-610.987817766234,-615.566283253903,-552.541218978054,-610.588838059498
-466.067739709932,-518.683075237719,-461.219428291816,-486.547321312895,-486.953674216626,-448.137938029863,-444.62129105689,-455.155681505397,-445.276696355301,-451.356363154139,-474.830195351272,-427.482237543662,-452.409901454008,-452.611757733205,-447.824963324769,-461.96382014054,-401.989911017755,-446.202754238466,-458.905770635939,-443.154447210657,-463.093941801193,-429.355441625412,-470.32718341119,-490.376085503107,-475.055855616191,-498.716467934684,-413.927315743804,-520.347646720287,-494.291415704534,-457.66188503469,-495.488697612204,-461.756075429548,-457.178457062311,-455.569448740729,-467.620237836601,-473.669385485787,-440.286974649637,-463.826428490775,-434.530770774677,-464.469687516377,-459.921469149346,-460.231120974149,-450.810211326777,-430.653696270189,-461.195272020703,-432.498147583808,-488.830826562045,-498.429418608866,-546.994931672214,-555.406001346767,-514.082502422773,-552.206444179837,-519.725218966855,-637.388371624915,-641.679422159169,-551.474375228224,-538.828568156534,-594.086369581768,-574.705743339567,-550.527856167962,-563.704705555301,-620.734289272224,-543.027147870843,-528.665545506508
-427.985409790809,-480.871534540361,-430.967000854274,-456.697674454558,-471.28028140638,-424.234653895026,-422.470201433837,-432.669803618113,-414.646550517757,-434.291650865983,-458.79509135357,-413.490828477183,-432.108768129668,-448.624966327775,-434.309305645615,-448.461459565885,-395.546712825494,-434.384290206827,-441.975584240553,-434.377093230552,-457.408778113052,-422.057017196885,-458.997504779814,-478.442417211394,-464.765398561311,-483.037378386825,-400.808118179012,-503.925729285717,-486.362667591306,-442.681381152552,-489.098012747756,-443.806865956824,-459.286467838018,-439.730585997252,-447.928328157497,-464.955247549781,-432.371368238928,-459.971570222197,-420.160457793177,-452.327179860462,-447.587163305959,-456.8527885448,-434.967443435448,-417.252723940148,-459.061241373361,-375.524046629981,-501.325133149814,-419.40706214704,-476.541520557404,-596.024668257295,-427.733635691605,-532.726351384035,-448.130278776425,-504.736572614458,-562.827678314278,-516.648814351408,-477.855487882881,-502.854809325669,-530.752107438148,-406.049024410541,-371.452311389324,-506.216373378232,-446.728038001537,-327.614497191421
-384.559097452846,-435.592075138711,-388.113572534697,-408.5758647321,-441.447282154032,-386.024268896296,-386.210558765615,-399.880934518514,-373.577899157545,-401.994904834516,-423.956216989217,-375.040411740844,-393.440187192033,-422.896454586432,-401.617622083838,-411.524989723212,-375.53001024466,-405.744914757073,-405.662599151774,-403.401261980295,-423.106838201002,-392.007039737614,-417.699917840644,-440.254748935313,-426.146589898937,-440.496424632057,-364.113462258495,-448.075891435297,-451.71049949009,-405.59594686653,-452.397051685605,-421.636529588185,-446.466596845275,-397.03067843843,-404.485582008995,-432.830259203137,-415.725434459641,-437.445975931803,-387.804853921893,-423.182986796211,-418.584222400813,-436.018735891921,-404.960467486693,-393.907159483865,-438.07862972725,-348.096306476092,-478.929285048521,-357.454850717381,-392.686250480326,-576.391857507646,-341.320548793477,-460.643599076025,-358.843508325279,-351.137730346715,-432.276569007849,-441.641210603698,-391.292095932317,-368.302727769595,-464.074008251855,-256.902923013401,-188.869738275658,-347.305604046776,-352.12967407134,-131.082842769134
-366.53713325653,-408.056528783329,-364.816122659816,-373.289286422268,-416.326372035439,-359.873900916293,-365.491676623513,-375.902627073861,-352.435198853561,-380.808224809882,-396.936805156578,-343.368021805339,-367.929232260825,-395.978289349045,-372.966584028695,-379.165518641187,-357.396528363781,-383.267948967646,-379.668958893751,-378.767012197198,-388.450106086251,-369.124364863418,-386.103023160193,-405.939940293364,-388.510220590017,-405.197789646365,-335.5287897782,-398.052935358106,-427.434073173828,-379.243759602178,-417.427811661943,-413.202741747153,-429.339632460853,-364.471684545865,-369.188716610666,-406.263027169523,-407.236812584746,-416.847288088647,-362.913424818474,-406.769016220982,-396.173576658736,-420.132003379037,-387.560435296631,-378.807127628904,-417.735804119475,-378.559459415213,-444.302732815887,-376.462629811705,-372.533377124549,-524.6796077195,-324.299878113519,-404.709691596514,-328.138353864201,-298.396353519551,-362.215098535947,-379.612374834022,-357.881908782485,-304.965519383476,-440.247942287082,-229.503674767296,-154.472237501344,-281.126565042592,-330.813939833191,-94.7933562255888
-364.541083924125,-382.821185015742,-351.162529241619,-350.275932350259,-384.696061723359,-341.579502380108,-351.429029609059,-349.796125474853,-340.429296479326,-357.620736736811,-367.719383966167,-319.295850050534,-344.064406675048,-362.414761230572,-343.820767052997,-346.006769568955,-332.783407784392,-354.307343933884,-352.169720266934,-349.49223272389,-352.355060289472,-344.974697231415,-356.714087451594,-366.732627459103,-352.834870731071,-371.867117947565,-309.448452822659,-350.673607696408,-407.000673938372,-351.901690736351,-379.99506030089,-391.012124276787,-398.993855847651,-332.809594381808,-335.571268394357,-377.706720720922,-383.132968630711,-385.268501957281,-333.833864105913,-387.225647857302,-367.992475500665,-395.064437526098,-370.20792726099,-356.966962437276,-391.459925254806,-403.164423271129,-431.672203419058,-419.38263793717,-401.861094818274,-480.094359884819,-335.624187253169,-384.332725535857,-339.846318731411,-307.879072652891,-357.761109690469,-341.173109511211,-352.936652762076,-313.871251035622,-425.655351952325,-274.535357663052,-215.545050573647,-318.683599570725,-334.446571281365,-206.474956513735
-343.531474749759,-335.491187441543,-320.292034085646,-319.164367452443,-337.180620294139,-313.1362361942,-321.608803908229,-309.526900116998,-313.799435217725,-314.50401549185,-322.761125542097,-289.844328490548,-305.960403443399,-311.728866378359,-304.182936455879,-299.952287067598,-298.10161528433,-307.2232634477,-307.895744122171,-301.697273167256,-307.111394206583,-302.807302775086,-310.153361094556,-314.442293260622,-309.213566843181,-325.862356297348,-274.327449920759,-288.293679996409,-369.696413400421,-304.404897307263,-329.185216495398,-343.670689430107,-353.969021144664,-281.525413992058,-291.317331291146,-338.080089851877,-333.41130373287,-335.691212761863,-289.558491924216,-346.454540657304,-326.235512489566,-349.030678412559,-335.406476908649,-318.239321222877,-348.409443474024,-360.401158609428,-433.448596083318,-384.180235173198,-397.369703170747,-435.155707783269,-283.934225159076,-359.575360936467,-310.450044111713,-244.743335333666,-314.986932839504,-303.180368752658,-279.891491852348,-300.616721007529,-325.692124835493,-252.842290880963,-221.659824640055,-348.597006871772,-276.349465190159,-302.73032516732
-286.411056328745,-260.20301998895,-260.841338878719,-261.897017467453,-274.713009370621,-262.565633518884,-267.836877089807,-251.608003467171,-259.414354818801,-253.896653442834,-263.12572459121,-246.336158373482,-253.376892936267,-249.008465618408,-251.969814415208,-240.8417878763,-256.347576892972,-249.921805604773,-249.947806052983,-246.035787981843,-250.763211893416,-245.25565106574,-249.540396152392,-254.53754756958,-256.298086736889,-265.629268499263,-236.149500348835,-217.652352098259,-310.304773472749,-239.833025139925,-272.154357083699,-293.936808766113,-302.768339720927,-213.536325658746,-234.248589719387,-301.771277303335,-286.649061804631,-281.624175066904,-236.2577047386,-299.5189870353,-288.108337176212,-295.635325999388,-286.728016321073,-268.608990107307,-291.095642552658,-266.732834816572,-384.911821128996,-240.283768694885,-291.518674646512,-340.102662234588,-135.017467433273,-278.893892056577,-176.85017566315,-41.9567081560435,-141.718482027136,-246.703742558258,-73.3168110980337,-199.690242208527,-99.7453645776088,-108.508178425249,-97.5075779617233,-288.111140469201,-147.317963457379,-253.149015620302
-208.50070139836,-168.476110905502,-181.206058492498,-179.208237863183,-196.370325008451,-184.37617007306,-191.867876489811,-176.50423798542,-178.32521274071,-183.734366225304,-190.46043641544,-181.28461305581,-184.320732079448,-178.86493434825,-185.163862982023,-168.685114751217,-197.635900112479,-185.205110686186,-181.125891221769,-187.186277278304,-177.191559010997,-177.544731465623,-179.539125528572,-181.673467261532,-192.377515672471,-191.638814580843,-191.119638087579,-142.195899437146,-232.814320900278,-159.086093356988,-206.74336011822,-253.908687035074,-244.410409158416,-130.525810885296,-148.140322549147,-272.341155450215,-262.16767270706,-225.774389171572,-165.695045042718,-249.393530151844,-265.264043577,-243.557907336973,-230.14847711628,-214.888011395346,-224.497389332573,-169.809679761402,-235.002384411146,-48.5073580038377,-106.908709724208,-176.448510477701,64.3583148952765,-156.194275739773,54.6174931878742,225.482298126711,111.31369232709,-211.24062714211,232.540910017574,-66.234128923821,198.788122447303,90.0133040068909,84.4709725336975,-161.013337652621,-0.662431519669851,-77.3396509933617
-137.649968493121,-89.8670215481468,-106.247617871153,-102.808396516927,-121.62536023046,-96.0383157768219,-112.816250871451,-103.249545426895,-96.2889070544718,-116.817718878965,-116.068084888067,-104.444001808788,-109.702721421147,-106.575328878696,-110.746793233162,-94.3289420115355,-123.763031248937,-112.645341106522,-107.708537401968,-121.072699929392,-95.1545792678817,-106.091084719731,-104.920331485306,-98.6767298628832,-119.381133933923,-113.640788673121,-127.787227397382,-61.1448960181589,-150.030513402876,-65.4757127695454,-124.336427733216,-211.661917801682,-180.004533174603,-33.686337971011,-30.125455543191,-225.803402561894,-248.986381392557,-166.59749094365,-71.9480928065407,-174.924066644413,-246.949205812266,-191.222964495083,-164.155957655523,-167.276346960452,-159.709772367985,-82.3293108349929,-33.0585958938265,101.488381125277,57.5525588560053,21.3318618055918,232.933550242701,-46.6185541115947,293.864285266932,403.688912968549,274.209738149688,-241.49462984232,497.584086191515,-19.3216932849784,459.766053980053,233.34440443504,145.738985374754,-33.4002004204327,136.387985162408,76.6693801970621
-82.5147892038424,-46.8325284820736,-52.5843379423279,-59.4936007538383,-74.7740732919443,-30.8465374214637,-56.1476600462093,-54.3740545426649,-41.9895157923824,-67.9372833624663,-57.5500186002166,-41.4972809663087,-54.13731426517,-47.1070707309338,-45.7044016865926,-38.8928922557062,-60.305379537081,-47.8638034073527,-45.6555843453322,-59.9885109965632,-30.2353277792395,-48.9571849617203,-41.5764024509791,-30.986124156657,-51.7825000304024,-50.6039755177194,-56.5487086089546,6.50176059441671,-80.5587118636378,15.3300803674559,-42.1561464164424,-158.447696203983,-123.359791776974,50.9099972297944,73.2735328428348,-153.993684896234,-225.06249499497,-114.757246919591,14.6297378399867,-84.0809525498514,-210.546042922234,-142.702984221059,-90.4351858382193,-131.748027502693,-112.538510296529,-4.05251826040132,111.792230864281,162.524040094498,134.730316545749,232.575404953374,311.842368533043,86.0387422523918,415.281836472948,415.597242973495,282.512852161145,-205.29345063131,591.888378032673,-29.1853313592856,591.134463679177,293.571693576214,-3.62382827005677,116.175670770933,276.809275153669,85.1236679540912
-33.8197598669453,-26.1047771887659,-15.3064128629908,-33.5002835259913,-43.3839689549055,3.32261392761763,-23.6288976057966,-25.798868601178,-11.5540029904833,-36.449818730057,-15.7579690988464,-2.83669390180181,-22.4893528861155,-10.9936074303091,1.08212415495541,-5.67859554003271,-21.9363234084616,-8.54890128989792,-3.81985216798281,-19.7398388208843,7.12593156948174,-16.5003567345973,-0.184389131345853,5.69000827162227,-3.48040273330064,-10.6361749355383,-2.69071824632047,46.5411691933695,-37.2324580042098,62.0532719982499,7.08777157324483,-106.338295409853,-81.280014939523,93.3326654828691,115.156586581715,-93.3961601488716,-181.8492304407,-77.0147312012743,60.8793799078134,-19.7224043441828,-154.112699128951,-101.562529960402,-23.006277324205,-105.212456247186,-84.7860163563118,32.9778151481074,148.850331161633,143.632810672482,143.126472092215,437.989867627118,288.35198079508,307.630788419901,371.769094717958,331.231398697009,271.870210729007,80.0014748147909,522.617529909048,84.4633813571019,571.264259498912,338.932381556143,-189.782554005944,368.394764192686,390.300832121739,9.95874138341429
8.12327419225106,-2.12677994895666,13.1648050285731,1.33002743618964,-2.87196051924585,27.7372275971105,1.21184617703026,2.97967831979518,14.5786793507711,-6.50131598726666,23.4030812811469,22.1975080441442,3.439165436691,12.9134930843386,33.8315962351602,22.6347012402954,3.83825412991851,15.6090307982246,26.922146627316,8.98964554947423,31.644336359973,8.0242517911419,30.0611286746331,26.9953154285911,31.8766129076039,16.5340866718706,25.9916642222759,77.8621974623967,-10.4224061037529,86.7035718189097,22.3723190105013,-66.7869883445555,-38.9398203146865,101.427536637279,112.185618902555,-70.6737084461143,-129.962425412482,-42.1617106675117,72.1474610893277,1.22143493574709,-105.605704174979,-59.0450148379862,21.9618553763764,-84.7497856250999,-61.1089159617897,12.3529989467316,121.576982442092,81.2395405028849,128.40576634047,555.822826535044,195.62247549182,518.159687878631,239.908704744671,245.88321752258,343.801039568493,466.569216874388,383.546489521599,330.411459531314,441.001062191012,383.476549299971,-172.749203449583,656.622580585081,388.995954821671,14.8713541934934
38.7047054361442,33.4182639592751,39.2309675608556,44.7397602061602,50.902021471879,59.7114292767027,34.1783961443422,46.3882750170489,44.6194482342181,35.8937144618609,72.0934259629124,47.7560928529751,41.0326170973683,49.9587298071257,63.1648263092698,61.5718974179071,36.9953837331995,53.64647662383,65.4853246553352,48.7834382981741,67.151436079424,45.8255533051091,70.0688637656164,63.5151675970451,74.7922502554692,55.2885211387196,48.698792762203,123.027124796428,33.2455304713272,115.026304657953,44.085839682694,-24.3812775941934,26.1067714143887,112.225301420994,123.31330792796,-53.5125320498646,-74.3157985948809,11.7843990777023,79.6505713759905,14.8953181378245,-79.6452054838293,3.17751848341696,47.5481476084379,-58.0761004805565,-17.0680598777044,-14.2304864317187,99.9039576019582,19.3217932164905,111.031320430312,518.031111816298,95.4365687909126,547.989031922125,127.18836948902,170.797547602349,400.764006988617,609.590992115845,240.761535095384,478.880259685452,280.778704472472,341.268617489131,-7.16945846412338,763.653866259459,264.144068171039,97.630232454246
65.3780137513069,77.6248374175529,69.6600956157719,86.1257003394946,107.539967272965,95.0292422905983,79.8911872142479,101.458852238089,78.8170725831392,85.1388072717545,124.399226829592,77.9104358917259,88.2355033279049,104.815450688115,96.4090721696169,107.808196972348,78.6383626746552,106.415106407178,115.74926925723,97.8910673367527,117.994203555538,91.0348741808879,119.490442068452,121.678079578292,124.797806514583,115.986142044027,81.6486103540725,169.585445401198,100.868579468177,151.762961597221,98.2303884429277,30.1645651077349,104.093429134575,139.650011763496,174.149018259542,-8.38706934075427,-18.5690055405869,83.3298989420078,104.423822450102,56.1287695830308,-62.1034421425619,79.2235678555893,67.6880572018042,-17.2299262271381,55.6790409123469,0.00220616780022143,102.914666346161,-11.9858276399033,94.6006715831667,375.748432361658,25.1382251968673,410.451776571072,68.3042201803491,93.2887979024468,334.208917149181,472.528703641769,130.345788376421,411.797569749927,169.962837744706,208.611681492345,56.0460317601329,615.630556308077,143.807939140469,86.6203020190084
90.1164580624315,118.936653999344,96.2307717237148,116.92632669695,144.852256513373,114.467973269776,116.914777087893,142.529419936212,105.65682032214,115.197244845608,153.19427871791,99.9380222421576,119.80099283571,143.171459302166,121.235359864667,137.719272854085,105.387765172079,138.05049351464,150.286730373101,127.422621183482,153.299429333031,118.238006049088,149.6252300885,165.312480583063,153.529880860897,166.215071928832,108.503478971197,187.965757311444,149.781556207657,174.814100312986,153.900083183387,66.493883182345,142.333021673348,154.94258713572,225.848421271409,39.624775948758,11.1798291555276,125.142880063284,129.763393455361,105.965682598838,-41.2607413548469,119.760357704327,83.3337699068219,16.7565542445662,114.262584489299,24.8843514628338,103.893894258959,-19.1691442825049,82.8067521885314,246.669912408787,-31.1724061353032,272.615093485213,21.0963264838306,34.6403112379179,212.062133451259,313.938069893732,74.2657235175977,271.815626780534,118.99026382506,108.113735996588,-28.2260288748531,399.386264649883,123.56925691835,-62.7348190092987
101.902386948366,137.179285640521,102.895605898676,124.571113413605,147.262963878205,108.021220706775,117.641648705453,145.086564497507,108.506824590392,110.676012150184,143.570629234874,99.5506941811223,117.544063005269,133.859026204948,118.581587143695,133.040029012948,101.394522028376,128.357065088295,143.506083627907,122.976368622281,147.432815665646,114.72796910425,143.448524951381,162.172820028798,145.057476511152,172.141979488,103.289226214127,174.102801319671,155.164264530267,162.757039208738,166.364151413304,66.436251359722,116.952060413786,131.759739759966,231.019872209221,57.3201582273842,8.39280272331806,102.917724337882,121.264505353136,128.740608571894,-12.661326160385,99.4579634750404,93.3617707241438,32.9685231826561,109.008028503421,18.8060120169006,94.4581640316448,-23.0383309317536,84.5297514918944,194.614721272825,-87.7526773424412,236.599449756295,-58.2800285350718,12.6539229072415,165.965662709046,276.256999318177,51.6534439172813,216.044047565383,76.0164859058115,95.989434424462,-77.9773346121221,300.125593007553,148.971828462003,-179.681206395578
101.8675197878,130.577502178104,93.6513825391459,110.811588236841,131.411030878801,92.4846500986478,94.5792594605652,122.784104500263,95.4588089227245,91.6515822506464,119.425698336733,84.10935935344,101.281197707791,99.5586293769327,99.6347155054562,110.439043866476,83.7629857270827,102.700430303694,114.464542557296,105.280613358746,122.165622958248,94.5697039173546,120.331660062546,134.592414549059,117.697631336077,152.693706883424,73.4923407480242,149.196516945266,149.523745539909,123.437747657879,142.671233309847,68.1290371832336,84.9945781001761,85.5778655412124,197.3273810846,63.8616963252577,24.5208310902275,64.265083741791,87.9453320357635,135.53503561793,38.5611325625331,73.4875770921735,113.651907823588,59.3972653171798,72.8871300718073,-0.636397952808947,91.443940061646,-24.1798410392797,101.557787288681,191.275228660254,-116.83598150032,260.847020993557,-144.301305411513,17.0307627120385,201.860560141249,286.796164462913,21.4663877653836,234.447866489994,17.5037634752594,105.931706395889,-2.30478145424703,294.531081392465,139.110058153907,-126.740180716868
109.200352234016,130.291011993426,93.4734141733643,104.642238045805,129.266954542899,93.5426316228093,89.8890846448572,116.841009445221,95.4253757323,92.1740150437959,115.057309910255,77.6268997299801,104.864987277888,90.914679422407,95.6296703248679,107.159628382367,80.9124468416014,98.4659211197603,106.680097296953,103.151434577025,117.780612654257,83.0906622442793,111.955840209021,131.640179455314,104.609682083261,152.741710860786,57.9308540646782,137.918113739817,169.986305349363,92.9565741438859,132.67864325703,116.772271099496,115.60924378337,51.7145529614916,170.224258949252,101.599843059122,109.590889430579,88.303506528269,82.3060858077027,170.197501169713,132.239322563476,108.194364688829,165.657701559805,122.256999797071,90.5459488224127,3.33397166695681,94.9665968106558,-15.9780355337802,111.237736472783,176.417197327554,-92.0084823491693,255.964971629379,-161.119978244732,21.6909668511772,216.061234755538,260.025899394296,-18.8404146387388,241.546992591548,-21.5714884381557,85.7979696336532,95.2562740960929,280.615210204403,103.59540481253,27.4673929087196
136.576767924536,165.323182893549,121.7970692154,131.609721302866,158.506518474349,120.027005727073,122.223502137354,147.355574699968,123.50154199932,125.234461419844,142.459867915139,98.8057755712862,137.349782729831,124.590949960707,120.360985960442,139.609050329966,105.0973723711,128.976475832869,138.524661422719,128.62441869576,148.950826051854,97.5713387899454,138.861039195099,172.169461017234,127.552849296775,191.981857581716,86.9141797769895,164.508960218388,221.42683257832,108.110390679223,173.239468311057,211.504286201772,207.528907936293,48.1183513075005,178.426243976798,184.61784048316,249.550410813629,183.625448836091,129.304887488376,252.678337451138,268.42923293015,200.864815458919,254.123290997646,217.50028458957,186.198670810611,39.7917071636635,98.4698715458293,3.28341092864529,99.6918670159267,140.47238794378,-22.8158642274813,202.353078576318,-76.9946494221265,14.4460154118001,164.127816362232,209.300560039072,-36.1171783366038,217.017696470191,-10.9721541015897,55.6307066507459,121.258485387066,251.912672577746,86.8507240481722,138.514709158726
174.891221981258,227.25053891637,171.827289555153,184.245404403037,214.60958840765,162.313166229537,174.574360369774,197.486985967709,167.410152815454,178.466836125916,193.682552466491,145.131088259457,184.208671924876,179.727911556824,165.090090875034,191.654165282789,149.077594445103,182.296785652469,194.115418860131,176.072715736166,203.747385195209,139.003325517407,199.408089864106,239.162488439424,180.257236017844,258.452167850063,149.318049166667,234.125396626639,299.44610621845,168.391414588812,266.337910002123,326.473056864239,313.276721360144,61.6176156897238,211.612530299373,303.678958922489,399.729459412988,297.609410043293,198.651097974844,366.207023156048,423.410683389583,313.153292198601,360.078855534782,328.955699992406,311.859889529521,98.1693445055083,113.013091969583,42.4541247206357,95.6130842681093,119.857403795213,55.0659181142639,159.030396451955,46.2414090904639,15.6482730706421,117.532380780816,186.928712553424,-17.2273399806447,202.381826160249,27.181333217748,38.4635585154241,113.540965958797,255.086293429053,83.9307517750402,174.239002860533
207.451848497452,288.450535140236,219.45058224209,238.860022756253,279.131054691504,205.112553707233,226.683246322777,247.541944127887,210.47316921209,235.586068686076,253.287687444297,195.797092566613,231.421028419704,238.327272720898,214.546178549779,244.330533293251,198.252308624778,239.436187777404,253.819235788626,232.387138520848,265.778313854944,192.970023888356,269.784019313459,314.084165726809,237.60942028004,332.642140311522,203.793834382604,315.634144610606,406.650831124423,227.993729683268,391.792843885266,458.050009517633,417.507892720478,51.3463768740714,228.592228102838,462.041633048022,548.975095021848,409.069256806501,247.319636032362,484.027483813256,584.721564215805,435.721039413085,462.98060023961,449.853928269436,429.198445200934,164.219695073457,144.243398700862,110.422258393459,127.060740264429,120.067379223842,111.017019117068,164.560174434243,124.187780633321,47.0673199391713,132.520483057619,196.963963028018,14.4061293324515,209.40818470227,52.2904327182372,25.0709189078249,124.754887302739,283.028085615546,58.6435311181037,188.712844044047
230.70280970731,332.921587883034,248.210524377611,280.452405607357,331.024412361588,237.339802071276,268.314878286833,291.807458289214,248.838433759945,283.156310371049,304.111315105884,231.109047086271,272.069208719706,292.751560452206,256.767034204491,291.660290101014,241.124063711904,285.910062641172,308.953684559332,281.904735110071,322.950432399766,235.059710270681,322.680884571592,385.369468699454,277.254207491527,398.566961215983,217.003721131101,364.686690595426,527.355315571732,227.748072929377,503.850121661764,610.139547146018,534.139756046004,-23.3354160653729,177.731798297131,652.385701210524,702.476133984827,529.749288780677,240.79086121871,565.494411911253,750.352301113944,565.841205468549,550.032324612,553.39281668816,527.849997604217,230.049465893944,179.796330615719,200.374182672179,178.801462306367,115.976118125858,158.044774961619,175.368194551633,148.014323259714,102.269883592909,159.87239768481,170.148492856076,40.2021281916861,176.630067009244,63.0543905288092,13.5793391823423,130.447677657406,273.406041901577,18.9922584595742,198.95838969844
253.225239261874,354.91000059851,259.946217868799,301.839993746077,353.759262080648,255.193978164379,287.76347236858,316.886568253977,275.380291487716,304.740351389462,329.788840471689,245.97036409871,296.228024850472,325.825564977899,281.852453419532,321.935067210335,265.007328335344,310.026862734341,344.815579518543,306.11974503834,356.797086839044,245.925884234349,340.751990664017,428.69438421226,283.464893345234,433.754772503919,182.588170686567,353.875120029294,607.978370617883,138.289301152098,531.217427526942,737.618860829016,634.27232870188,-148.115286692652,35.7833885426014,787.910589992102,819.177496932381,628.438622616281,148.168276625125,544.936335879379,867.739616690236,658.684804768484,586.63186786232,559.595572195946,580.994441248754,294.078822006328,212.667535500053,291.10877618195,221.842401683446,123.008577983954,230.327194385678,137.788227385611,171.758401164397,163.163902307149,133.496024829961,36.0282040437356,67.8759319465768,44.5296532217174,87.5446875297053,23.3493199134309,101.172428220725,178.810900801772,19.5279818303644,186.998597803075
275.651930480332,348.752610701455,262.326333726836,300.040443400227,342.37980298808,256.605261860387,276.746514343585,304.139270503462,275.823399707854,292.451166258346,318.521307253817,244.482864378897,293.238388065667,319.832646248964,280.261993501176,317.339522123197,257.129032368123,304.086965178091,340.68829172134,296.266759821616,347.331526282232,229.16664414074,320.628502553836,419.213043778231,250.888578262393,419.014977637808,120.950929976866,287.975360962058,595.940218137804,-0.909777604610941,436.089615290275,763.17768707009,655.303806875962,-237.063015282345,-142.668452163421,751.640140583884,827.955355870146,642.043637838206,-4.39068808012073,406.351349115511,846.135720362447,659.063669264844,528.914497152446,415.056017421649,564.576290845417,340.960750472212,238.342490160698,349.659317836407,244.308815399062,168.003466714381,309.778939356239,81.4518592366505,217.30283689658,213.084375947751,80.7957204155257,-131.697907232022,99.6145776178672,-105.804715874302,127.2347627925,55.0151966064924,69.0908392693457,45.3363536649039,74.9357686829272,163.873880988259
282.734670379794,315.31317017654,254.684912693527,278.224043484712,305.279269200245,239.401724422369,243.625444299806,259.455999975878,250.50200258328,256.780554607639,273.530581054487,228.919593358299,263.800230582438,280.993170626723,252.162860029142,278.325459176479,221.474251584221,271.046988997393,297.270289377658,263.300540058355,300.277248161023,202.141801967084,274.666514563583,365.957751027285,197.353360380039,363.144238919192,66.1259293156915,205.217863037925,503.192678377152,-102.917400316611,280.180012076957,670.672131365264,583.161319318994,-209.368799444459,-245.837645133029,568.41887536283,713.649461214794,555.608819625176,-104.381306219,244.819798119984,674.440205025573,560.884726053673,393.078768142629,197.76229018257,500.916497895915,342.277014177768,232.636550301818,345.077735249199,237.981969304074,209.556561739301,331.427932585787,78.3943217667011,244.744490164418,232.182214994009,79.2178344999542,-145.059824051561,115.737374882345,-105.300602532897,157.217622721038,81.3628008757211,76.8983196755371,-3.8847199782449,136.268187574575,157.551613652109
273.789174243581,279.017818681985,244.312016013713,252.819196641424,266.257363125619,219.486879292933,215.275327307284,217.616940358484,224.254706313587,224.06088821621,226.064950230766,210.49586417203,230.14412695851,240.058420229669,221.197585768755,234.729553054535,187.791481821799,233.653631037332,248.304932494783,230.916486857066,254.694073999805,180.956648464925,229.766467136136,311.821997854761,160.439859687706,305.633340077975,46.1092429289847,161.358527473914,408.831313055189,-111.888437259083,188.047296792427,538.921479918077,471.180464922907,-70.3629442376945,-211.083196963053,417.369299664441,551.119318462864,424.462673269214,-71.6983825999556,169.121078154484,465.136835477775,418.363527624807,262.66717398308,61.2713831226301,434.975963998042,308.3880664558,189.006604953361,296.982005252783,206.172800777626,204.472578084376,288.483935311209,136.505290705994,235.515807737213,223.647568836979,138.632863678279,30.1808516402429,117.875009822182,53.3966483904039,179.296835922763,102.858075380694,126.64260037049,80.883649609305,178.268627886928,173.498713821057
279.893304092502,275.103994037185,254.960601402046,252.03518752542,257.098890949228,226.433769889654,219.158974341103,211.545680853006,228.809751110158,224.086424806135,217.510088550684,214.704193695976,226.019440638522,230.449982528949,220.166137668899,223.321622550437,188.928037201129,225.625698502942,232.539797705821,222.797630203015,247.694134377596,180.387136763761,217.72774055811,295.536354817069,164.142477245764,291.170183912945,67.1123864097804,189.393236826044,380.087189019054,-39.1657961592322,222.129811166946,459.785201388938,386.100493720723,99.0101978673885,-84.7575575712772,407.355881680295,436.64561789961,325.69477191654,31.4598541630253,187.192467926921,339.403363736431,315.40079974274,196.956714046996,74.0536395033948,399.504770530928,301.551191920904,160.805073249431,279.983515501859,190.66603449347,206.588280785333,266.563353557291,210.486938748613,240.544649982133,231.874279837333,209.253729698528,225.740790119324,146.205801178419,211.172110774142,220.85121227211,158.906350046705,206.267939181151,213.617198472766,229.844639431336,206.535022735473
334.16750390661,320.984504226999,305.539451603533,300.167777045461,299.643451118209,276.689250115779,267.942507178296,257.615247741773,282.444713359518,275.589252371936,269.108202235822,262.098642278228,273.136548514402,274.515872051732,266.277123714265,262.906253415097,237.316494811982,267.680056979055,270.369991738251,258.656252237744,289.379433213554,215.430312644906,259.742677749041,331.299864707954,207.078706828987,340.338555333756,121.653321475369,272.833086463057,421.529073826167,76.2287055661603,339.650874575971,468.174632013652,377.335952772185,232.381282837963,48.8399915120607,486.452931410403,418.510991449733,317.356977090512,104.406284991121,256.75982650051,334.24759266647,317.26116675113,200.378959127705,184.462344409661,425.242151179395,368.313473878383,215.424514393948,347.866802333593,250.530396964321,298.155328808452,340.360824815781,303.867115028371,315.513501371493,306.480985273042,292.054133023465,361.017309840841,236.870023179782,314.649005516641,300.034009520823,271.138804163725,322.120715874417,324.816363087418,315.112528475255,278.404534188615
443.592664949915,417.678757544784,402.343764022518,403.881064762082,399.910447683661,373.637143811458,365.545393695091,364.034168233289,384.226823998982,382.063115354086,379.086247610382,356.239445475512,374.482624998016,378.297269751976,361.694895646674,357.367164859783,331.45349317969,361.955051354624,367.209553949815,350.516387102152,378.3108845391,300.497497033931,358.415074524751,418.060793782022,296.720760074486,440.91060294147,221.886360339944,385.959397418909,511.043923864635,228.145856427197,482.854957609843,554.658139446213,469.005336585955,354.706488759899,182.443625971138,595.972884382715,496.182283935937,419.418114498743,170.728171600346,375.355763612216,429.863989751433,429.991686721191,286.268597873683,334.783014164969,531.566232414221,497.559544584444,361.307437351869,487.79620343432,402.91577074885,468.556795057402,494.239788912735,456.765376818792,460.32326272231,456.864597110665,434.723572530577,520.071657737479,390.551930034583,454.539603173687,424.971420355294,427.536489608765,483.114289133465,450.853240924891,436.665483209724,423.952949478003
570.195992026904,538.434513111123,519.626137174796,527.770529417947,527.136467029268,491.791905594251,486.681108368423,498.0138775871,500.462983037502,510.053439245797,510.025560329633,466.802997560385,497.579926796472,507.034713162587,477.21708752001,478.3686195561,444.94270276051,480.388322187176,491.973601359724,472.095038876029,491.149772123038,420.982716692435,483.052381688864,525.530301526629,432.895928199794,550.316831980984,375.771907943058,519.956249652995,616.061162331164,425.546301345452,624.967156657533,669.22642570535,612.2978672023,517.000725601332,369.677860954061,710.827850128317,615.87455162518,574.260408300283,314.566380534383,530.39402793981,555.911039470267,585.569892444159,426.814588436685,501.998435438838,671.668274663097,629.751152869912,529.115706099243,633.268074711443,579.29151544068,616.572936419486,645.299442936515,622.148726994892,612.816267211748,619.998326489818,602.500267379225,702.226325283566,552.786558445755,630.848381765062,566.022080573868,582.03831023852,648.610287467848,597.799561764767,568.615919963255,611.892553467236
634.599482956449,609.848980231836,582.306370010111,591.606794585201,599.862575715972,555.851958380384,554.871060511002,567.118458102958,561.022296324023,578.698199933083,582.160692745858,523.594388878711,564.436705684966,580.643784544872,537.716958539131,546.135884731381,509.657481172283,550.22854940359,561.924072630921,546.830278146655,557.071410172779,508.516765136274,562.559419443631,581.09014183927,550.410558255326,605.686402543677,520.322124716431,632.399438522126,667.719677628759,609.311018228119,714.929394476245,717.48720295998,680.514936552596,673.194179327623,581.276889518753,748.822984883186,669.746898632162,654.094475751154,501.186540927755,628.639677019901,590.426221589212,666.17182450807,479.012265309669,628.795361096557,728.810937773503,679.185550161161,620.746562916083,689.893731748845,657.314766037738,652.259277803453,697.765480061505,672.092381789895,676.330635319006,675.455565501095,660.66942203133,768.341505127534,621.267387929252,704.318120359181,631.670781831041,637.982709225884,716.886238831112,662.768008266386,628.548784462329,719.466041207794
587.272380760081,575.030522308587,538.314615169001,547.525261999341,558.071153442891,512.57083798939,514.153520456079,514.882864239408,519.44338153551,535.977565395107,541.310976437033,481.908600029761,521.288976290532,543.798843198287,493.977148346686,502.008742242071,477.114789671516,513.220481796149,516.320402526438,521.006144311475,515.749599885865,503.466097683062,541.985875179651,528.896141509426,570.529322144929,566.573292493244,573.28109137579,651.391744117306,605.245782809106,687.717353786092,689.081674912866,634.596623799323,591.494613220221,735.129751074548,701.258872892677,639.585191491116,582.217439190568,573.926373073985,614.017784641605,585.350353177839,480.474359952156,580.491766121604,351.677522242512,637.238472938817,609.326110368429,605.850779704645,595.564865255575,607.05031419105,576.66014435584,577.027427842343,613.427369394024,561.744494507627,602.833520387857,555.719669407511,533.61940001782,665.707769239418,539.357449712304,599.686182812406,557.616037773385,524.832321830331,622.65288355297,571.485685022479,548.183542077284,646.147433532223
469.720239172295,466.855900353235,430.657224048797,439.11017035832,438.399778541762,405.401054324489,405.48861809428,396.693125739113,411.629386071344,427.243932934397,423.208124813663,381.326348223891,406.619606311056,428.853846475723,389.688253166253,385.131327856841,383.237446242165,399.630292516766,391.878054896594,428.844034803501,396.908416669189,429.865077734359,443.440997472049,397.528150455127,500.940906406637,455.637904878296,542.988516715903,568.396900046447,453.235195614812,662.63412976977,562.940396850253,454.403560665872,393.614979049098,713.985391062367,695.62505719204,441.122422482951,385.261197201498,363.713105534985,628.400740296421,435.012758157889,316.818017898878,337.676837062802,155.24890603604,521.077968733927,331.806494438915,469.427655329796,491.718807383111,443.34285606046,402.291266465932,450.410632727225,454.777743967091,375.717787299143,451.31416059342,336.031858596443,301.23317904764,490.526989145979,369.093235553905,400.218547954125,394.064548666706,308.599197499107,429.069710938625,379.862620086052,375.77376280927,438.79239450529
360.958617557928,358.035092818674,334.102894742954,336.603801966301,322.946074997715,310.57861354199,304.542584739007,294.558527853535,307.149398007892,327.436545292143,305.965592772612,289.919537052354,298.525816990162,310.731983548885,297.082945258458,276.189624253435,294.930761064275,287.944658081584,272.369212386181,338.152776728466,282.289938706069,353.577672962873,333.504692674405,266.029967678403,413.486170378917,333.367191481111,495.239460466232,455.822589673058,294.659657134497,614.921798714465,426.612723414907,262.539234807173,183.067052215606,687.86645399426,647.974877405965,268.912679002533,162.923315853807,107.231871341303,611.748855279694,278.278649265624,205.233277259664,39.8275509694127,36.2060462150874,346.565455542527,11.8996733894762,355.209178482651,361.336587260585,305.819265140225,246.073800769916,302.285798224226,318.832332313404,195.939078782123,318.21173037334,160.36822152523,98.8682998766983,320.873106471073,217.594580287376,222.925335065716,242.467875350782,138.007935405229,263.889054533134,195.247176004841,223.282132343406,254.984113649129
294.741871746671,281.670853358529,273.707816558735,266.97685352525,251.700104494891,254.750497026609,239.119331154084,230.206325176626,238.922641734384,261.007800419058,232.994047597412,234.402816487411,234.746100668469,234.737881904531,240.554126368351,214.085956539631,239.713047598326,222.940845613498,201.9963465394,279.149123573497,218.757551825813,306.910090953477,261.183766493397,185.931272532676,359.786807373707,248.696974172483,463.072611249112,381.920066597662,188.90046099761,591.949033852647,346.717022448009,123.167122405424,19.2545516390872,683.786507128242,627.185934605586,177.745675420877,-16.0952830362807,-104.040889386519,605.297500216002,181.178049566333,158.060736363704,-176.399006113163,11.5818348041102,184.746742046104,-209.433442318461,289.605330396794,246.201578037815,246.242049144964,173.02786067449,154.000757424921,249.1513641905,56.4447732426152,244.781548016678,103.264178651491,1.39727981697814,170.221166664865,133.56029930879,119.188907176153,153.236197992006,85.9936121622413,194.955950477205,90.9258759837318,144.623903815852,206.002149195164
255.169028729186,232.283810902207,237.849194441173,223.669856907645,213.855548633268,225.851633749717,204.261035946899,193.163847491839,204.872752657412,220.473690181039,199.465466639563,206.119799139375,207.469138877507,201.825877684844,211.366735250086,191.593831554094,213.751736867468,198.305937204029,173.529186285824,246.405253529966,196.483111315199,282.561445818409,232.187730900879,154.032037635726,336.22237709353,210.239897072735,440.30981313849,348.870649382452,138.987226409354,576.343526071163,310.565670257374,52.5193095238525,-72.0695983630252,666.002779891939,615.427917977895,148.108209818635,-111.790326514452,-189.14319467435,588.68470629146,148.917560443685,140.712564947079,-223.587581695945,30.3501257603328,83.163011953894,-245.828255100877,251.583540023545,187.465988284491,235.98711776388,175.43873885625,71.323237902205,219.779864646351,-5.13111609240282,208.223699135882,121.975885716411,3.86441429437328,73.9531458678963,92.9628855804299,91.2737034114434,106.032026421951,95.1493889305496,193.554749355027,81.2338682543108,110.758105982168,253.693928416485
220.244597505353,197.16855261078,212.895146001575,192.909302755711,188.60398986634,205.424591064475,190.112508221706,174.21075968824,190.20188265118,197.686325758841,181.806264459666,188.521852901781,195.463781123766,187.589983948248,197.135396414157,182.384435594033,204.940409594689,187.101330985533,162.961492760543,225.096327658671,184.532068091616,264.024930436054,220.421571142925,140.367083654225,314.392854073796,191.480034955203,417.619208082754,323.986263127102,115.608428505799,540.252358365809,270.220223133959,24.958645065871,-99.0571453596333,607.80869897741,570.105468741067,132.132363958459,-134.037563407148,-152.582343631228,534.658132733806,151.66448197338,126.903684119153,-141.880307012392,45.9012719932109,59.3446188053328,-135.248411797513,211.429170047526,185.373130757022,210.955074393606,189.731197107018,81.1912552904047,172.173546882587,10.6384191315658,159.227831939325,120.582430492655,42.0873172012112,60.9648628162739,44.4167430769642,106.090209216507,53.9991409305146,74.2857192301392,188.738574272393,104.224106969282,71.2222415565975,270.927191664911
187.555504773912,167.765271977499,191.796634113012,168.175208963056,170.375955218227,184.051548479596,182.963925357373,162.120977543613,182.040725271694,184.453718555448,169.872614378595,175.445055796654,185.70311348913,173.440255643383,189.577868407873,171.056631537448,201.01411191726,179.696811546347,161.850066795988,211.168296597045,176.266118787486,251.461122671431,211.7314127271,134.86234085749,297.529150890696,177.488181483324,406.301936915505,304.311598282559,107.174453882003,499.33691118836,222.600292253572,22.3152021407633,-89.963831767503,539.956571350853,504.091189884529,114.01931254869,-122.18374125575,-72.29969809902,462.591234662724,168.861301139132,111.642136769915,-38.7170615410096,35.0823205000149,94.5709546249172,3.13390374235603,160.789200910629,187.830999267369,149.165460321475,162.679234676948,109.160692010741,87.8277771162793,30.0993571489116,82.3447342444478,61.0123494437503,50.4758572524001,78.1217147680524,-27.3782589010426,106.570432072359,-12.0434112261839,7.97562550078978,146.684347520036,74.7331660671202,19.9900206422198,195.950901122599
150.234172968966,125.583905960224,160.300310976063,138.400364032978,146.227700865023,154.433872365536,163.888800959174,137.475285704762,165.703014097122,161.582028600237,153.624536405675,160.295057890106,164.069688192982,149.819849923931,176.795798828659,154.687609890909,188.499714054468,172.462741383199,161.137656557918,200.203334514873,172.565394645851,244.719812010132,202.170733504238,135.940515822664,296.939062008164,167.650804487227,406.612760281074,294.356008072483,113.453657056451,479.807112807868,190.525471098562,47.39400033021,-63.0059100349637,494.914298663349,450.775212007893,118.596323359935,-96.4637746673315,2.90901027108972,404.676806492403,196.247838640073,109.819475367797,38.4784331656421,32.8922905487162,143.60697661177,80.8111797118358,115.846408516511,150.140147772065,87.2548893318943,104.20073745506,83.0595328916108,11.8940111221981,-3.26059092134342,23.0616789877376,-12.6634865410301,24.0519771234484,45.4701378626976,-91.4881093097853,60.560105865554,-54.7476892943678,-64.2545474576192,80.5284221203549,-22.4664986310901,-17.6400201413595,72.2525453214725
81.0304559020197,43.0933375907274,91.3593345572268,76.0419040077948,84.4628676282739,96.3945349190208,109.363099850075,77.4744894913055,112.932128685737,100.578361296219,99.3085318179815,117.221117181788,107.932314784408,95.052375587846,133.112103015391,114.673879218598,147.316013597774,135.225516738135,125.128361700929,163.432072982549,140.153071693917,212.961545155736,162.31661858857,108.388625477068,272.701405582519,133.54879073115,371.655253346911,248.006935072556,97.1901764148767,445.72198829466,150.543946559555,70.3062727766763,-38.0456618288958,433.008136401248,385.872613675711,145.510146386902,-68.1828187696965,56.9670104770532,338.382836413356,220.451627368233,118.687451477003,88.4715012568481,94.0410767878984,152.731816371191,68.3845826444309,81.5818624935841,73.3450313643108,47.3327629146048,50.4781139412142,23.046670861578,-23.1498313081752,-51.7035701008131,15.7014204177383,-57.2990758635075,8.5711898201729,-32.5084947096981,-125.476593400668,-11.1661578732011,-50.2117921488354,-122.552438666816,2.79387767782348,-142.241072697574,-39.1693057073054,-50.9290498302374
-26.5780451945941,-79.8216814754444,-19.3398992900318,-31.3878292570125,-24.8380135004883,-2.33476206490886,9.50846551075628,-20.8107891597045,11.0334206610921,-4.96597671645977,-10.24074315387,29.357267036252,10.9012403315385,-5.8355807404678,42.4228550217826,28.555738198831,63.8329505225844,43.7644423417693,32.6159823831886,74.3831016837624,48.616383832773,124.912410496917,65.8796532230014,19.2997331270293,177.018595706448,40.6707391235616,257.993133636968,113.514623157648,14.840362175437,330.529540677891,55.0933962375587,36.6316255255198,-40.7730936046638,296.658640463629,254.480551785633,141.044070897062,-56.5458711131868,67.0182144139397,207.059773712823,215.97813501748,96.1611290683313,92.6218531068955,190.430895377723,95.1053843086544,-23.1883273906556,36.8798749780328,-20.4267005715971,1.94139661002099,3.25145510769454,-21.2814888943151,-49.1320651382309,-40.0573026872805,12.8804484608688,-77.726438284483,33.1697522741976,-71.9977677044179,-136.119522126632,-66.2978021925047,-25.4737033753828,-153.987275209286,-71.1807855341229,-263.761008137215,-53.0007988526819,-166.74272260985
-134.93529832434,-200.784422356045,-130.44894155996,-150.795931324099,-144.81368524907,-115.126342639377,-105.827112431745,-127.190315443991,-101.428567275513,-120.403318355791,-133.212623715379,-77.2127281938992,-97.5649171386018,-123.129697800544,-68.4821781682268,-84.051197663035,-43.563409724435,-72.4850792760272,-81.8527727225058,-44.1980523055691,-73.9231076666868,0.187846162092833,-63.3350704755312,-103.102144686958,28.8301878327436,-94.9335303580586,86.3677165332143,-86.6584186317589,-114.035766602592,127.69789021565,-96.2638922718552,-61.2971738099639,-67.3328949881621,105.084043074965,53.512454210293,66.0890636068392,-61.9016960909657,35.9228196808082,-2.65434277758169,173.399041015357,19.618867723872,54.7508793965482,235.976296587821,4.78130616398276,-136.596852012396,-30.8277617053673,-114.309146894842,-68.234622034912,-54.0020620727822,-50.0430881000311,-99.7438984929396,37.8848835044999,-49.949394088497,-82.7095089646823,72.4553485254759,-26.7849660463252,-129.673939341035,-80.3875226188959,-27.3595391493139,-116.622455916437,-87.7212349890664,-385.652627827724,-46.9902367999641,-253.301982243734
-200.678078492735,-271.348043610436,-194.762516225408,-226.212531359148,-221.181463019502,-192.541264003877,-182.791771966493,-199.433508254097,-167.766992509983,-195.611173168327,-208.074453565505,-155.25878158563,-171.384376098654,-201.092771708691,-148.191986773408,-166.437288827355,-129.406540141664,-156.542924488837,-164.059704897197,-136.131497618785,-165.950848249779,-104.558010309954,-170.376852640841,-196.572453570377,-109.158418302404,-213.387960302684,-77.4407935923637,-276.082415791225,-226.873174691215,-103.863499294375,-246.734074271736,-185.075413411101,-91.0648450984812,-68.235957287643,-150.0124075869,-48.7000680773899,-65.0088618140803,11.8035537375716,-232.690896918936,121.144382411212,-74.7798470133672,30.2183795239281,215.077209372282,-59.6382184723669,-179.890436482165,-99.6233506441346,-180.390182989358,-130.937817175297,-99.517642176694,-79.2531484726252,-148.368625528757,115.744019803662,-149.129467740806,-52.343747494839,89.739456374209,56.5382329066798,-101.71823427164,-47.6309045215257,-71.8909538614944,9.03070751226381,2.46413605580716,-438.342479702236,-17.1340214048653,-249.97678156078
-214.333100935751,-278.401338832004,-206.646250791679,-233.373721977244,-230.138300449162,-212.40880097477,-198.09032156262,-216.745724455179,-178.314699011476,-206.873961101338,-216.688571093104,-183.702699091536,-190.127588281515,-216.54850551288,-173.804595921508,-188.645963275248,-165.055778316479,-184.408066483067,-193.5838668091,-175.220125760603,-196.80303807502,-159.164953188607,-222.300743121616,-230.682940771501,-199.48392270386,-270.003142294322,-181.346868516995,-396.932749134332,-289.298722145179,-293.374461031126,-336.693011726537,-305.824393208632,-117.597701673741,-185.970587224467,-276.652885105787,-144.51155658871,-69.1461542020258,33.6433491177311,-395.435041619754,92.7278372625437,-144.453673077138,57.8241845557184,187.560530786192,-72.6916748801562,-92.3717133387893,-137.900984385683,-178.387378569747,-144.427224984591,-90.742916318447,-85.719367351644,-154.877651845998,148.581788661971,-205.161216637228,19.756153573069,94.2882884636511,114.859417944984,-59.2286643054804,28.9625700767401,-134.190896621652,154.747020918198,157.619280311106,-315.626641694277,4.62116459682582,-131.370944709884
-193.016261774068,-237.019897733117,-187.295252354821,-193.181515477106,-188.320417883496,-190.256934334085,-170.037766080293,-186.20648046423,-160.044118779823,-169.33880092151,-179.573301424821,-171.894758769422,-167.190332054849,-187.369391771033,-157.917342615957,-168.349518489252,-157.105491128566,-170.68925668923,-179.157486305334,-177.332611959095,-181.039919043204,-172.82218463243,-224.358751038958,-215.25501033834,-237.68775507455,-264.666799349875,-219.401782215842,-429.506549404846,-309.599948790265,-392.693375383991,-352.018522490814,-406.877889523092,-161.989517078528,-266.079252724942,-294.911719591738,-193.191332185681,-87.878195821833,91.7680966958798,-432.022307590324,89.2855158819702,-166.829179206555,116.067392682375,192.137574820491,-31.2555412933641,83.9634798316548,-134.824863067919,-104.5880932356,-110.589145411508,-30.4705782162471,-39.9428058321598,-124.737846635363,157.894082777582,-194.478149834119,93.0032480359619,122.290591568446,145.681388637772,-26.9820437254948,130.934088896627,-177.45614776053,219.908031524298,273.770847972917,-34.1362422002266,-8.43056330936687,43.1770944317041
-153.424261885333,-166.143748528114,-145.985048037991,-134.617311295687,-123.272445706536,-144.485172867455,-120.299559472976,-124.854572424427,-122.057495811373,-111.811419072787,-116.185076850443,-131.82879616753,-119.026257475183,-132.989412478338,-115.503619821629,-124.409023185598,-122.076097921398,-131.034036814027,-127.640046711447,-156.79232737245,-142.081505206103,-151.510259564738,-193.005616183015,-164.985033530493,-224.47126859145,-217.009991193175,-216.382677755168,-374.976435231698,-299.095197632105,-394.164476616281,-306.779914090976,-454.731292251495,-171.75878143766,-334.094000082848,-229.086600539052,-188.488762454832,-83.8548958612843,158.338461456714,-346.299855901472,100.380922958053,-113.320514521776,172.070292521994,224.927395329235,63.8458209054107,230.826491521376,-102.906092607771,-16.7158455925999,-67.3375094825766,27.7422442023643,25.0997276599658,-89.6208693080617,165.069041936308,-164.461113938578,119.269482774388,167.487164146828,171.395057339907,-20.9364270361831,212.696764207407,-184.96689352849,185.326531444923,307.431971307127,226.423218820871,-36.6079182879635,188.986453522362
-107.976693744713,-94.7479374352797,-90.0188590477606,-77.5742672527996,-58.4760077105018,-89.5320643157576,-64.8606878365157,-55.8699217138321,-68.3482899690125,-54.286577630783,-44.3190501122501,-78.4054576314232,-60.0904602749179,-67.2429098179877,-61.5192045512098,-64.0589971454535,-74.3152799919575,-76.1939100337729,-53.0343076490662,-116.55571057016,-92.1136885421939,-98.5581826430059,-139.322160126754,-96.8777855205548,-175.005955180869,-143.301288298722,-200.739805240639,-259.083153895111,-249.340181169779,-332.979298350153,-213.610641700625,-409.667846842943,-76.531591124239,-407.542043404129,-147.879378687944,-120.181690420621,9.68209463266028,218.79354321022,-213.441236470564,114.331768142765,25.0539469870699,226.027492807926,274.595073730793,199.902670749802,274.966118672827,-71.6256107196575,18.4779576530529,-48.9267692342295,31.7012866460955,31.2194333330294,-68.6586829162555,134.370438034182,-152.818461114982,88.8544518362625,164.833921485824,167.690588698778,-33.8343059065573,217.111989901743,-169.957614994507,110.413060972662,295.605374663669,292.924471110644,-50.9780662672089,267.429567155681
-67.3381208079409,-52.0317914104809,-42.528308288193,-35.7460190578865,-11.9666369392209,-46.3961936966328,-20.2249979256652,-6.2326499414584,-23.8478848229924,-7.0161993288901,12.3802022802902,-33.3984589685315,-11.0497220316276,-9.49059196608857,-17.6357104329665,-5.79789740147172,-29.3771314557063,-23.9273628134069,12.8174615921319,-70.4333940405083,-43.0174189149798,-41.7314940534637,-79.5652951036747,-42.1932654940421,-127.107076998718,-64.0412872567826,-197.019200343914,-141.206747462333,-158.97685648934,-278.099447860699,-107.07621875583,-266.566958443668,101.95765958672,-514.751388715981,-149.49017243246,-11.6044587448029,193.388358536712,274.832808259044,-150.98709776663,74.5139692997098,192.048852033419,288.157204599411,306.08759407421,357.274765999548,253.479716038978,-61.5689175470638,0.947577610843401,-55.8088287525692,-14.8160829903751,-33.6729177956053,-55.8863830828057,40.6588341551279,-141.879156395306,30.3637347268835,76.3645068521443,99.4628558691552,-51.8320518653833,136.450602705234,-152.470088438455,41.3251161025564,268.831759030214,175.569010425097,-55.5437566191866,283.694690724758
-30.5717576431408,-29.9702529781018,-13.3504772550918,-5.31235373510917,17.8018904269519,-19.2124579774691,13.5922488315947,19.3587077727671,1.42749244521166,29.4442356173077,48.5895394653394,-1.60023615190313,22.5345024359733,34.1079144240897,11.3524140436406,37.5546656311587,3.3252020063441,15.7280927740318,56.2262778483297,-34.5666374007449,-7.12288659666245,-9.61534322573419,-34.7995156205912,-11.3600583330408,-105.955840606545,-6.45058221365367,-216.879671769598,-85.0176180796978,-60.1136276107129,-304.152991623491,-55.8949012123022,-71.5816415508062,281.91965217236,-676.357290601859,-292.012154184275,35.2945154199628,377.954880793652,337.923888890825,-239.796767884838,-108.254961179191,290.567434607052,340.564935602787,228.307880565181,489.995510847512,240.659596151685,-60.0605312001765,-6.52409854593807,-59.7261443954333,-49.3104532222085,-82.3506240184898,-35.9822647051951,-54.4726768294086,-103.132236885134,-17.2116139460111,-35.6488661025948,7.36109829951596,-66.0331430562003,38.1446603509493,-132.318681714679,-12.0942381561472,221.916072462076,35.4183513282733,-59.328211347591,254.004922195558
11.0034428053043,5.17822516291458,17.9627086089304,31.4333010824295,51.381109129557,13.3536838645489,50.9306097964508,43.8250977699978,29.4417489973007,64.8574681345193,83.7481859428248,33.3554267276098,56.4090546363655,77.3680861580439,44.1376820523137,77.4136983643363,26.8962382933366,50.1837405763041,96.8918842079869,-4.86554225376266,17.2479795864659,5.27513345393201,-6.74428803900946,24.1216312652191,-98.0535860567254,18.5433133690094,-245.253212423966,-100.540063356168,6.36867323413969,-413.709994089676,-106.805186073249,100.988367476988,414.355299352198,-832.160941417055,-509.687690762972,-91.1079250833302,470.59613082447,390.386482829785,-430.920901693413,-427.458335194284,244.362959394317,344.009020012554,-24.8527365187486,518.363235302149,241.46204892694,-46.2544494053567,30.9791849277296,-45.264852757333,-28.8084891474452,-52.5871028573765,-11.0907703001364,-72.9366553970518,-46.894562565101,-35.4021523559718,-82.3082175718648,-27.9105018577044,-68.0996930026438,-8.66325509061177,-97.2815496933683,-42.1227570927317,156.079458788925,-11.2125620342108,-47.8778975482619,195.626489448391
50.3904645136894,52.5830396201588,58.6050224903947,72.6763330814167,91.1369505040322,52.8615488933458,86.5701920266537,72.8483245564175,66.385450547794,97.6304695905723,119.2378216543,72.5432416337762,90.5827238858321,117.294484871684,81.6237327742069,113.474749108088,43.8197356616279,79.0688147857862,137.037487783181,23.9766612291949,36.6749275576583,21.399270609685,17.9503039548906,70.9822780069266,-80.8043607964323,22.5451383658465,-255.595973881783,-133.853707287746,25.9079561577896,-507.10812064098,-220.757057750586,184.154962425431,471.145875218726,-839.525047141587,-649.962740003442,-362.897847637203,445.154859471365,363.511121658083,-557.549058075818,-720.834086878469,40.1186485566873,279.767584162536,-379.235650238688,409.632953080337,203.073084362086,-26.9962402109149,72.1495143676766,-32.4792831249707,10.6819056337426,2.61588264006423,1.57737452600449,-31.9044206564312,-2.54124078872122,-38.294569271148,-66.764011779848,-2.51503877385323,-56.4097358021344,-9.14870374825058,-53.0477563951315,-49.6833900719027,88.2691904396072,1.06155641070964,-18.089920365872,125.437969216449
45.9400776622914,51.8489413901838,60.5552596592539,69.8307531105163,85.7778490607784,50.8425606128353,74.581083709043,60.6640535703191,65.6277877839757,84.9103760354058,103.850964266057,71.1883700255552,79.0523575277718,105.004787114126,73.1678676478021,97.8962561611023,25.9195873636241,63.271954810647,120.189781447982,15.5388280248178,21.5907387431287,6.79206261116237,14.9964518148771,68.238442085725,-78.4358761575566,-2.06174972221687,-256.666980900098,-150.187005144103,-0.811696370253506,-506.455309072668,-302.16275722931,147.770051729007,401.522748791274,-650.071659381379,-630.704901546013,-585.571224689671,302.796876547455,203.490615236394,-519.342808664425,-825.695057321529,-252.123677844511,151.633657623865,-677.606238206335,208.105781205525,109.56340429893,-40.0032215684702,50.5166945288854,-59.2862655569051,-3.729914916864,-15.157615727387,-21.9364129845372,-30.5849817950836,4.15690366315678,-67.2987517192454,-78.5035696565429,-9.96592737642547,-58.8129472543952,-34.3626333049091,-40.3618509388034,-70.2584955012578,12.565549711374,-29.5970087131966,-15.1791205288876,39.2828248878737
-35.2041085304616,-42.2858414532626,-22.6169412074981,-21.2594840528128,-14.081512973191,-28.9878923812707,-19.8634350163618,-31.3830009244976,-15.1629060270447,-11.801298829381,-4.38261905618937,-11.0254904669631,-17.479039699876,1.81487632573099,-22.0719410162715,-7.49438430658188,-59.9512175327003,-33.0275818319206,2.41972579050513,-72.114386070485,-69.3238777817745,-88.8688558689814,-59.7951807502677,-34.0443177258247,-138.351252762059,-81.9454204080073,-285.514868877391,-180.829081542953,-70.4608688849971,-447.353326287228,-305.373541725252,25.0773750451048,203.959281942658,-401.268125219943,-507.415229526142,-599.272779306774,64.8605861574114,-39.49878855583,-395.861560032973,-741.767614609891,-492.662411047227,-23.3708767756826,-820.675667233535,-32.4776317384985,4.9986932975085,-108.395387911118,-44.9173722903121,-137.585973854919,-93.6913005805719,-122.926705881727,-96.7894309300056,-124.857823732411,-44.7506361465047,-148.951577571808,-170.089765917215,-117.80613305396,-108.60552113027,-132.016305842535,-91.1348341452259,-133.113507738057,-88.5761380729212,-136.588323662756,-75.1601336174738,-72.0268887015241
-134.410350087161,-163.119699509314,-135.516530315326,-141.872557267388,-147.435775231145,-127.749751255348,-136.541895913132,-146.310307153705,-124.040046680295,-135.587597099552,-139.655252608805,-121.693524100211,-140.158971370788,-129.54873406809,-141.637910783552,-137.524887559206,-170.514416086688,-154.655713566059,-142.815940469612,-191.684644040145,-186.879246805131,-230.863177737778,-165.531158288404,-163.483811757999,-231.113191130867,-182.967220250465,-324.688697847484,-230.272868263993,-145.799446164358,-374.749635033517,-261.770342523832,-87.0382478934694,10.3663626966397,-209.999123940289,-353.723254988359,-464.011957292278,-151.466706198807,-219.237601532841,-288.81442862082,-578.688533186422,-563.486250585229,-170.010885994694,-804.344416166117,-237.96212356164,-50.5578806475462,-180.363084692845,-140.134266612514,-209.412131086616,-186.941358526883,-220.821056767058,-177.985168261853,-237.007915394288,-118.699459814511,-228.381457445543,-267.199052309344,-247.138557984394,-174.354427033372,-236.378426185667,-159.369398418553,-193.782749955562,-176.547556759953,-243.159991517181,-140.648125179471,-163.212760124149
-171.424515735503,-217.940419452339,-188.575736227037,-197.502713156533,-213.659026349284,-170.35032282804,-192.141163888854,-203.826980705807,-183.030695247073,-201.23308435422,-208.017556900157,-180.911860660758,-202.296477337489,-198.257096208221,-200.997464192125,-200.239352450005,-233.740676575361,-217.794411790461,-212.847589626057,-259.611979845117,-239.030083222089,-347.20509535441,-219.771949112049,-212.055761283101,-285.587325341057,-236.516388561319,-324.853921463751,-249.80652139317,-185.941350587287,-279.311682376627,-220.684827080956,-126.690113415184,-61.1106437323974,-52.6188024953756,-189.76878380204,-361.228786370448,-242.954100732725,-249.266630260046,-193.449924771346,-428.434349893853,-509.877393793343,-214.446988267407,-701.44525972329,-326.762436211802,-39.8824589033331,-194.897694503148,-173.94362564381,-214.296919290006,-212.385108467554,-231.24934720833,-199.531216607574,-266.721042802222,-164.489112922865,-233.596996083086,-277.968841557234,-275.404244580159,-201.253008151516,-249.112545318946,-188.42960843303,-199.140526312556,-200.352426454816,-272.808516019068,-145.24426722738,-187.961119505492
-188.591774482804,-239.889595967377,-208.826337704988,-217.71103815759,-238.708866164414,-196.981367616303,-219.243628454451,-233.934531254729,-219.109454696926,-235.168336052264,-240.60948421267,-214.521211102357,-232.321414909445,-232.208805967425,-232.832994291315,-226.486518886923,-272.871384018698,-246.141728718393,-232.581456333375,-288.102108028219,-246.874702565088,-441.864015937484,-247.40382070283,-202.911689632601,-312.522464442201,-257.364977395524,-313.524231546005,-242.625597066744,-216.463347264115,-180.847002689601,-210.910809894257,-156.524171194412,-88.4982664676781,74.043775333856,-48.6666594737412,-370.910664088064,-297.272753377917,-217.213360191702,-97.0313550886497,-331.629227329712,-508.128845110931,-216.665421245041,-612.14705034243,-329.900779000272,-27.3188882869406,-193.354152026805,-194.943465671994,-194.557098440382,-213.444025476246,-220.217574194504,-186.315194282571,-251.710802860905,-199.413403448446,-207.84948695468,-248.66155687933,-228.370759883852,-215.664999158318,-199.194067737461,-217.300295152822,-196.311830800522,-200.923474594975,-259.526713175882,-145.457771498247,-198.157778162628
-252.978594132365,-289.255342713767,-258.428121359405,-270.64491248613,-287.241635041821,-259.874613527644,-273.265744683154,-286.698834574356,-277.543516381947,-287.871144516165,-295.127366355493,-270.453958594507,-283.498693752825,-286.832900151492,-285.708857313026,-275.607318139319,-327.223422481706,-286.899433779899,-261.919015081655,-313.585470406346,-270.767599875963,-506.398803294622,-299.603578620645,-201.826336266595,-334.171393681393,-282.850996485141,-320.190933448928,-229.551962815441,-251.229065398796,-108.574271501601,-195.563987695237,-235.632539531211,-177.384119456251,120.676253633234,46.4624393896562,-403.712725892337,-411.406983498303,-223.719690465768,-22.0263435361187,-266.324063035954,-596.318654134161,-253.492708125633,-545.105230944481,-315.851513563225,-65.8287574412255,-229.748019443635,-249.394249598582,-209.344585426758,-246.483835782953,-260.867691800242,-197.110289506442,-268.25413822224,-256.79689876073,-226.080965054956,-260.496785446474,-208.483131161506,-259.204037599133,-181.006192367893,-282.426311197996,-242.860532894814,-236.298185352087,-260.494215092248,-209.939374511726,-248.106657830912
-303.672987586094,-313.54143365319,-289.504778717052,-305.108250600675,-311.557785980444,-291.962124922857,-298.971229514712,-305.779251946385,-301.668699604625,-306.095349595413,-314.458999199509,-295.095617445711,-301.70389297166,-308.81031688877,-298.169642346614,-292.842753697617,-334.429549445746,-285.455994954562,-261.793245483017,-288.040832666402,-266.324218507613,-452.953043558295,-308.815235958721,-173.996271401436,-289.32898307566,-261.81441082686,-273.366444926017,-160.645407234552,-218.735948701625,-25.3773023233396,-92.4683705853617,-279.342821382473,-245.269250503758,117.029110998329,140.344404557797,-332.712226108316,-470.345155530052,-212.675806196111,44.94107142745,-162.491635598383,-598.99459715376,-248.2610143686,-407.581092883178,-227.69464985039,-96.6657286825701,-257.640610981499,-281.616758950384,-226.493655050599,-268.209763782359,-301.111869238057,-214.626749703177,-287.84550882741,-294.038309498352,-254.630497061681,-281.173932771791,-227.039629000396,-291.242117866096,-204.600353980448,-320.097120520341,-288.215149548648,-272.513611908404,-258.126388989449,-276.843997366885,-283.819040610724
-265.508011113692,-259.575220741019,-245.292790766444,-256.198643612004,-260.93853365554,-236.002773815216,-243.649578661364,-242.325580541439,-243.62095105179,-244.242723069899,-250.374420405918,-239.604995603379,-238.494416813116,-250.591793816166,-223.49990416015,-225.457848821454,-246.456958944986,-199.079409738403,-195.867926745472,-181.694897822323,-185.958732315547,-274.202309137518,-208.175086527399,-87.8194064116698,-152.542798520703,-153.195807712441,-134.001857421803,-17.9959055699273,-89.1252582054314,96.9514781190867,85.4022425610193,-186.186296473791,-181.736494585755,131.764009587941,257.646859110637,-159.678720432126,-348.807650289424,-115.048018716419,127.14215786537,1.7662951800823,-408.980353349766,-126.609312404443,-174.803708404278,-23.2414144856212,-56.2487983384317,-233.887394799456,-257.367293375581,-213.963605825786,-246.139920260853,-283.467645169485,-211.426073526306,-274.69886613776,-276.549079316018,-241.599320732207,-264.941528646587,-246.646726706095,-269.392721087689,-229.528356410445,-283.324309335542,-269.21733011261,-264.34590441507,-234.296223814019,-268.292221428215,-253.054932197942
-182.597125968441,-179.589875001074,-173.079882076093,-173.368804324553,-188.126253060394,-153.205023771969,-163.491990229814,-160.079263979196,-163.523539261071,-162.605427271128,-168.937508759472,-159.525545890711,-154.421665021952,-171.437522289374,-129.956965894201,-134.351749378642,-132.415083523291,-97.25425741035,-119.5443287972,-65.3431625228039,-87.0011911737695,-94.6713575363007,-64.9485299470367,-8.04964586734433,-2.17637112741772,-27.8873436918843,17.3103973412477,112.724107605416,41.3648070515242,216.571592841305,208.918479092764,-10.9367468042299,-57.6061811941498,165.290023424668,351.145646047833,-4.34122874132432,-137.990651741083,-7.83897183604086,206.115395794457,160.693721013538,-139.242668237437,10.984338507098,52.6592036229267,161.809970714955,-2.07238316694522,-199.346644654195,-226.232276180353,-202.894089206754,-224.954632887252,-239.109083052779,-205.848564683001,-257.106775339519,-241.283193400296,-215.083695664951,-242.450771887763,-254.244003637676,-219.486078026961,-237.100742480258,-218.261087440011,-214.756335063896,-236.222406214373,-212.39642727595,-213.989066434079,-200.362466198315
-138.787834970117,-145.692630103115,-140.580527098075,-136.100394489057,-158.589282086458,-118.267984651522,-134.787545095003,-137.223986048002,-135.37479865443,-134.368240270444,-144.2695028143,-125.58382515748,-124.987216443779,-143.563241054032,-96.3598291818896,-100.639422146471,-78.7458420805356,-60.7144484612544,-99.1173079283146,-17.1003637029371,-46.7881455813318,-7.29054394463409,12.9381772308495,-3.12226077990339,89.0880352270312,17.4829428306413,110.721384199595,158.500736617939,63.6081895328188,288.784819237726,192.57364409255,88.2750715662809,-22.3737514570092,179.433404105702,379.875021693249,36.8211420800157,-17.5546174867179,-3.38586889463177,258.596608720682,231.271115880728,45.5528866916517,24.8447010170685,176.677611849108,178.373496307542,-35.7818134716603,-193.042273886911,-218.801769223272,-212.171254230259,-229.798420395046,-209.821485967305,-206.027993112415,-245.780946374392,-223.342995897783,-208.816835383522,-238.977209321434,-239.549544032375,-181.805417063979,-221.958680438782,-179.922717413597,-186.542278462954,-226.917126522854,-201.733679784799,-180.537378850903,-184.969018029966
-149.260598600894,-161.224702814008,-151.809431800181,-150.216223310306,-174.113967147979,-132.789881553753,-161.132657820308,-169.103401705152,-155.320956756826,-159.912932572003,-172.642999397075,-137.532185732671,-149.508629609073,-169.519096648913,-121.284470319218,-128.692122466262,-90.692031309638,-87.8935114696823,-135.731565321214,-37.2098587021226,-69.2339235136852,2.04133562157805,4.97600673267508,-58.9068220392264,115.131299947493,-20.356731627052,155.379275377435,138.554963394756,-18.3536870924374,307.966257072687,80.8042898301512,32.2754529531701,-103.070648554327,158.815727167059,346.356187857438,-38.1590128540816,-52.6270362648795,-102.864895779232,284.981829102093,172.952703253569,83.9487938899378,-90.6982914508248,170.24963382238,45.8221779809073,-165.312148554598,-204.695811450194,-219.60687568034,-225.211232148482,-235.988860929115,-199.26909606551,-203.390456308127,-226.2238950846,-220.31373739889,-210.172262433012,-236.241398514973,-206.312517883785,-166.868667165543,-197.199590098746,-171.700598955557,-194.215096622204,-238.185652606209,-193.490563203725,-181.00528811848,-203.860523419896
-169.990727325974,-177.77208312881,-169.327345639057,-167.458610020467,-196.894186522729,-153.703306189407,-189.556607148899,-197.671757591664,-173.534917186391,-188.908781339837,-204.651015125377,-152.928127309184,-176.281753864523,-201.792182405121,-152.442909779107,-161.726497128404,-113.628929896508,-121.550154587717,-173.451262170083,-69.9833429984655,-97.387665984599,-12.5663792339476,-26.670606717806,-98.4446857339585,106.061990021113,-57.2388540430688,170.879699245083,108.454912439859,-101.555439303839,289.30990764817,-24.7555855097464,-98.7285810247254,-200.780832104508,121.585538450698,270.245342148979,-150.52281196627,-165.631261898174,-222.273822218217,288.718209747856,8.05092492435124,31.1594105735005,-236.349270547297,76.2183691821139,-115.371359089601,-299.497572694681,-216.21485198023,-216.102876782828,-231.295462987347,-226.386373016918,-201.943617812237,-201.733732068846,-211.066227720528,-219.806747011394,-202.799981922577,-223.47126164196,-185.608773013153,-159.029412430826,-189.962084841423,-165.507283063666,-198.530137093096,-246.00411732436,-182.790444682062,-182.589304556696,-213.9948491746
-160.008011680971,-157.079986911006,-161.028226267469,-151.74933944355,-187.998860844914,-144.206054383623,-177.607753672081,-180.255562672816,-162.089312150513,-179.709834901819,-197.404073098098,-143.946949601774,-167.242047370172,-195.733214586344,-148.553686114983,-152.684612267767,-103.065722639586,-116.940056412601,-161.366059029816,-70.9999232745132,-85.2797372502398,-14.0402462535952,-25.5848604316534,-70.0970975168908,96.1547442062846,-34.5682317355399,160.947833140925,94.7640446335348,-106.092193910749,255.930469988979,-58.9358722996967,-165.24337023039,-235.244141103561,106.294628391177,181.100243548353,-184.53821339807,-233.391993296238,-290.2216851965,267.745512744443,-169.027761489325,10.0915841852708,-321.865181437475,16.1330481503173,-216.803294601144,-358.302931640733,-215.632102889617,-193.267099837138,-225.566194490606,-203.401857460318,-204.112730379642,-198.375488198137,-212.232581041298,-207.255055178187,-189.253387821099,-212.091698792146,-186.198665283348,-139.120472080577,-196.214184688395,-139.795877394143,-176.315736295539,-231.324175091663,-161.06540437132,-159.557852499705,-188.005850677765
-115.624661794072,-102.938103576829,-124.364977085403,-107.318199236883,-137.724935768103,-106.811222705217,-132.549951674344,-121.494002159025,-129.884009442783,-136.991983232755,-146.544007037524,-113.172423324189,-128.427138238779,-149.685710298799,-112.704829661815,-112.488133858942,-67.7676175928965,-83.3103699999767,-113.674616306279,-47.4586742744048,-48.3659434260618,1.82855297564094,0.49869206330585,-15.0675296589779,92.5177030326552,10.6732735878551,136.348918408097,90.6580570262283,-51.7050851992509,227.910570987751,-22.6083555315378,-122.17704343265,-214.580488405188,131.974592195154,117.937321980981,-82.9348144885036,-215.855025319687,-293.882817139776,228.732765223262,-229.160878150368,77.5276199384754,-322.822009917113,91.8356912871966,-249.395080038251,-342.896153342566,-188.868715410701,-132.684160313394,-195.829336145898,-167.815076859831,-175.732306759105,-177.278223717855,-208.491174897094,-174.280297382638,-179.87801933606,-209.214642953081,-178.049494153852,-112.064494826109,-187.237222744358,-103.485611303622,-155.989485657259,-207.47054268333,-127.504744969706,-125.937518471903,-148.775800528605
-62.0873000542278,-42.4502852203411,-80.3613680626688,-59.780363377903,-77.189609719995,-71.6478976572231,-86.1484107123533,-60.5290888928202,-94.6226865088516,-94.646037622388,-88.1692583391497,-78.1495564433459,-89.5397904762396,-99.0994387591964,-79.1696896110049,-83.3778939995834,-43.9296307654896,-62.3081917932784,-84.3987247713244,-35.796100572211,-33.3641986790888,14.0286375705297,5.57663885647117,-11.7695699696144,70.9002586268365,11.3827638302017,102.053785513101,76.7656011722144,-12.189231368849,204.441472155842,29.8068379272683,-52.479100179777,-183.812163189204,166.334744585427,92.9301541002827,69.6974353366403,-179.370740753322,-253.291348314342,186.274929542747,-122.316157675406,132.076533317537,-259.102410335595,240.541311155693,-262.090266985688,-280.614446034608,-137.548587053303,-54.785950698285,-142.298996095742,-123.462636676614,-117.050465577938,-138.17968297768,-187.941499359329,-134.43823611063,-182.201532362886,-212.52483275072,-148.090167551225,-97.4411139119196,-165.63112933473,-82.3052809749371,-166.044486780813,-203.709014687757,-104.509010205373,-111.412738337284,-139.132646056616
-18.0191841193207,9.49144095611491,-43.3440446426231,-19.6207492585725,-33.8009648379926,-46.2599870425619,-46.757732507921,-21.8322195535868,-59.5827791778976,-63.2437916394468,-48.6705145589545,-47.5424941444323,-59.9637822782489,-61.6262112019335,-62.7604009269893,-74.5816552087065,-35.7808104122111,-64.3668653595969,-83.8762544943117,-45.6330619139001,-49.7905569523664,11.4910072859158,-24.0793057347654,-62.4899273723448,25.1407046961397,-35.4833556649149,55.4709707846325,40.5634829512179,-28.0108402384844,166.743432039819,31.1466393212507,-46.9326692106678,-156.547275520739,170.944760246519,66.0463891191121,111.899274475884,-169.413602894571,-166.517051532419,144.861044253478,47.794902630646,52.1738760027495,-145.914105730165,308.719797120707,-288.030319369738,-162.65943518347,-80.2002756134851,-3.64431507784537,-80.6074964765382,-76.3279382422778,-75.9761992177977,-92.6080396872559,-168.633549277877,-98.6422709342359,-176.877432377562,-213.068358844811,-120.041077789163,-87.6002158256799,-153.360564686322,-74.0482971958292,-172.861132561445,-207.588451143312,-99.6567650180197,-108.308607540005,-145.635334282709
29.8912501765151,66.0886400772028,1.34655561017323,29.9727717980041,13.2157182712646,-5.74573076070395,6.02549482538419,19.8910973966867,-11.277359322407,-17.4670992137622,-3.02565585748456,-8.18098923392801,-16.0210140654207,-10.2944178533851,-35.5989452626888,-51.1610713391025,-13.031078921383,-53.9099675021944,-66.5770852983866,-44.9624512692385,-58.4264222484112,15.3844084430081,-46.524389974047,-94.3515035147634,-8.56128495017359,-75.6006072051898,17.0379291371151,-7.95074393815964,-73.9745409231703,108.273664718097,-34.8338688616503,-92.0922765399583,-107.730445095958,163.64298626018,6.29170907138841,-19.9483328860755,-147.940910806498,-24.4928768799342,104.688690195701,136.478462906277,-123.597333638862,-4.33255919766575,260.939070121983,-294.475657733371,2.66594092064736,-19.6362201568493,26.860165237165,-8.98674199251785,-11.3076630607383,-67.2234657337409,-32.4660619913655,-147.898488688051,-43.1784836895054,-118.135093478717,-180.555687038188,-102.657297163837,-44.7324389116037,-130.468551760543,-38.9811527813412,-116.281645332739,-163.411143603226,-68.1725444695596,-73.5873423895664,-96.2166146271528
99.7488349261855,140.529866891772,72.1141657210061,99.7566373166876,88.9948212272023,60.4695451725335,80.0710772517654,93.0305728272709,57.434728361083,56.8211466478681,75.9196769246516,52.3490891664706,54.8189917077497,71.0797323134631,22.8968681411255,6.53005998730938,36.5124551348012,-8.38270805785317,-11.7871257751562,-9.53601994997202,-31.8709943740204,45.3187491789948,-27.8220636967489,-69.9877858480192,-6.30845061875642,-77.8714448119785,9.63706943699996,-48.1083680109066,-105.840919670182,48.1868765706973,-116.673827951341,-120.117165153335,-42.0260822384914,183.737798562284,-50.1543212844801,-213.511071992238,-100.404366669575,108.584611133822,81.597445593516,123.302084291038,-253.048595122727,93.3528090001457,193.752966010943,-251.298983409523,123.941334080366,53.6548047283422,83.6132492455961,81.216966995793,83.872113652546,-35.2072668064189,50.4827138159418,-92.0950570920819,48.7516599261377,-0.721107106509247,-88.8777211382837,-67.0602764560204,41.7977251429205,-58.2882554090514,41.0130446977512,-0.379706995860171,-57.8005649199262,28.9152468759755,3.58099069192209,31.9993640374019
167.222912618927,205.021382379234,143.712395332829,162.910312788338,162.834708250805,123.711468269314,144.414099398493,165.533129767698,119.298174879613,127.864377183133,153.349061851437,111.068163078511,118.09987006969,142.591643237143,80.0975609573439,63.0656337317062,84.8491485604627,41.9879761625209,36.582668554722,34.7577411856765,2.3196028891307,79.2652025373001,2.63614781707029,-35.7892770542131,3.80959926768114,-70.4625195054685,13.0043073067731,-77.5722978195375,-118.545629593127,5.93746934308963,-161.377147425082,-126.673957732538,-22.3572150094886,217.516123895137,-59.7532885295924,-307.758178719047,-88.5371985403685,122.694052311191,87.6016168894957,83.6125124436978,-281.029670695916,73.3299855427725,173.980608816738,-213.81541012757,104.497833158884,116.938691190149,158.640544699847,154.17915139441,165.762934369712,44.867781804708,116.076698935095,-6.81419462006498,127.099595130074,99.804731188943,21.6896542564223,-2.15752038479956,118.291708403655,38.2937420175696,115.462809518714,94.5728794133094,36.9834070447457,138.818070314945,71.5803916670527,150.014973960641
178.020202702527,209.886410769167,161.007521694037,174.189786810255,177.807604873578,142.677163372694,156.705980898823,178.462251465578,130.945536046156,144.869076609762,168.295692830303,123.950655199924,126.110639210121,152.137767322586,86.280905329965,70.050682159792,91.462297036244,47.7830293589953,29.962684286398,36.6420050174874,-2.84345807755976,74.6783104537354,-8.33270132562477,-51.2691904799894,-18.4892751566442,-92.4291823884861,-15.6412115106658,-113.641104778411,-145.416475430205,-34.1401744783052,-180.180821760479,-178.551600715726,-86.7355810154636,206.451880478426,-48.7185289319076,-281.392801967896,-152.381366532603,3.65384182420936,97.9192103677869,48.4840136473995,-279.714285466987,-44.267847314977,171.050507102998,-251.829698704557,-30.5483074640999,120.185901333782,177.112698774557,151.576420144629,166.745123803564,98.5985298331591,102.273742601233,33.2600667881674,123.242037000051,102.313111735984,63.6067016630127,35.6261405209425,116.7970683739,77.4369038022093,115.90446111053,96.0785467893725,42.1362630952325,155.998885452743,72.8659392402587,149.199140486383
