-64.3768368723328,-93.6653977917275,-59.229589780063,-89.3881079544892,-115.776811357112,-63.1443974277049,-83.2984071692685,-119.981604756431,-78.8036280182723,-113.529421781614,-141.005571753026,-69.9590625921185,-114.399379036646,-128.681177306746,-139.265657242963,-154.852391395612,24.6487888925599,-202.337558232749,-172.106543620403,-106.859749493039,-153.547455513064,-2.24738957549811,-153.619951950983,-172.686515123758,-118.749165311803,-189.86817091063,-88.590647137377,-163.334474632169,-191.680581858613,-137.090764105384,-163.479467508007,-140.498096687591,-126.433787731248,-84.2408608622193,-120.561576259786,-130.711077568487,-120.12659763227,-107.874699623909,-89.098122202812,-110.774557140681,-109.904599885649,-107.729706748071,-97.6527018772887,-99.3926163873518,-97.5077090014501,-55.3872785703404,-108.309678251425,-71.4814877884237,-91.7079939679066,-99.5376092631903,-58.1421432112736,-72.8589201088902,-54.7348106290668,-60.462029224691,-68.364140957894,-48.6451098438461,-60.0995470350945,-27.7661357230895,-65.9717585065573,-44.5853093203657,-29.9410288606683,-7.32214022984867,-46.9051953337831,-25.9537247751072
-313.296237641598,-458.069506084951,-290.105107056284,-437.193891880659,-563.56763053383,-308.753276474722,-408.588386329307,-583.664272166523,-386.100818789409,-553.991264836025,-683.422515950792,-347.903372383003,-558.336681478787,-631.250735555543,-699.815450185343,-766.16202218181,77.0124036949228,-976.978767972765,-866.664165418986,-550.327447017173,-743.223454028947,-23.7131710920672,-746.467305489802,-835.922762652942,-565.274491357062,-905.197429392415,-428.842682906823,-768.856158797407,-904.155251751241,-640.415543391471,-772.226514888588,-669.487624713038,-609.857450476893,-401.025898907792,-565.464753160516,-620.583563372484,-577.10261626276,-519.330121902214,-422.333578651336,-525.115271494439,-524.249683871803,-517.844673196934,-463.577331994484,-475.603001424296,-468.616562701941,-268.538591875561,-516.971802853639,-344.397772396705,-440.952054299408,-472.376181664822,-281.827851064499,-345.061445862832,-265.587639254646,-291.240735640952,-323.00885695045,-225.02022144661,-293.145587816499,-125.369994047154,-322.894004673179,-220.110855285944,-136.124790997181,-18.359193382692,-230.538689993268,-117.640102700094
-625.148750984626,-918.031178011312,-586.83960368762,-878.893709667264,-1119.16732943697,-620.995528622735,-825.361517492789,-1160.14839966952,-780.333024481642,-1110.76338908742,-1351.60930295858,-719.331006827482,-1124.3516633774,-1279.46307486034,-1470.49583037548,-1613.11481086776,-9.89705673978892,-1951.34232805047,-1869.98668023454,-1218.37498278067,-1491.25642877407,-117.820679190736,-1505.965882325,-1670.15892740055,-1109.57638647417,-1754.3834168421,-874.324083935891,-1459.33461522836,-1700.40368784618,-1198.10159803954,-1461.12991322291,-1284.17669455096,-1199.7638696621,-779.082142817195,-1061.22706521392,-1186.8998746247,-1129.67829709806,-1022.00966744974,-810.097102786489,-1004.17904849994,-1012.97469499745,-1015.7463709863,-889.443910886122,-924.542069160726,-918.997330730802,-529.019095878491,-995.487263708654,-671.181858855507,-860.022810688156,-900.253661773849,-558.817377409118,-655.780343629054,-529.351919163275,-576.492528749721,-613.250792909924,-407.606289023744,-595.685915742475,-217.467718894761,-652.919024104902,-458.419862617614,-241.062898146556,17.564100711056,-468.006563225755,-210.467631732101
-658.525403732828,-967.896811691877,-638.71317014525,-936.530559474386,-1157.96515352643,-665.08283058288,-886.893567733909,-1206.31005038705,-845.15146303282,-1182.91135366553,-1395.5611916817,-810.728534765511,-1222.97230341095,-1396.74878197492,-1694.77258726479,-2000.09983798151,-382.072594121544,-2152.29468275695,-2424.5219406492,-1560.85171008557,-1678.20608689975,-345.767696945916,-1688.79855756501,-1825.58344591023,-1208.88624986899,-1784.42058429941,-1044.80686236349,-1425.32231120475,-1570.05141577349,-1141.38569702966,-1380.23416370886,-1243.5896463219,-1239.82112130385,-813.111028797668,-1003.75771642831,-1155.95651743099,-1160.57194255758,-1069.68873242084,-810.425335555272,-987.248147837663,-1013.82144020267,-1054.15365580056,-882.804189479404,-941.350619570942,-954.25788593335,-543.453910794004,-982.194319417051,-673.424483109833,-868.380318804717,-872.523356410655,-591.330828188139,-629.688727364902,-569.143221142948,-620.153187323119,-596.433725433008,-346.733500507136,-676.824068518598,-168.703279861614,-716.087900149473,-541.323899635059,-202.523824668576,105.213867898127,-515.323916147001,-190.59467328951
-389.485033232513,-570.350518066999,-415.063488669417,-567.160874056166,-655.384268556473,-416.212432675365,-544.821874818423,-693.150598714188,-540.799612186904,-728.283613972037,-795.875263594808,-565.736998469452,-820.848108585399,-916.057936343897,-1200.7015294809,-1851.60451672819,-792.983486747269,-1605.77469509484,-2444.50776973024,-1355.61884976373,-1355.90236432309,-672.560473502699,-1304.38006642242,-1302.12261328263,-936.390221707077,-1057.03773315736,-972.501721885466,-767.379419448217,-620.250438416529,-609.375170949098,-614.072579835918,-593.509600198765,-742.142975616337,-556.947745914656,-497.014930990963,-589.044794142632,-689.148288206923,-683.374764145435,-482.132241760532,-539.090344356825,-568.505044242311,-657.814416678455,-497.048663678381,-562.416938877424,-597.322535554493,-331.570469013545,-525.127904768432,-381.878321491358,-477.659762783798,-451.404977698276,-398.60171309922,-305.619442313509,-395.458651373765,-441.545473846158,-326.806762800727,-102.468008071698,-528.062288863044,-35.8408597916748,-497.400804570016,-427.357075258967,-77.5287938591425,135.236834149422,-360.472149268961,-97.9844994424266
-91.5395492332337,-147.352493669849,-153.96649205359,-155.37529191887,-150.541093150379,-148.801525758511,-152.735753790975,-169.307002762279,-197.405907513085,-235.37618045831,-201.415251103844,-271.016959189146,-378.121841310138,-364.377156285106,-552.445474516047,-1522.40095157789,-898.211154334203,-1037.40100131203,-2197.30463121682,-919.468902155538,-1036.09141887463,-960.888547503063,-927.011221093167,-717.561035057805,-725.237257476504,-366.941345455891,-901.050123430769,-197.38338531281,197.599188460298,-228.808034931506,53.1097162218303,-19.1360113829227,-279.919565351229,-351.479889664197,-109.940672934458,-97.9718507863885,-247.927628465765,-322.702545535028,-220.389630527659,-167.223769844089,-176.016854017149,-294.873189624109,-170.510834401021,-225.454029557027,-266.641662385402,-178.039960489587,-124.105177947536,-164.635986329636,-94.7469944450883,-93.0316152227714,-259.417291830764,-11.5329223480162,-250.532699452131,-280.824412464774,-110.746253881462,79.1272139938511,-356.009778652989,34.4487349000924,-271.613840764846,-247.04308177288,-13.3231172972726,86.5445491261212,-200.015738814932,-7.89525949902851
128.597662012273,142.792525290872,53.4128337747168,143.972533583719,177.52336972949,34.3451738263402,137.70442333956,175.459271129085,53.5598458832816,117.788458910612,171.080040206738,-46.7219791794288,-23.5223922510512,58.1599945897936,-89.491642441605,-970.093201664252,-737.022667398193,-479.834319138624,-1308.95255207551,-533.81488231565,-630.505093010764,-1113.01750917937,-586.374495243173,-136.523104359384,-548.620955601377,153.50971568804,-741.614934695773,172.183544446211,655.637987989876,-27.144781046571,440.601937027702,283.686801556982,-0.452083913883195,-184.328499733714,96.5238151718387,193.177282875382,34.7911028052596,-73.1615590470213,-52.8781445103345,59.79003639782,68.9789093821265,-54.1730736955559,38.5416076908094,2.40831498722821,-35.5658842139577,-123.459958589961,161.666823610922,-75.5274275027287,190.68240221676,149.40079283671,-216.890456635845,203.944463571907,-172.293378259446,-141.339216868963,50.9328690006015,189.156279119548,-173.961898164043,57.6308130553889,-95.382285853899,-59.7787789303417,15.0795675973836,59.5529824805514,-73.0884485687156,109.31416318336
288.246573038591,379.163437965268,220.803108887134,373.635295180953,460.113023242192,174.589287026098,351.270394222377,463.806676973942,253.687886658773,414.239903648497,476.041393969572,156.554070003453,330.217902633788,431.629531826853,245.521886119729,-162.376897677131,-507.586912636512,266.981559610771,282.706551093712,-199.543566043332,12.3161456174996,-1104.75319019538,-42.2393049792775,525.360897446055,-234.9876393553,694.554637890914,-385.060181150272,517.298480747672,989.122466637947,232.414355788526,743.146514371269,478.949174411307,247.483191891426,73.0261936566174,316.726081893147,443.667657282533,282.380700005837,170.663922181864,160.019768015172,297.12076752263,299.736317774203,181.580028648171,255.638197291491,236.635705732186,196.934915281579,-26.6726253963543,494.027792286247,76.7500188920528,469.273585401497,382.468736125907,-133.167421262049,395.029145475763,-69.1911498352709,73.399021859375,268.208377788959,310.983427653873,79.3062222057027,105.945295323729,121.370648169029,119.182232445096,86.1493348779185,6.62237520223911,81.2678448074356,200.222604314345
352.915332834214,552.148198092385,306.548214395557,504.43668659436,698.816334862936,255.07304385961,451.709119760588,696.105270178625,384.899480620026,637.587962260318,738.762796489583,329.980416176638,629.334166326106,747.606059548403,538.626484265931,683.414780329851,-225.769165591335,975.95491568877,1703.81267171776,221.407291315648,645.360841101095,-903.770997182369,638.425595874752,1070.02914859484,150.912613806401,1182.57033480221,40.2623551042921,800.925904205609,1208.80742080334,514.59579093952,959.227703299169,615.097007256272,449.681913476884,321.451887474619,525.725745893579,621.249755919615,459.933585958795,334.947734554564,358.639093306612,488.970687884777,468.852534562869,351.256036353596,419.704506419396,405.360384214723,357.006229884416,104.626787236972,754.557059377224,308.646856765143,667.618531490791,494.007769518533,28.4260737715644,454.837125646989,44.0642996280621,312.271353514291,443.583911272254,371.119204843918,335.931789569591,157.229988753923,333.219955786702,255.295484055725,166.1936972638,-159.48521359603,222.927209857503,150.958182735715
359.972596874946,668.834787630307,334.784388731896,570.033743643228,880.250446040472,293.599389426677,481.739692085037,868.431332351578,469.936615438532,803.561798265197,975.916315593053,462.884322021231,864.386322822612,1040.50408760328,787.771858808155,1551.64776890214,116.376561119428,1516.7871848929,2443.06633962486,792.318576093246,1232.56119575966,-475.208828138924,1339.25699764266,1548.63724448155,593.696710016627,1627.14655501654,473.758132410439,1075.70187994215,1400.06097053441,789.582987569164,1146.433538616,807.102390834701,618.174748255803,485.501612832682,710.488849683463,755.141871779686,596.113477068724,423.478359185354,495.315336323087,616.700267132348,576.920704765173,451.738273687856,512.780431673254,492.695766477851,427.675627179077,193.396206019625,821.726375408251,496.042639132902,724.813579645426,467.814810198011,228.141189371641,365.65595299216,137.452437362621,504.033330819054,479.102139454885,282.691341207281,523.52239223174,167.479345145858,471.215975642278,348.037248753103,206.047945305237,-253.706766933859,302.180902754296,54.4729483697379
409.304837196505,792.08104727416,390.994009157287,678.725393607995,1048.86055514847,355.058808887487,560.610910063999,1038.11730607631,568.279431047564,979.49425496738,1234.04213503587,565.186349912385,1078.38898845206,1345.42408289483,885.757404652216,2423.13983056009,394.016834653865,2034.09494936514,2879.27724560413,1376.11159808349,1914.36255913684,162.183931577026,2015.78382922331,2121.53920458681,1170.94714995317,2089.52354457257,987.858108847351,1468.89390841782,1685.95912583151,1119.85477260111,1419.32121093888,1159.38480452394,862.885030362974,641.651634557606,941.643758395115,975.731007886219,819.004142066579,583.256950150412,644.619522382933,792.390547934232,747.777320417224,616.301477872863,645.070461296495,625.849764281197,539.659428770465,252.32600591297,805.79191160742,569.002590420333,699.251922650682,498.390775521714,417.286832141278,294.478211337745,243.100614475596,628.199209323955,442.169272643698,113.541324360328,631.704556758626,148.154963464127,558.669009810186,407.879539636015,235.548500359069,-69.9200760405796,338.251725456704,103.56084624892
460.01576753791,855.316819510538,433.969830556867,769.865921410672,1125.03585596667,395.907722620449,631.531271885772,1120.49425318668,601.073274703165,1063.61144247957,1373.23984489951,578.081725802963,1143.58833472585,1479.77458657004,788.251992227374,2882.95384421449,541.292655547631,2434.51348417545,3233.0800474577,1770.55988130632,2448.56834344002,870.873415586015,2460.9514583702,2495.28859020098,1743.11929576382,2350.33980525695,1510.2281380257,1836.25060006793,1834.95133656253,1383.71162741826,1616.80486809983,1434.22355843355,1101.73427764977,793.318343478915,1129.84492287186,1183.25350425408,1040.43064379975,785.891153503857,786.991939023027,967.94902187258,933.792295683062,815.286622865142,793.992400482677,786.924866991589,695.078699840637,289.572556617799,758.38031319409,518.572429444835,603.458548556662,619.743868266862,518.344936847514,304.541756169581,345.091794992227,634.66571395835,397.297639106681,-0.0677356068386423,634.782473165813,128.051746482438,587.166454272134,397.718712687322,267.46049146864,218.96544132991,325.521135609116,256.116042536308
373.212959684456,709.763938723009,344.486373470121,656.644918547967,954.461760878116,317.117879681421,522.505661744091,945.115357822785,454.098247075364,882.373966968813,1184.53776954065,453.540087630988,924.533008688107,1244.77300900299,709.097084232107,2610.16623094122,627.79509729591,2390.76485630789,3194.1573197431,1904.44062839735,2487.90185014146,1401.23632557861,2447.25161097683,2337.25440643929,2009.5898414844,2199.15748995424,1793.44290891657,1902.59258822419,1594.51092190626,1364.16261341446,1487.63699793582,1325.58399232829,1096.04924351786,835.717714046178,1096.84405730538,1136.65342810573,1016.21119611119,814.702304306662,794.91849077216,950.680809893674,923.886725011974,835.009278085789,789.598015546124,784.971522572809,711.227276950194,261.868642683252,551.382691172205,369.997181926901,386.949770420839,598.181308682402,480.754182802663,256.043944901323,367.219316863827,490.650339360169,289.903515371564,-39.4496391599873,507.420633386619,64.4679340347896,493.250745565962,273.76399493238,202.791705565797,241.7465912761,221.964911559871,262.134010739291
157.223767309819,375.9914087074,153.874821828886,346.570142588641,560.956254808904,159.329254809913,266.236099900498,550.658553272813,219.797634870386,511.747739744154,721.469374226433,275.27693466604,569.397061702211,762.904582829513,838.426556530511,1931.03447507832,663.789840945743,1915.12225817643,2644.74138722656,1861.7595216041,2126.91517500655,1620.4117413636,2064.93969302959,1840.61345995028,1915.08927387575,1770.98000973075,1735.36310656038,1649.50134043062,1134.20359401108,1106.54634990938,1076.5615933127,926.498438508301,824.58158233573,760.948495180793,857.849973528381,833.744596215143,732.274070478379,609.865978215722,659.118596959134,722.557896138978,680.660016556186,615.223598155579,591.399315752288,566.181778788396,511.395131294409,192.19980746004,194.958765064375,210.761929037091,110.070832744672,325.961091697349,368.520729915367,77.7948831753931,314.517293390782,280.925556501363,91.5756211262985,-104.567428968793,314.60922852609,-121.066758492136,312.687698339111,83.1464162462875,-26.4680167754614,-138.173796453907,64.84002594007,-2.53499586797169
-13.9935819968075,70.914344647026,33.2614333164501,82.8247179214104,179.893635771047,70.8379828407132,92.6245273744176,201.662845290808,108.029463249192,238.329534508998,284.749284354528,177.930491128255,353.661513315473,362.692737390671,1021.16368265612,1432.73113871358,585.864233136093,1418.92959904052,1900.23668239027,1737.37891472998,1681.01516610227,1632.22605590044,1589.53519100228,1333.55338142157,1683.56011249836,1275.38913013554,1512.87348882143,1279.20491497627,711.322908447733,865.057764071538,633.518978389974,542.26332946219,530.502868952557,672.874991396499,600.15742146832,500.875298137402,429.80267701717,374.668939444104,510.991047197815,468.458420623056,406.795883049086,360.777523472309,361.565260619728,313.977873319526,265.96042414524,165.633378207558,-78.6346675615868,136.697242896595,-61.6387905635495,12.4486233976788,308.296838630118,-96.5142085812528,291.028581006681,152.134228582243,-85.2355589616055,-230.278266583725,193.190158003249,-354.825001572685,193.004388796226,-34.6454345423277,-273.632570468429,-667.42995594945,-16.9449506210926,-354.526343110585
-26.9441540616994,-39.0578315077072,63.2099959561162,30.0094228051628,3.51883991175496,106.273861462551,109.042639129591,74.4270290481204,167.958411809038,190.828430187082,75.4525993598575,194.664154110705,331.510743019024,191.980486785276,1011.57098681466,1268.83438953448,395.129013104746,1140.08881456513,1256.35017827769,1457.5892634668,1243.54136213501,1496.87565921351,1113.66005094386,847.922331918872,1403.10199067346,725.256594377971,1252.55758993634,878.86282328951,290.690889928226,694.207254166226,286.95159175626,249.428883583978,362.810933350089,590.696739676908,412.334004470654,264.629188327469,247.334742327899,274.808739012824,409.656194837698,297.313872254477,243.696192517404,240.610005724251,222.948650539294,175.599647499088,145.417360481199,193.091603798123,-176.83492722895,133.478789483464,-95.8800120537229,-165.956967250481,328.846754613265,-161.97776999734,341.708978918708,149.078857039045,-142.450813523716,-349.41841903126,201.777811356017,-449.395677351739,205.136513374232,3.23466652540891,-332.478286263449,-913.606988438083,38.8856572630491,-501.635862486349
60.3050693640421,6.20054555440541,155.820081006897,103.81790444207,0.907196971375745,183.447999515379,196.662612134543,89.2140161654881,258.662043674815,224.846133216957,24.7531162169977,239.090001009605,331.135869484593,122.703757682279,806.372805883705,1127.27426878895,143.608261891699,903.31140813293,784.084989348285,904.910715829267,746.361755263195,1098.79483593969,571.371931266983,345.771210438119,937.362523064659,88.8234125009543,849.914675323321,372.107176826826,-228.799731111032,429.167117566566,-17.177967221911,-28.7653832976867,274.928275688798,430.824351969512,224.987483797071,70.6584276815954,133.28421294297,273.451215887101,292.354483694084,161.598113967682,143.731774260944,220.502204142844,140.12508119926,114.621558772622,135.728732193904,222.539141714063,-234.140630605392,119.591743820813,-116.469634958354,-261.321187503663,343.007334676736,-175.26381128786,398.515159689992,173.266779321784,-127.529083125703,-407.73464564911,251.972939608536,-375.626591937531,256.613916843193,125.418542936843,-211.589042535805,-716.583651467729,149.150412770277,-380.052477932867
139.684462363088,77.2718432560827,204.756095366395,152.944922391264,36.3897790456124,220.877637400603,220.214459563258,90.7620066628044,258.54753971217,180.931614873123,-16.2720401500785,228.142836335748,219.734254466124,7.90982515474494,562.623612627568,727.080353667351,-65.8960326088869,521.990491821012,420.114269285305,262.713402395534,198.277024144833,485.593453710484,18.5006924041379,-95.9981120535554,325.885395799326,-539.813153288005,316.192558234467,-192.672158165415,-735.473797843094,101.501383438474,-313.588205644387,-223.561864533218,302.267736093966,210.416425268544,26.805140255429,-93.819800441251,105.707696870383,343.509951814008,156.227818106768,50.9253526086983,81.8905627335178,273.801163745522,91.2294489874323,106.240717095275,203.059155286173,266.20779699841,-270.922281741376,117.055493297805,-130.766856357678,-293.248136849652,319.683896660485,-164.74423172768,411.717499940739,145.05798421396,-93.0285218070355,-366.297866515309,241.722290927505,-247.707983034762,225.173110004125,215.657329795875,-68.3478665482719,-341.897296531471,219.349320217416,-170.306965540421
162.02491894255,98.098076808548,191.924492027738,132.822379936625,27.9976580265771,211.762095571625,165.657508720025,26.7374314253858,180.538589259736,50.0774573757529,-97.2079376072284,177.478056864429,29.4814540551266,-151.664296104223,386.673864956438,150.37534875554,-49.1916278188705,120.605329104843,38.6709952976421,-83.9721545876966,-288.387105734873,-1.84384026615972,-364.984885805441,-405.815703960927,-138.276044818245,-1006.90221838531,-75.0141504633232,-601.930146781611,-1035.13078964704,-64.5521063238356,-533.190779238947,-259.111636080604,509.657795672629,58.0614110052653,-94.993080029232,-157.589059451456,221.080017281637,510.205109714567,79.7418547096562,19.698096635395,101.747799818067,426.907621695764,113.373156769621,186.971105824073,354.624445632701,359.44044255193,-179.127670829675,206.929773240761,-30.0491492918308,-200.633908241165,326.463514991821,-89.7867041407117,402.969297283954,108.537397906882,-13.7236593143696,-229.46943539107,177.11868567763,-128.932406979146,102.054845466908,230.702584877961,-3.32457753281606,-84.078014914661,242.019763868778,-45.3171179414382
113.438838775622,38.3359630958889,137.658347383027,54.0867445715481,-59.0170274019314,171.073334208287,67.5045469351764,-92.7671947081897,88.1125164406207,-114.593635384736,-216.242471652348,139.109489054133,-140.990096705431,-304.063791333983,288.11859981251,-277.446685625782,288.271325855455,-62.0020805790002,-364.447712827028,-23.0594583770373,-565.640473448478,-117.709554911725,-480.778726669476,-521.778543017563,-285.223916230173,-1191.99126019682,-154.61149239501,-754.374419448389,-1052.08448779685,-64.3525659789375,-633.152540944118,-238.558189776718,688.736584175291,9.60082642840377,-134.085342113887,-137.68167762411,345.272733651479,639.131824633964,61.581127449123,33.9238445715998,144.653668442984,558.839532040736,154.671611987143,275.990168706994,475.395975186851,424.090134453678,-35.7716080479783,315.951592568752,115.544560889875,-77.8633768342584,355.468593058163,-29.2657777466846,364.97115502217,96.8408241112637,70.473489280068,-140.398139545577,106.291028749026,-69.6128431585932,-17.7024186711645,175.917343395416,-41.6154452084804,8.70673768294708,233.174178045158,-75.0361111840127
0.582339085807716,-101.776471118978,47.7817940779848,-78.1752514432782,-225.515800155285,97.4744631661497,-56.9460938269992,-251.455825839639,-0.470065131094293,-273.34275234819,-366.507167253865,108.285685464436,-243.337135349307,-431.197549168465,264.669855583934,-333.607307568747,765.349821899236,35.6812335847223,-583.611831418333,215.627033149795,-522.081587258492,40.9354949755626,-361.255631916881,-392.950165218353,-183.781939083346,-1047.88070074336,-8.71138973556588,-716.1093403446,-837.102234386714,-42.841403258567,-635.953307458892,-208.923356824411,599.609339773119,17.475425851566,-140.843298655076,-107.74106505231,329.085726945268,558.585173647621,51.846982527757,24.5354936126233,122.739805876069,508.797740740049,131.131904193859,251.922506606717,422.933730487516,343.321302321733,-16.3702099452731,265.285228239978,112.996682679527,-65.1912253533482,279.536741090684,-85.7211623633255,236.674607792506,17.1125035224237,38.9806144364051,-190.252598506502,7.56655029876864,-119.357307882901,-75.4495209830558,71.8007587617208,-150.735663512805,-8.17505785839558,190.780071906,-239.219247048531
-124.56331662099,-254.701364163191,-66.4912852112243,-224.802352883212,-397.474635684223,-5.56837892700735,-184.995986178789,-398.949988546582,-99.433876629527,-389.693824578915,-491.386298064637,53.2668573820686,-287.660659535662,-512.73296361261,343.489198034889,-87.9263106362627,1025.14612816012,301.359877337368,-492.840763187473,400.573417178671,-222.43531032902,233.89941180738,-138.94516834854,-183.283680376521,19.7712268495324,-714.743532263355,221.352900291697,-584.643935970718,-578.789771250629,14.3519920079913,-560.216966666838,-138.488979056738,365.108406879961,85.1058171031081,-100.336797868767,-79.3968298465778,232.780160015676,349.23213992913,69.406488133119,15.2173436460398,73.3112444852239,335.156934615738,78.5376571387391,156.219263228816,261.267800655528,148.627806632044,-85.0198913670209,45.5694600819415,-26.0647515892356,-84.9516935285201,50.8970539828278,-140.276640712388,17.4753432874056,-191.918409669961,-121.445726811976,-191.871868803008,-154.68267604836,-176.313162135456,-118.363250499665,-33.5899916148492,-222.152793159281,-59.8722274665035,132.40915103872,-363.626568792115
-192.972821061128,-318.738677651699,-161.731806067131,-307.720720440336,-462.865490626822,-104.116795966285,-272.136927687552,-460.817963100528,-191.376295456706,-433.647486136667,-508.530020603176,-10.4869779682148,-285.39825603928,-512.268527227958,501.284097159705,185.917680333731,866.089374743386,535.010283211813,-269.675688048709,444.987502144344,38.0196347201253,319.953280367356,0.896242350093907,-208.358214165549,161.01212701095,-460.274685038229,392.883387101433,-453.207248443342,-489.606514233872,118.466261248771,-437.714424859116,-151.588784808109,221.182561891459,187.366825146664,-18.3167667255861,-60.2040912137893,149.476719024901,211.167361027957,122.651407583603,38.7142899830024,54.6467619561066,208.659006510089,69.8971060604697,102.902222817957,161.153997109795,-2.4518677772708,-81.4121696658184,-141.26445608135,-109.110796272083,4.93241023907359,-185.115454399236,-19.3328860085128,-170.801981895042,-378.454760547657,-246.720890648179,35.7158425037859,-291.065677046561,-59.9168276907771,-160.973584071883,-79.9516078418702,-150.531430432797,-4.71078452685137,99.0848606561259,-228.673387144498
-166.662948138744,-247.714722461075,-169.426974002901,-268.456917304553,-373.550968641721,-126.264396675358,-261.76981671571,-393.003491414316,-200.240575534404,-379.074399608741,-387.828850504478,-13.8482859193943,-211.931552823724,-404.150230777934,624.480201747261,252.361009319584,460.13992679725,523.931544624594,-164.718345002566,321.946392426693,23.4067060318281,298.033301719333,-2.66060979969481,-484.743301734632,144.195676636464,-339.970116763527,383.351554157692,-364.430794944051,-486.787416676654,120.305200458765,-321.152702189939,-287.849887058902,151.764823530384,213.920318745003,23.8081417050495,-64.8812458593998,78.6665812628727,176.820824608771,143.6545534661,59.4777696169375,53.1609126135994,170.677671689264,94.3755451701937,107.592628507364,164.245063076308,-23.8867792280736,3.31760236913923,-147.617533058974,-57.5949049754202,147.105818147547,-254.583299005464,198.637993109153,-196.701884439478,-344.569117234182,-168.875489997853,327.987083828757,-263.645598928047,217.201247711391,-114.542684022401,-40.0318930869849,33.0077604242671,236.259953641042,110.83594666147,136.690734554863
-40.8688117622208,-70.6256800786995,-42.1115891106181,-103.592871118299,-173.409780660835,-6.11130077429832,-108.647018740845,-201.492550035297,-49.1196017467851,-197.533597322865,-163.302039034858,107.303774783368,-25.7579417491118,-187.866531656538,622.14768891245,138.352077152838,145.573897939514,277.350770279722,-167.82779675602,66.9809161545581,-110.98770626995,232.297732018609,-26.2686677788685,-638.156397693492,46.8527726672168,-162.174627426888,242.628278413953,-266.063968645419,-300.181093827478,-35.7721791723953,-208.88868518902,-300.60660753521,66.6488753764939,126.660768726129,-4.22899334377836,-43.58123086231,45.6936660994489,167.994536474153,94.9503274772771,55.8691512843065,61.9444284367847,164.03459578499,113.22658945889,126.450425794075,197.850569317207,23.0527944163594,39.3048786968732,-46.4659773920382,21.3992571762931,185.904294655791,-159.009481978476,278.095211007959,-62.5934879764695,-126.284372432838,57.5581389435307,409.585558839307,-75.5955707748375,421.552273364859,62.422023322267,64.80708795621,168.078879840296,495.104257337231,160.03010920059,435.741918455075
153.554172658496,151.035886909893,182.151509506703,138.066196096804,67.5943536516182,224.675590908163,164.218362423699,68.9236395792713,234.924672387006,97.2197348410206,114.124813519497,332.788826064694,264.001219425838,107.746991309181,545.05528249586,63.3773813680717,45.7715832016301,94.3269163048325,-62.2164640071038,-177.162857943645,-45.9578246694727,162.36988268889,30.1473993006778,-402.321587009378,-15.4727310672939,136.690770509679,129.288379580561,-126.084150107965,51.8942049602491,-208.715531912113,-63.7112252721,-62.9203922987914,53.3814553270523,17.1609631550318,-49.231946877327,49.2323573109775,110.987646074977,186.251749532254,26.2702494421939,61.3322484958453,106.647153031926,184.153198359928,130.225014884663,154.236814010753,229.634611910178,57.0522909742914,-6.20671220130116,15.1278317479342,26.8246197966009,111.314454218701,-42.1699619318465,138.323223276498,114.778978549858,75.1965555472332,206.32227823886,272.334377328777,153.230229743579,385.64276665094,285.308015738121,190.863973711847,165.617691395634,519.243616415261,227.1317734012,441.32770661887
343.733743309084,351.228073751472,388.411000385498,374.512082944307,302.411162015829,435.465519237952,441.084660772371,347.420615950823,510.572379763862,416.793447475004,404.800627027815,551.70944561156,559.116930507925,430.45820516745,525.832297478356,107.324350172759,41.6536660204661,158.419281309792,188.739223801088,-277.7648584601,192.836116445883,80.1564676038922,91.4403467277798,14.3862430684808,-68.1133556466999,355.996767542723,72.9140753318914,-42.3524186213275,293.820303048862,-289.473205265798,66.832212885608,231.825108066923,191.154204828551,-30.5337433416207,-76.1843176385707,159.186256031606,252.689935407082,265.676816392632,-5.98509813999744,93.9432186076678,180.67644480263,256.270776046376,158.331439625578,204.144633667225,282.870891114999,80.1157760701287,8.90463463956323,7.03534338102668,3.39419352635721,94.7107877915195,5.85522919742323,-17.795961847343,234.395718899026,158.135473305127,210.45453939573,146.324314953158,317.915551927738,230.521602506606,426.038799235019,290.27776925831,136.499034494171,348.973777119529,251.261421211066,262.465916745212
466.301280454304,484.929994908716,493.640414720439,532.981083595023,491.239491900228,527.329223816671,602.063783241014,555.207579190098,650.441390247925,646.483863935915,655.059047981249,658.069149031495,733.285036451237,700.135313603108,580.609047486688,119.717283081364,23.1434719492321,230.905139356357,308.843802917948,-276.567923415999,258.000458224636,-27.2910706644521,6.9162737240653,166.403562410143,-195.857112668742,289.476722351178,-28.3436258365409,-121.308563748643,281.715882008936,-304.81512667884,85.0182191636778,370.522418238319,324.637375476749,-19.6134043085324,-86.6773526293614,197.904261633954,351.129217311336,340.422309227142,0.655063838160929,121.009634901176,227.691252219971,326.155440341978,179.799632390451,245.091930504872,338.485495916804,136.558996094233,210.632743962958,21.9047179390379,77.210332653121,317.730750046402,56.3931176012286,108.956439541175,303.333247156486,211.811060833934,259.206906155451,241.251921647103,397.179192173136,231.49570794697,423.131833108866,345.788202264196,244.48419790599,314.331692354967,173.692264961191,231.435437404864
504.55102047725,537.814463230588,496.22495949758,578.982047351219,584.105636993548,500.564366368666,611.279843856702,630.875644420797,628.593765097895,711.449179603974,783.499280520151,620.040257429976,722.505804344921,819.326150389244,563.028504336026,-7.65008573031887,-16.1937169047949,-2.30410616701791,114.304103854627,-329.990726073475,-5.2106509935683,-159.862776259405,-247.38858367357,-95.5625436335738,-381.297871118745,-22.3635867192704,-222.754543070355,-298.621655164511,83.8388573435497,-311.162009655853,13.0318378520201,305.670179619027,273.999803329902,1.10610073514733,-81.3624377687479,154.141430880392,313.643674953993,320.096980105587,16.29276447911,110.405330661321,204.536002028334,310.907274895691,169.433198528062,233.468429353557,339.962152281732,236.797476657765,546.919979617756,151.349920906724,302.184368660021,759.824501894331,217.225674762379,543.753548704668,388.738282809684,362.261569100709,481.503976128036,574.619286861255,448.123485738976,488.659917419502,350.302788450551,383.925524381262,478.693580158529,597.662659558545,70.7173352498415,497.730585739018
444.894364847311,479.617128641198,405.393379979593,490.82813260881,521.267892369926,385.156440596074,485.17173935617,540.307215564721,474.821794516569,596.382135220191,718.835161859286,464.328930808406,549.894219083446,741.566503323658,375.202276446698,-165.670498575122,-70.3066525034016,-448.840217808493,-170.876613601084,-482.573914331671,-347.396075026706,-302.578675719359,-513.639650404135,-462.242677172984,-534.663323056181,-321.492771175338,-438.197672630784,-410.037826138511,-144.026929762865,-326.718674701603,-30.138982065054,127.064296242681,101.13816790841,-10.2622980407265,-73.7009592200731,83.9566498970439,180.529235085733,219.621582043166,12.0239266553808,66.4519189322631,127.870873784933,216.395139925387,121.777042884036,174.582564475396,276.081802974966,325.442550187862,833.381170600007,347.79116026404,570.50915388908,1146.70053428714,416.123740375525,956.324134570343,457.611286989868,540.638486484625,734.398677677292,956.756739399501,478.175660300497,803.714648652892,318.563408203402,377.476200377685,633.301909842142,975.139267516729,83.9334365367596,802.90819827027
277.480897511152,274.950799484967,228.169311812286,267.515753721435,266.385926786957,209.361445044404,260.539306998189,290.770533179694,244.192511542343,347.271633095969,451.913611447746,254.561142723751,300.129257705031,516.118812714688,92.4872212144476,-213.803732908175,-150.053592268313,-763.795056578294,-267.541897916628,-623.723633237893,-499.625604799006,-416.520132547691,-645.10349743214,-618.728000671611,-642.539788606516,-420.419461709297,-600.816338095666,-414.429723869875,-268.340215508392,-369.829426614463,-23.2160198106424,-20.6503489531093,-45.2126571157783,-76.3492898582297,-101.716493276336,17.4876801947534,47.0647401189908,94.8238083656056,-37.9308634086384,-3.94430993329854,30.2574478957112,93.1138318805645,36.2129785476986,85.8572187238501,168.514403324826,317.863198044588,866.800031593187,428.784958770367,661.053643724754,1158.90727339206,446.925302537222,1021.56782755752,384.035264525377,536.595008649789,778.172278838842,1105.70568726459,392.545263916344,886.751921088447,304.168585750501,251.216593499466,546.776352977653,1063.48432211533,180.124079223374,802.537519374201
65.4131966766139,-5.82920124543779,35.0364873031209,1.13095599005453,-92.9069729555063,39.4749691288954,31.8803946638867,-17.9751388628976,37.3953294349829,79.3239970412819,90.0974311411559,71.7128093948652,78.4151196302973,259.614448195068,-186.535544214606,-209.350632877513,-238.811346820077,-849.430173385755,-270.654268759243,-688.514791972208,-516.739132080975,-482.573210573521,-679.672662081699,-621.139437505402,-783.715856179299,-395.00769899249,-727.565377217544,-412.896649548528,-283.633013434968,-477.45330583434,-60.2707100824181,-81.7544504002023,-170.555555967489,-198.80719137364,-193.936343941338,-70.5273192796387,-72.433416294277,-55.6582782882405,-146.753547511981,-113.327463702848,-86.8120474081616,-53.6483215053315,-88.2554022401258,-42.0269551977577,23.0232543549599,183.967101206559,564.516336957468,276.690802258069,431.811024013383,737.816030674916,258.732764072453,710.510837488381,172.648203218023,308.662957382103,533.939469405886,866.110404636612,164.865208466072,642.818559144473,204.031302560921,53.938467068889,308.051977797629,719.865027063642,181.601166544469,504.726828076941
-77.8533586587643,-184.677970025639,-74.5081633680115,-147.070869809604,-324.211961128046,-51.2002133396162,-79.8819018819494,-199.042566361075,-53.8709476260678,-61.5866519186527,-146.434774509411,-34.678257380501,-38.2398930601795,106.891469402403,-438.068187081185,-299.274614370498,-320.180744244943,-873.546008671513,-408.697926688211,-736.256080171355,-584.136795466933,-536.082050720001,-725.96209964034,-653.871635278573,-965.396431473053,-421.90615731993,-832.742084057896,-454.507941525504,-276.556466355573,-614.068488565592,-170.411460481386,-109.812937440982,-326.39225239257,-330.001636730247,-311.925459267907,-178.907556939111,-193.898557279093,-215.142553692529,-271.018074277938,-236.285414176646,-204.698267010369,-204.082859782251,-211.13193928609,-175.833421101782,-124.543538674282,4.34209092768189,119.779807365999,12.1833686768626,26.1959306557122,184.578526965648,44.037559470651,250.84234293714,7.72411775026329,55.9875371127603,166.792906973674,399.027768471521,-66.9422303113954,259.379225353295,29.1598400828562,-70.6843458986379,127.694672629379,156.135657189556,48.157486455914,195.190965469195
-82.5217679533776,-126.63435689429,-61.4328332837782,-77.3535527783997,-228.199736378497,-36.5480957996885,-17.1817952972107,-100.902190444654,-7.83655983684301,16.9999273826648,-55.828430374092,-51.3048229758797,-8.58692016340855,158.3964326526,-571.662756568931,-444.980261673462,-399.81649409437,-855.685318055287,-597.937135668603,-756.237256309336,-675.303528743807,-595.713086152123,-745.651493320566,-667.478057295728,-1046.81568162792,-481.021911197612,-856.789204796924,-441.955830427451,-204.409903907702,-634.058807399811,-214.381432984627,-77.5707215295728,-392.737753128665,-375.995744450363,-335.136845453011,-197.11107032771,-220.17114006282,-251.820640279547,-307.199957190549,-261.464783887951,-222.646855338155,-238.36858818824,-228.841371984312,-193.968106960534,-153.572087029668,-59.473374168699,-107.261470140163,-94.6393574937251,-203.78126840256,-118.13582805083,16.3659788065444,-61.0383416678854,36.2476720346832,-17.0018481390432,-42.1707269077031,60.9089939883443,-137.581925018793,23.1444250506297,-81.872942224034,-80.8707129477257,100.734758815824,-247.422933674984,-62.2190804975253,82.5674426206438
43.048264154494,149.487565340307,50.6348563566512,176.788021244525,165.635859103568,72.4924333973797,189.418283785018,258.471688408176,149.673329791169,290.88564826794,358.68977101822,21.3052944682887,175.713022353615,408.265042318615,-422.318637473503,-442.25133882141,-430.116287003522,-616.583334437658,-562.267948637184,-585.809653072496,-582.454637916625,-596.2610951424,-572.566872304566,-445.403965848298,-892.834514668572,-329.566237518094,-773.274695268482,-255.634636453142,138.348572373184,-447.948465588896,-17.7552925579084,150.434408985628,-207.207695743254,-289.41559432035,-174.662143785845,-0.60515162915296,-26.429337311999,-53.2031479187402,-193.917100204133,-96.6949645075585,-47.8809894470959,-54.0760815612052,-72.7504310995327,-15.4495694189867,24.5053249034688,80.9488800717061,9.9685951787831,75.4831912383016,-93.0141773663055,-91.3953728125196,201.937748960613,-112.192381232438,225.297941405038,106.559552900527,22.9032644624996,-13.5555013091685,-16.6054916132161,18.6256324299587,-25.1586224172947,-40.2151340613404,176.293010530283,-268.842346626156,-23.3151265758737,165.554506529593
211.391681379595,470.849873665388,187.552388116776,459.979004601496,598.905964862408,203.874821985671,421.544405884754,659.040887592267,328.888368481179,595.337639195506,824.896698252958,108.685757740075,412.799841980049,693.633693229265,-44.3409995168136,-241.390924853783,-318.256624689616,-194.404591689398,-266.404610726358,-175.951064045054,-250.812804701964,-457.744899785842,-180.582424411484,41.789571051092,-540.06446669324,129.258116439803,-643.754316035364,64.4589068051819,728.087388315665,-164.35429515222,355.789103854591,513.781840491318,101.987333965439,-141.98664348749,73.7185046659573,315.786704382227,275.312013977738,240.937338259659,-14.4891664562625,157.805366426095,215.075581932836,224.390346134697,152.413915564474,234.960583941181,279.670637129667,304.997885059918,229.704038545219,339.832374126153,151.222135384899,46.4154071464973,440.778201039189,-60.2739635365386,420.140268358854,263.579555413938,179.466384817305,-49.6173050075056,157.665525001162,45.9799198926271,130.054947337349,-13.2765753282113,212.430528634748,-85.125025506629,100.656221490588,276.784054886272
288.748050380297,619.609175217336,233.778220512372,577.569022087905,792.947280429193,219.358518683471,505.921031119402,821.537622297772,364.639318541802,701.183745001792,1001.38890571399,59.7252358135623,484.465681031649,776.400329905419,204.408452534905,-61.2573559544695,-69.7651901712681,55.5262842967505,47.2426461411117,204.201287703689,73.7470819937855,-205.358605954857,177.35668419331,481.943117701042,-181.836246587957,576.877328818014,-516.398070713018,303.230637859808,1092.99895555348,13.5442572011622,561.829327615252,656.736769233189,176.024119887598,-54.8756331558085,180.310617440047,443.778634754009,364.099796015725,323.649551854521,64.6560109370399,256.868330328234,302.930229086219,311.831351955401,227.109066414839,311.046191954593,347.28913271417,411.508149946139,296.586552030791,446.883274648134,266.490145235583,123.712095319687,548.256434368915,-47.2130427034649,476.235755986515,287.064964148447,195.767731774831,-198.820399217346,208.584518482307,-58.6113158183552,194.00330026414,-30.6834020007853,83.8527192972737,-17.8873573584473,160.813244660063,243.11850351084
199.274971450997,501.119798271785,125.408282006347,440.797452229247,662.616526479392,58.5017399587957,346.510539627444,640.09652779016,165.93255957787,498.077018681505,772.160021217356,-169.82711479644,259.375924537366,533.932016675504,42.8783619052649,-109.065208795775,159.61332377298,-112.539341881739,170.959833150642,208.043487706313,92.6870556588633,33.509278055486,218.977499619481,517.477201697994,-8.18700790390651,595.603361046117,-376.83078878244,270.928370625621,808.974850538362,-15.9262830693491,337.260307508394,335.837293725451,-126.944662950173,-78.0574313657205,28.1151622184066,205.598033647238,89.4037079083555,74.2878799734759,-31.9771768354967,79.9205866033154,87.5584740329054,79.9470880615482,52.6664968086019,115.584850825571,124.84746031274,357.533554263916,207.343987692334,369.322340934786,227.903215912431,136.719609744671,490.454021633519,-19.4771615553314,377.850957740467,196.00127558461,76.200085573404,-282.311154376187,120.994839832595,-174.122906529183,97.1312768351665,-60.2568181037473,-124.471193323506,-76.2311302310121,118.970571665092,91.722751378294
-17.3335931485899,189.525950708926,-85.2411622716319,122.00580496757,312.322568646948,-177.563803465814,14.3400785652313,237.30929075212,-161.366649552384,85.0871551690164,286.98233467997,-431.353603913005,-158.538827858657,53.7095684234415,-408.099656236029,-351.304302836497,203.787246658851,-562.593622790677,39.7892690690776,-185.980421157326,-237.196017689875,166.627929080575,-57.1167705991885,115.709468512616,-44.3152802277009,143.586948960374,-213.777577255537,-18.6816656959272,47.278380750429,-178.062394864571,-185.714007047116,-253.881959239686,-573.42015978064,-168.544428955737,-263.440255129621,-238.972473233328,-354.48202839286,-329.485144045829,-222.440216869779,-243.982162801409,-284.580030918265,-314.891813506015,-252.323128538206,-215.082645344179,-243.182071173251,241.922648201835,51.9862014503175,245.475737493651,130.233081818298,69.5688532653064,368.073007934939,30.4600088849577,228.110211208349,130.39086898839,-19.9110805915548,-206.071710902551,15.7459040300833,-162.786821205663,-33.685475503533,-48.6435898143717,-185.482073213032,-102.346021566631,46.9937240758642,-36.7575746353399
-275.68772112821,-190.84812126458,-309.316950829352,-247.06434228493,-121.421819315364,-370.619200474414,-338.355949705531,-208.063919505439,-448.078735673172,-350.514587621653,-244.966149075499,-584.966334823815,-566.071168014652,-468.823967030254,-801.168957493299,-645.615615222017,61.4037197569279,-997.896245579383,-384.262945642888,-635.147008901153,-678.301430529868,240.195198867841,-427.876511774385,-468.651351041674,-154.018439226858,-463.884624387357,-60.0707442491963,-387.556142666783,-661.011196764854,-328.001805610094,-656.267713202757,-726.705647293854,-882.287449905188,-266.330521137578,-499.879226394201,-608.086830593297,-694.009043288651,-654.622333340727,-383.734157893613,-513.812255634463,-587.34933320545,-639.236693105322,-511.023013902743,-498.091148796237,-560.96480037153,117.445665864987,-161.216609554373,122.808339194251,-0.505167874228517,-142.383088161987,216.866532937665,-30.4439453565702,85.3843023572556,79.2291597893026,-38.7711122644345,-193.267723714389,-96.0873739430427,-128.838560567949,-123.236695909406,-54.3499996219763,-87.6351187182992,-132.411339822524,-49.7342338610761,-128.461535874425
-519.460882893494,-563.46155875436,-506.820008367006,-577.411177059184,-554.660074976397,-506.981345560523,-613.195535749484,-603.802982882499,-642.577859722434,-699.260228536114,-707.816268802816,-658.852209356878,-866.313113276279,-899.979806970845,-974.606672017239,-951.750486731884,-109.06958814985,-1283.37011201461,-1073.31272878393,-823.058953230711,-983.753693498936,358.916599176365,-733.598052861946,-989.029204519846,-225.092974571192,-938.33592634796,17.2898052078939,-669.634569490752,-1048.03846624628,-427.219046722944,-907.79888990521,-937.814504594161,-1009.76934677753,-364.474109665965,-628.38409189363,-801.282582297829,-857.908234822027,-829.566416754856,-488.337502782796,-668.628763007,-748.653251043753,-812.973144445921,-666.470580255781,-674.73724434843,-754.962922709559,-42.7597931116835,-443.450643106382,-79.1819304790756,-193.420215733284,-464.340149306969,-21.3540150767462,-233.946072226371,-84.5124825768278,-114.510590808165,-99.8188699576047,-381.136544784787,-306.492368651618,-218.790143171123,-256.376442951674,-207.743108229074,-90.0038890946516,-240.524997292099,-257.038488063093,-253.085563360425
-717.221518769464,-885.911963960885,-665.230895203059,-830.090167247973,-932.093828876719,-614.901281272583,-795.648557116927,-925.641515524247,-781.126979523167,-956.699243053842,-1075.09423201845,-734.371429451672,-1086.64850071302,-1226.86391504203,-1053.3326624111,-1317.18066297265,-197.785044327293,-1488.89660363775,-1802.06235524365,-823.29859066044,-1168.28428157864,479.815189438485,-1007.79088182897,-1359.17283137137,-316.61834517698,-1253.03586486836,-73.5220061770293,-857.540536812448,-1250.93643149139,-566.03298971486,-1058.71087425589,-1036.7121522399,-1081.49763279089,-495.83108984576,-740.878511201876,-920.834978053155,-951.299472788958,-923.087283547229,-594.089853553598,-784.361428678315,-850.517392794525,-909.917118818715,-775.551820872997,-792.025998757294,-868.31214951978,-240.704235116329,-753.345069939668,-378.033759891296,-448.476819094822,-753.216601432015,-309.876125822455,-456.255367113463,-271.804158429659,-431.561234482683,-307.242760475467,-619.783746270163,-564.179650272284,-417.191428565877,-462.76098745139,-486.283321592057,-336.158355676063,-355.283133143511,-558.897447477007,-412.957796753314
-840.580573785763,-1117.30737940758,-757.942134908388,-992.011925170993,-1207.94937717372,-687.507085645263,-901.978274465776,-1159.87708496201,-878.51077277131,-1146.91917132409,-1355.7354149915,-811.525447148767,-1268.74452840735,-1487.98921286978,-1159.14426147748,-1765.29378172793,-257.390123408807,-1728.89072233053,-2300.63760661042,-943.895562749739,-1424.07010906605,395.270833985809,-1346.96515815641,-1624.82779818512,-557.446809226472,-1534.21997853035,-370.572582244676,-1064.74865835755,-1464.59987755456,-798.502419360609,-1258.3565235859,-1197.09422980155,-1201.17942873742,-655.314158922323,-904.33879417388,-1074.31314667401,-1077.69348797932,-1018.97525400469,-729.41968757274,-924.168023620344,-971.773044864397,-1014.66453767119,-888.874540532642,-902.54445441195,-966.772751313159,-427.319047972324,-1025.91345661939,-659.648189998134,-705.584714351902,-916.518593226891,-539.611382495774,-605.54731832007,-429.03561605578,-648.812478009481,-568.50172703845,-757.737015481322,-723.431399713145,-612.612163481458,-647.626017077535,-690.665173386388,-640.771693750907,-440.54138397969,-780.514090740189,-578.694643496439
-857.738975800691,-1220.56891224203,-753.903447955358,-1059.34569129529,-1353.77999238516,-691.299006551845,-935.602697617854,-1294.01447223716,-914.258128073267,-1266.57129230851,-1550.49927617735,-842.467688119795,-1397.72067728776,-1687.32919528018,-1217.90265039643,-2256.66602867919,-338.158369651278,-2046.90221448969,-2554.77495964824,-1252.08692849493,-1812.59982965085,13.6051891000727,-1735.43486341783,-1853.9508360983,-937.536083575282,-1823.13744393445,-760.810803333324,-1330.45709231892,-1682.1266892353,-1031.02451581716,-1469.82061281457,-1419.00059146066,-1359.41004668116,-772.704006488192,-1060.88421095251,-1239.71701807916,-1236.8099361407,-1136.58084312896,-839.749718168305,-1054.04014968854,-1095.81059572611,-1134.23581553592,-987.211422862728,-1007.45334704605,-1067.50183664642,-560.456231415147,-1197.79926661425,-814.995306147989,-869.700083549604,-997.439697767405,-706.725200402856,-682.315606368943,-582.650336734802,-665.036141457937,-688.338184424563,-781.232966930334,-763.953359672136,-697.769788483933,-767.878562397444,-684.060028709321,-754.113564685372,-557.144860509951,-802.829838770528,-729.906825416243
-753.267825781139,-1185.24730399616,-653.281576835889,-1033.22082029593,-1365.88409598653,-608.834778218655,-895.535918589505,-1329.45146382346,-869.081234063713,-1295.14818162496,-1640.7367070942,-805.497456835713,-1425.5600945399,-1780.04208611449,-1156.57472810825,-2661.54388328388,-369.901044794547,-2384.86389358729,-2733.1491038662,-1534.50539984056,-2169.99251262416,-504.59596197711,-2054.81644865946,-2005.96740599999,-1321.21323446766,-2025.43599744263,-1081.88950186158,-1557.18153939788,-1766.93619184534,-1137.17104017187,-1552.13194304608,-1567.27686462155,-1457.59281344962,-800.919950226139,-1115.84424180054,-1319.52097935382,-1341.14034537688,-1222.21231007309,-864.549249892701,-1102.83634317943,-1154.29695007888,-1212.49691235275,-1020.93159019717,-1062.41808403022,-1126.40308201303,-632.248711591928,-1202.84835979743,-826.677437211682,-856.381159034403,-1043.29570620611,-823.996268105954,-672.471289244367,-740.229314666259,-580.367578981961,-586.323323339846,-687.079351303033,-722.49049691283,-619.531606058144,-844.336945588738,-506.862010874086,-647.638456532728,-676.820522924148,-685.867451773345,-797.883832342556
-556.556848048343,-1032.07474502648,-487.940285739577,-915.775383683857,-1251.84994077894,-455.847420993998,-786.310312341682,-1264.96096139103,-740.300563213226,-1215.76368646934,-1598.42534559556,-705.981605222103,-1320.68557531883,-1713.7458131307,-1076.58623718982,-2759.02694098297,-305.202697794295,-2558.16926291001,-2841.32265777939,-1666.2575523913,-2273.63608858297,-954.593940812669,-2182.09668644389,-1937.85674655224,-1596.15813556673,-2026.3588382463,-1274.25252146192,-1627.41450350493,-1628.05523647716,-1093.94985943519,-1432.08595455103,-1502.42879677643,-1391.29196134919,-766.818069866884,-1039.75787361325,-1240.84888798606,-1285.47723846515,-1182.36835786209,-805.038545303547,-1031.68094433139,-1087.10490570345,-1168.10027857606,-950.671656642854,-1005.93510392081,-1070.05211745259,-662.067606098912,-984.296144045933,-739.791756149752,-635.047396004874,-949.113562992228,-816.87045886972,-491.627032811611,-802.504982551947,-488.376760911123,-327.229783273376,-442.91765522673,-570.27285739551,-395.285480507643,-812.585357968265,-249.089609376313,-419.426470824839,-633.41479670853,-513.970949312325,-680.292287792886
-312.678355944056,-771.164001936874,-283.152635403653,-695.229372951179,-997.516653792017,-258.675279668167,-599.964236443136,-1062.38365446996,-542.926750927321,-1008.86849899389,-1383.93822199854,-546.580347856558,-1083.19066335159,-1461.31022299277,-1057.54170808881,-2414.60949589241,-207.387208608248,-2358.78360935501,-2693.76051840937,-1665.91511239432,-2034.37324515996,-1254.6886427093,-2026.05558825606,-1586.12631405328,-1688.18083184261,-1764.89389660949,-1321.21352518682,-1476.22572284034,-1277.49803300912,-931.747172208517,-1119.20885373664,-1179.01557467576,-1127.2384323615,-688.547627496423,-842.801954571985,-984.659399752285,-1023.88559994202,-956.394072166477,-673.602801469461,-828.140937833434,-862.369796285606,-944.617077407755,-750.92573057848,-795.566108259846,-852.174463365034,-689.332585345295,-552.650678582965,-651.84590270748,-282.43992342792,-591.455492558252,-728.240596397758,-121.899716841145,-743.311793858258,-414.107647884644,-43.0441940070599,-63.9333124755759,-344.825532938622,-82.0426908662293,-598.163401967633,37.8151640543685,-101.340245041757,-297.81072817337,-290.856280399482,-351.157392784675
-61.0243382802673,-426.186913454659,-73.0179495905902,-394.962321558478,-621.287494660489,-60.3021482603188,-358.09146528587,-720.891751846851,-327.628062618983,-699.057161145505,-1004.55920207886,-347.189677618275,-769.500996240088,-1064.47231568011,-1007.28928610839,-1795.77684431246,-126.122515899315,-1825.01449721762,-2220.15693974662,-1491.65451368218,-1583.51275667118,-1379.3272177459,-1615.96605902899,-1102.01632429348,-1554.44406711426,-1290.9465930797,-1187.82070024284,-1124.25531409408,-821.267502000633,-680.607401203591,-688.28627341174,-707.021006112431,-739.5805418727,-546.771622606191,-557.792950887179,-614.867626210833,-633.885566591119,-604.729398991059,-471.652930712954,-525.804330621748,-524.261623315352,-592.27910884292,-451.385477952199,-470.255186017531,-516.438215301509,-719.728183436938,-5.84735015661831,-632.812889014412,48.7381897030813,-63.4602433265325,-742.101211104308,249.47613771308,-694.701195771411,-373.918810082009,119.317716184082,361.208083553251,-201.557089232453,244.06321349479,-319.082155068965,303.244647012786,273.97605381022,251.048975138818,-33.0709488203725,78.4674557122799
129.284350599852,-119.529457452873,67.6147462058492,-136.252480590718,-273.41792355313,66.5040274845516,-160.614074275823,-385.074145764691,-175.948277851407,-409.453201825273,-601.258793464107,-171.557567845793,-494.270636967618,-664.187298872657,-843.687456858508,-1233.0701397776,-26.9093055572078,-1246.37711111376,-1598.89968968522,-1077.21707032412,-1136.64210150735,-1256.84974076424,-1126.25273027452,-697.299910400234,-1229.05086968893,-763.054013361135,-900.784845030416,-682.142322198712,-393.839606043854,-397.935763753994,-276.602221754095,-282.79271379872,-369.284146485649,-357.844372857231,-264.806498431378,-265.266677979193,-273.258254594834,-282.291691495721,-246.71489746443,-224.879614082892,-199.36156482047,-258.717629262212,-155.16831742177,-151.38164450195,-189.833488229121,-669.454541237375,540.939871292041,-574.382478987251,278.161825323902,433.319276549349,-834.26659367894,408.882026965843,-706.442476232555,-350.947058046214,140.373453101802,716.803223356637,-189.1542388927,504.293494303624,-167.395495563463,483.668406440967,578.558440292675,754.816230897089,191.777703436233,435.391830600267
203.737147249568,19.8137927500057,103.947008456554,-28.3222770816088,-122.538854543314,95.2630631051105,-80.9340951853202,-213.744677977863,-115.325158097261,-246.483685977037,-339.734000564264,-66.9091773378471,-318.532746757025,-387.608718561762,-621.817752821724,-831.360385155185,112.900058826775,-775.314430051127,-1036.43647785156,-495.823883270336,-729.675434093464,-834.364297606319,-643.568643095231,-379.75665211316,-770.991277156052,-277.994655679801,-541.643128999399,-230.451018341251,-25.3013071903117,-129.909272454812,29.4967124031354,-1.61474520247863,-124.296394001135,-170.27247073649,-32.292219067962,-16.9116975582115,-38.6447633941459,-90.1519160819854,-64.3612839622774,-8.08372416662464,18.0167059133615,-52.1587297888506,50.364714862635,65.1837214574015,21.0695112156532,-493.885755002181,937.357351085506,-346.571161710129,407.472141944672,804.141737469458,-785.134199783718,391.396703917151,-666.208291391838,-297.220772153806,183.158799600838,904.270799058624,-176.516517860999,660.744539308244,-134.832300761933,534.692120705102,714.746746724688,1006.40580821757,341.88296115995,621.420281200662
210.837266628653,37.4373905144341,106.637220857528,-20.2871842298709,-123.058283831203,92.1520869770918,-60.3717771071802,-166.698760935033,-73.0408914562296,-164.117030481352,-201.966672002505,-8.90117099475444,-176.161798751197,-208.32367017069,-455.509556996842,-437.006048671936,201.025788448566,-310.265343133262,-551.781836631479,20.6598045290742,-264.850500302568,-258.317457209038,-100.716583273081,-53.4681938103245,-222.057019217527,187.334529845877,-169.231931623226,235.776250966153,332.372172521239,114.609463111404,263.637494478708,175.37178297104,-34.8732705576269,-9.71841580928281,140.570781855872,149.134209301887,73.3250914438834,-21.5552665484615,62.7350097505353,124.862183574429,133.754405892711,22.6708816149351,159.004905189606,167.579897502944,97.6127876658283,-319.302343757541,999.506633575821,-81.4345916175651,423.145574204772,991.763756399574,-583.251061659796,407.906519787236,-543.437576931356,-182.283467042522,348.800493316846,925.101163894527,-66.6856651328807,741.618456624752,-65.8170542990806,497.881402506376,729.586068314755,1021.75432371451,450.17047169982,662.198537307697
240.180114402543,87.7789300322275,149.416682340073,14.546938177907,-66.0519531886462,120.227580577343,-5.30081130289191,-91.11031437085,18.174611801841,-61.7263713887783,-39.7310350350816,41.6022885255577,8.52643457482712,-22.4140385429862,-422.743277472091,13.2297464977256,66.4624075339716,169.375463861987,-73.1401451257762,226.66573827127,207.414638327208,153.127317976309,438.769952683788,204.118047955639,302.43515231265,597.554411345023,143.416100220984,668.815069959207,633.906652036517,299.633206733776,467.680170941399,276.55959524247,-71.0802154918679,110.071570082991,270.37886321211,254.811902795972,90.366298452013,-36.2047696535041,147.655033507153,202.394317328637,183.479196143163,6.64429996151026,203.685883622585,182.681132929043,76.4176124577505,-240.670287781121,766.147746395474,33.8046189920517,363.474082414717,950.454204350729,-381.664280815313,561.744314763674,-417.294863100526,2.75681370371231,522.064932164789,948.861430574961,118.169037093929,816.226729021604,115.879425411748,513.701301804885,737.001953977638,951.400756209613,585.63669537435,651.482301267051
302.82474955923,230.258920346163,219.082345034315,115.926278575007,148.960206656321,173.640642088633,94.1105076900677,63.0560923825623,134.307985807752,76.8566447237327,198.81535884083,89.9707687689353,217.083058245002,199.934224026583,-472.389803634068,403.925720208845,-349.696708960394,529.730959154683,401.304512397008,133.126358885569,540.483627252216,239.480754657661,774.115969617114,252.500597215527,629.510023827765,827.133572762787,298.031122781375,937.054713580985,759.478860097614,381.171213560829,616.384667209723,286.02524401283,-147.637853543167,182.783606033317,352.046549790674,292.683641458498,50.8738711211741,-84.5117261719786,197.681062871945,241.650695739837,190.798018520724,-42.3641947858411,216.977857298748,156.044849640637,21.4411555014079,-171.120485711368,542.984454494919,51.9740890648911,312.004085122144,792.970563967212,-202.337608919738,741.067832923916,-288.689223600635,193.186959365685,535.629405081246,1104.07433048755,311.262129418497,899.769740225811,352.153298045974,610.470402513035,764.078012971985,900.161226474026,723.261702241642,675.932646284834
347.236336147312,398.47281875204,273.067647589384,240.772127873897,425.763949614589,225.998476054289,196.985781963861,242.090860217471,224.95292042753,218.541013688336,431.806954726067,136.903643809873,392.190176074744,414.546446238095,-445.171531904033,683.130813203613,-854.792121009633,752.252735879578,829.864276974467,76.0471429063701,735.859959524119,157.320952723154,883.579010120579,154.452228919702,713.969804553808,845.662157182845,300.254967487244,1001.49983608847,701.53802224697,401.628859027617,688.594561083292,236.381661548815,-172.125885987627,239.801826616787,400.854777011377,290.993732727022,20.3198768428239,-102.242383797181,240.161587195762,272.564399665033,194.897636817879,-59.9072101107584,233.445652604835,148.03750002177,4.19635065678315,-68.0391314198244,487.797343807964,74.6089190725264,237.871062476301,651.5626584329,-34.5720316884468,733.638527998736,-126.998974371815,259.823289221913,346.436289825002,1201.28214504731,403.975614794537,866.31797061063,505.020008491238,589.020560013557,695.003238344405,852.231526397941,697.721572862439,703.951091145496
339.783654668343,501.629835918518,295.890525301931,336.905298450615,610.35671230111,258.860113036051,273.203458031693,388.964603177337,277.10663894696,334.824742351868,573.200892606337,178.048423374037,493.140002354155,566.519988908515,-293.039201926687,885.668084518392,-1139.00213852061,914.06033946906,1178.39463149421,286.137785435685,888.806065550525,91.3480660521855,914.124354751392,143.536919002991,674.055950584766,792.204072787208,286.359251042178,972.498874522353,612.310226276828,443.599524494094,716.40009294366,214.600396519932,-134.607192743978,312.594020029318,449.432863187861,307.017003385204,37.4659219162337,-70.1624933076597,299.309929789872,317.575191337922,225.486019951018,-30.8050127891289,268.051152859369,175.766086667304,36.7369825346245,-22.1175639131193,422.305772350658,83.6381177852718,80.6924202150466,416.276504967166,64.708326954879,424.701761915034,17.8673851637579,210.450790144536,74.4585982946617,916.504775631009,337.647433709229,566.336062191607,465.48203622608,346.135886440778,419.536949832741,686.824557409417,417.430024174065,531.708528084721
280.857121754995,492.070227299306,276.190598172933,365.001281561951,630.707155409212,245.324461646827,302.143157096184,462.619782785857,288.664857992367,392.831756871894,597.297210583006,175.256371788458,492.858882671224,617.29560945197,-171.288629285641,972.241909726797,-1054.34325051695,970.641166962386,1409.49954872374,557.904016875247,1010.72536935121,28.9557009050249,947.264322889368,398.865546352261,639.169678352655,834.566589695021,345.9435256795,952.455167836817,631.688620477194,505.849090810445,730.674850387405,267.37934756766,-89.8147591857903,367.368153465816,486.813336311817,347.193528039813,77.7438094427208,-39.9278354873318,344.187145378957,347.730413489579,255.004868078207,-5.86823208168804,286.364749845311,188.285880385207,52.2950787911131,-60.4074431068787,177.143271269165,69.4230949142839,-82.5340579344244,-26.3964727468304,110.675868929613,-38.354040233788,81.2746309943697,189.338031416715,-106.210832568874,269.872365885537,222.70737347487,70.6732968613624,279.734485729438,76.7591587018148,15.5969553167041,300.902393270969,47.3978048063955,18.7766097043588
171.023757211353,366.389329462448,186.129959185706,297.729520955886,506.545126431271,154.658017827157,255.68785767042,424.426581130568,236.416157115023,363.546972383599,499.264830137766,91.9277281453283,390.361266899933,553.082498931653,-188.342171577446,917.363151724641,-702.348334575333,868.570011655063,1468.48458759373,648.439203343622,1047.43389549789,-48.8865596157552,998.614298337224,835.278563389815,651.677854077047,971.682126384134,412.149321766381,918.229456253048,706.02628168345,520.41359552437,699.814654010943,343.277173831789,-67.2370728418008,341.919611823293,461.168215158543,351.995281028384,89.2683922810099,-72.9284573604851,319.058215667798,311.060532983706,225.255098583305,-44.3610210827075,231.747705971539,127.239693379715,-20.1280563199414,-104.48855994859,-132.781466817875,52.9826350485098,-166.20714308598,-455.67023140914,148.241296271476,-343.285840393203,40.059284009637,191.062681555771,-166.631885087017,-311.857733413842,155.161672684025,-346.653006390979,85.0740678851743,-59.8317486511264,-315.797785881847,-214.777040863582,-187.44425231897,-628.451679528811
1.79087100884314,142.381019534439,8.57405742843237,125.0464006807,278.398819119045,-20.4026153572255,107.046970369097,254.068538861376,87.4691213545905,230.521278613275,274.880273495035,-59.0413576814541,208.840760314009,376.115490248512,-206.568078689542,817.725138070433,-281.80210624449,730.068837363885,1285.31462745987,689.536270929978,990.106982211298,-51.0778746199498,1061.63586496162,1114.39244706565,649.428900304227,1039.40092756632,368.893765693567,788.293895277937,670.850601258759,460.877271945163,570.06131221014,342.030226292052,-65.4930563082188,234.184851270718,355.932368016632,271.482831877676,34.3543599589453,-180.168918200526,215.60311271201,197.379219508148,113.701817250333,-155.121187305057,92.5968967567634,-16.2560710023201,-184.121911943483,-103.640283510153,-320.305918640804,17.42882992078,-221.328407698167,-638.297125327322,128.934807166003,-382.199272854829,-89.3575069132243,72.7452302735475,-225.909138279336,-517.266315074511,42.4333691952751,-514.113194777482,-58.7723781529856,-167.304702837438,-450.511524974437,-609.106122848873,-273.40279370076,-1007.22141112342
-203.419555587403,-128.491330275047,-217.685361301002,-118.981237108236,-4.82567106763532,-239.505256006765,-126.333997421341,-10.8042834108203,-149.685340708474,-0.981089569687379,-31.691998343177,-233.767588467025,-30.0638735152906,106.167415400468,-81.9279560785968,710.697229442493,39.3210801632439,657.730745848883,862.286289306902,840.446603139779,896.023174030071,23.7823618762426,1051.56680729299,1022.55796435345,541.220460604352,964.060349534054,214.822419639861,574.851193457943,511.321395773522,375.439741954476,379.933461834372,229.106334671342,-88.5711390674455,109.585270829746,232.46021645912,136.146534559081,-77.1354162484348,-306.896009574072,91.6909502309131,59.4812667354628,-32.6236332382843,-282.530959267042,-65.7891466273993,-186.404563296099,-361.167732846193,-82.5870447875397,-391.679694222434,-35.9107143953407,-305.9434738987,-693.382852825734,14.610525426505,-353.656563720318,-245.178665147364,-134.361604724381,-343.305146971819,-484.844748491395,-174.281218747903,-497.243325915212,-157.768702584136,-344.731633423391,-403.264009561289,-714.450534472695,-314.650230983095,-928.535814584465
-379.241900824916,-357.946853657222,-408.199100986066,-352.708903850916,-268.620154478748,-427.076518019864,-365.771911497485,-278.722668883531,-391.408438125691,-277.650066166392,-333.301654110949,-384.271935707687,-289.754374547607,-207.969392726188,68.1560365882221,526.421709321733,175.048986270118,574.337951236086,388.454803746804,930.385175533573,829.616154601192,81.1124593937822,907.678278296113,783.101187939885,392.820261643051,872.935961138112,99.5384706946465,425.868436899688,388.598412841976,335.231790751724,266.29671970317,88.0836819832692,-126.80668027195,32.0968451582549,178.107853771532,39.0632056393672,-173.405341451041,-372.668903222485,21.468821626443,-24.9916601339217,-127.676548709586,-350.599747866901,-153.576833946295,-289.595719182868,-448.752554178179,-91.3717002986143,-449.756943834783,-63.2264551035731,-375.497156143106,-782.327643087975,-147.162569613259,-443.278188678021,-384.931230675331,-243.976651387057,-455.182325952339,-472.619784587578,-349.263155198293,-425.672629790096,-201.17094407912,-484.762925886633,-278.214612766481,-577.6896485281,-316.666331749177,-573.380695148243
-470.591543302289,-483.201637223441,-496.102210407988,-497.905416558819,-448.235728642442,-512.721222707469,-516.109491065049,-463.800554910209,-527.149784995838,-501.451002964242,-561.60941887588,-452.935700075386,-482.103839195418,-481.665035278261,87.2171346201906,336.437295120921,197.651292163965,475.329829218968,150.036275269276,829.757750575685,807.522361566254,178.107715496955,763.029473362917,767.83202939839,432.387798706328,881.67323376929,181.917117489295,477.706339801764,411.353924601753,377.612817816006,306.043931248617,44.1506171621213,-123.201342210162,19.3420769110137,215.665927438083,43.9829256767856,-175.50085403238,-338.73316304213,26.6827681503515,-19.4471367786763,-121.677206506056,-324.545376258976,-142.659891173844,-275.077350947193,-415.771567741033,-159.607722333158,-543.17653441419,-79.7782383453625,-409.838514649101,-841.552866013869,-317.325384884462,-625.963116616266,-540.054899056834,-229.178923303617,-513.674904379203,-532.986703139592,-368.412789382252,-376.182143163465,-194.772607928972,-466.951358067568,-212.957916316991,-401.666010408923,-235.377358675272,-316.439863071012
-459.779878361932,-497.385995036993,-463.558745102136,-512.531552218234,-504.282190916249,-464.071036639844,-516.441574811716,-511.054896800428,-498.316698021479,-569.628736112632,-658.030844612681,-393.497957944943,-501.448996727834,-594.55720699448,66.371541976025,337.8280430327,255.148431678406,559.767849820453,236.01107107077,784.726431904617,797.848911896104,460.763054494571,821.666664072715,988.484601746368,743.716437524988,937.731034998973,450.851163756746,671.164792669278,535.335949449988,482.676436452317,416.137227973805,145.590570881188,-9.64668846527871,62.8087697792741,289.001571111824,128.266650033304,-70.2990161345884,-224.679282559212,75.4742065773282,48.2387626263135,-35.6275087200503,-220.935665734883,-74.1593080145354,-179.115729537257,-314.999252636435,-258.3213715104,-677.024434286247,-153.016593359889,-472.569632373968,-832.804143913408,-448.132168491969,-780.146390223824,-686.052631569019,-228.551723960943,-550.960685099269,-632.984747286677,-303.566456926114,-406.546247567562,-178.864072641974,-341.334981879724,-275.504645321686,-396.890707178674,-126.64019569739,-390.807051798783
-370.928511981035,-420.293791592946,-349.760090864855,-407.649220571107,-424.711602608128,-324.138571433708,-385.783737241261,-411.976980234324,-343.618051527816,-454.40598351543,-579.384301815293,-235.367532495021,-342.903909785664,-488.631940638119,164.065056271404,512.801873695995,355.77598608211,931.720610736543,415.593997322129,1037.53254808108,815.660514592035,834.706165375762,1076.35510565342,1163.98036362043,1093.14382305961,935.645810533776,726.033974814713,791.63567185755,653.12955141807,585.50881149605,466.288664682931,317.866050352085,202.560167176081,147.267246555117,340.52883764109,224.331028163818,86.7535075163442,-73.6874712903241,138.008873028624,131.062019462533,75.8601800864386,-78.1145190078117,9.18722569150106,-67.2359765366669,-202.264393096225,-305.654283907359,-801.065733903854,-268.837860825948,-579.079543948819,-864.390011180905,-443.601515149329,-861.313172502546,-680.917513059609,-291.212343721906,-619.803980258144,-774.948914540279,-242.696980682801,-524.071917684858,-187.437099368757,-242.487813586009,-381.366760711409,-571.694458952225,-122.399734279445,-626.455668505725
-268.499309789974,-286.131943510373,-236.37571580575,-255.483706792485,-248.528833111789,-198.043981867288,-222.348355572665,-229.894523989995,-175.843291419797,-252.590885306588,-368.558722537309,-86.0329501103615,-142.992032920377,-272.257239839136,352.914745975336,608.3734809596,426.204962154877,1391.46091760727,456.220556548862,1437.10100435181,963.97733060628,999.84188665624,1307.60361878123,1213.83996142133,1209.45238018021,860.484746642841,835.16496326119,723.795624263015,678.79654783488,628.260364442074,431.755855868697,438.197199017651,415.242376590975,235.164586669171,364.460176975365,290.268159499882,228.697826710656,82.95378972267,201.212171747827,205.963206764872,173.855513257129,72.324732207113,95.7122815525413,33.3861866398925,-82.7937322032066,-268.365633857205,-808.988157559589,-343.010316006266,-644.804732877768,-936.052802530423,-318.37677642951,-915.805746457976,-491.84987421853,-358.856115801113,-731.147449988743,-936.110345702067,-207.858998776544,-647.69374029349,-246.217633421635,-260.074369032265,-422.211947974336,-696.633336728722,-295.834876412627,-652.137499905361
-198.677758755461,-140.157362036992,-169.274713665817,-124.759705640663,-45.8744381343723,-142.146106053007,-102.00946972866,-44.6719106056726,-73.7870917160782,-80.537073801101,-123.675287624335,-15.6841007508219,-21.7700968731589,-90.7388767130667,507.486132170088,516.180693922264,496.517412537911,1621.44874051928,459.468900257271,1641.13816302487,1252.87046377142,849.227986316424,1326.07768474801,1310.54955461729,1089.94270998814,773.338039174754,754.617621316737,556.915936577652,583.796211193099,601.257546572244,371.220043176183,447.557039706359,543.412027578093,276.947871868019,368.881941562053,317.374261260453,318.862261096477,225.367451903177,242.644267153214,258.730206333223,241.231202250436,206.10101950633,172.79307447564,120.909047937244,50.3970987303847,-213.339883224798,-665.667649413596,-356.498739874515,-601.209937507443,-861.664165654438,-233.427248094307,-940.560793332538,-293.463845799954,-418.978293283926,-832.518306772466,-1056.34481718847,-226.650356708923,-711.643593502929,-363.62623276604,-416.151432691154,-460.881883692157,-584.917025060918,-589.859871547512,-406.801654935599
-141.302651204184,-16.6967615587666,-114.777065817701,-17.6762145756664,129.551483316718,-103.660435906951,-7.58799312129526,123.206502276868,-8.22359319794932,55.1133424988454,107.558023355945,23.3166904139867,56.7511581201033,61.2282620195974,583.997379025011,415.981802044533,584.651864257338,1510.95764853701,660.57924910493,1458.02040700728,1485.919341112,579.862114769391,1128.22308640108,1483.62891226246,904.124104755027,744.83884755397,606.67238936428,444.384720188217,427.376607024472,547.869703919965,342.27903080739,396.8793226577,605.594915823617,271.097749370133,357.811834749011,322.954903982857,372.679087176711,350.814293218694,251.765139838253,286.804230560173,284.229541463648,316.078356019263,229.275901445996,197.339645354135,184.744368372392,-201.553832530952,-480.711626623561,-368.107094830754,-521.079412713595,-577.191169007169,-279.680382064824,-912.469681906733,-229.854160690074,-503.178902205747,-888.768163478615,-1098.96627403257,-292.864053183055,-758.731203079222,-479.229916431991,-637.055925495693,-628.119656765599,-333.520789891561,-834.302208198427,-173.76208978954
-39.6404383280807,105.179178572761,-14.7468891220506,114.770259473105,290.586071747853,-3.59595165276321,121.050323020981,314.089297265586,103.023157082601,229.292352918889,355.316667501019,121.573931374683,204.807009295821,288.168781749344,661.587065875618,515.517710417999,580.441014251908,1295.28237427742,1051.80429634682,975.690364940639,1450.85443357646,390.281613717896,884.632597534048,1566.71966875532,784.241489307742,827.360221806102,577.402021725024,495.667551802578,386.508560477804,571.305494738074,425.063878085479,439.261179368678,731.71704911417,300.864653393433,400.740083257185,394.032579953146,488.01013832021,526.22649702735,292.999097288609,362.001690303554,380.026776416154,474.709192235247,323.303777647109,319.532025348086,356.180814378162,-172.515342250236,-335.084270024482,-363.956063346213,-506.273957431603,-259.95464404395,-357.881811739429,-874.513693613834,-234.059498295858,-562.523550392713,-895.38606503153,-1040.97237121285,-287.231463161655,-815.332819134826,-447.995794134501,-722.142537377299,-842.583286501349,-212.274687527532,-809.909154208631,-116.531486157091
137.393453647348,290.837656432863,146.825392100925,312.670996998724,509.27400014698,165.122019973494,304.650982635996,565.413627527421,289.798818486495,480.967680402456,658.175719405584,301.422416935387,455.92703522832,619.517498102701,851.92553865483,842.810790927449,454.334916020983,1293.5170264662,1430.93949453888,552.532180558457,1157.08159612005,320.545032080787,783.750176993777,1448.20766465827,803.86850920698,1000.23858721913,793.587487401295,731.382143105656,609.758939400105,760.000100300265,673.714029162871,674.163802068762,992.078758787521,455.034682234214,587.126364691015,612.898390149177,737.455453765187,801.645904036598,451.740345928472,566.836439898751,607.85437148791,752.050820009258,528.173782974972,551.996107859654,618.440599446856,3.35500968522849,-117.606736821823,-185.105820147402,-405.740448492112,-5.4077651535586,-269.440429757998,-710.069484141799,-114.768789091164,-437.972253369424,-712.44835644281,-792.008867884722,-74.7748021870385,-731.238064245479,-143.971805930088,-486.560930939926,-826.131781039815,-316.468826182312,-419.083289594619,-117.354747019523
321.012553167,498.963525473832,305.843977457996,509.661683968785,743.403253376103,323.059450551757,466.805044237952,793.774152779992,471.4059355993,716.545307350154,929.232859427756,493.884697773219,703.41566150216,923.417352859519,1123.0767057902,1271.63407064093,360.679832755774,1488.89469678928,1680.46032577891,529.299324033227,864.148909962753,372.90150748039,846.933176835053,1139.85519976772,963.74925308083,1130.47610612259,1187.89438134494,1011.04075649583,910.530367059932,1021.06290783906,942.11582117158,913.512827477988,1203.55232591273,680.887281359907,827.315618330661,852.918531439804,964.873523396038,1018.19204444128,662.55432010118,799.120879687132,846.484573325084,995.41844921408,746.632989655441,782.842541472977,851.29198049007,312.981041685705,243.628301401314,226.616517941004,3.6907229405368,255.422889283115,65.4937374676222,-234.702516656611,206.616228268224,-53.2053182428443,-239.619583459309,-354.39185895488,286.443049372305,-429.348620041072,336.406135828072,-1.99841298951411,-484.598319801333,-424.305363102625,122.563587047025,-77.8112085856938
361.636829593358,535.47449898808,352.478126803474,539.78503916839,766.62754618999,372.083513748745,480.203263815613,806.475064020961,520.311605539509,759.403529574593,959.256445632103,595.522588491353,781.860950013461,999.672331003909,1265.45533214591,1613.49223727402,400.773794200984,1588.46601405285,1849.39703989286,827.474980295598,827.66169937102,537.841356500455,951.44542727663,834.996663358068,1155.10677298463,1080.82579595508,1525.34818846745,1115.6888436433,902.409775885008,1122.64747748039,977.753328592217,864.801001256704,1153.99349753372,805.323309828025,895.711749250257,872.360069664302,938.388598191842,968.50865947851,740.00567599677,842.038481114529,864.570284209174,970.05240461141,775.788675958935,803.350079547005,844.344355592629,535.076515743863,520.943572449176,606.311986469353,498.743167861148,432.457897904862,451.071787350932,241.046155839782,556.047503536685,394.144952614381,194.056609638979,-73.5915208701267,556.791639646872,-206.750968265423,672.297977820426,408.400746570197,-118.22681354432,-339.999589945479,424.198663463129,-74.7486050321792
210.899830126415,312.44925206129,255.903896335844,346.679857718787,471.75520789492,289.748540492403,320.242789807888,544.316140395712,404.218730821245,555.98723691841,674.361179847741,554.297293646724,636.673904207622,793.493117747412,1123.86167927077,1703.92016695712,502.66372735903,1465.32037804372,1968.8274515316,1071.95956688169,961.408106168122,738.176584016417,995.818584581788,791.561728741372,1260.2922972118,842.831718802379,1634.046723619,972.55745341499,565.409575361431,984.09613254947,756.084125357558,587.663535394164,952.815650699569,756.517892383408,744.785153025359,671.423129460506,724.048561119117,744.802727614285,642.580371899564,679.59895477508,671.720767874939,745.015675692199,612.040122450053,628.185056018595,639.241300385574,510.783321697763,480.93478581595,660.116338564215,616.377930841858,350.652333935737,606.60096020204,202.462591734322,690.599063660316,604.999252379749,203.67021250116,-222.197881042081,594.357862151541,-302.490486868337,665.694269268316,459.374595253859,-44.6250474493948,-194.269645344016,344.276699449831,-165.082858630035
-20.1973958430243,-8.30464636118989,78.6559540674544,63.8481406389942,67.4202546156794,116.921440802032,79.6373901788431,176.934312431864,191.007470519231,230.023377571735,256.086270886202,393.727219577315,360.053544465863,437.703218256554,773.505726767322,1484.97194433283,563.640956414059,1219.6142864319,1886.23038299258,1073.4753918523,930.708238883146,889.225991924809,944.386635417182,879.006264137165,1244.39299850464,509.48204827955,1522.20890427529,683.740389650546,236.172529596388,740.442253731345,468.842884062815,375.672609025828,805.764037450257,622.003058231184,534.493853021851,456.711511088301,551.888280531097,576.790613046101,498.447555151433,482.101931095173,472.351637562521,563.210764931646,429.29362642833,444.214137839628,455.881633650524,317.129725962163,216.026820426889,421.026209417487,303.507179659196,118.377373175095,481.623618979787,-201.286964333302,564.708893614028,483.894751681029,-70.8843002147165,-461.294877453703,443.202271534341,-472.606388588945,419.772373804476,128.788942939685,-214.237362964572,-214.963698752622,84.64913523688,-305.08724892686
-224.880727152091,-240.300595089939,-125.273507524664,-166.040619894378,-194.125236996253,-99.7565694535519,-151.593086419272,-102.698231434386,-43.2635672352255,-65.8835481222117,-67.5191612287963,183.573494728812,81.6521137768814,101.581312686047,423.694698252744,1062.0435481254,534.955671984541,915.526102330648,1461.01256461548,912.215414843911,651.391545765039,934.986396073775,806.531803798257,731.876483805709,1116.67805676968,223.057615499291,1261.5784180917,392.310170125059,72.5260432147439,515.210018562926,235.77126126182,289.596013381308,668.333109947489,472.785201242114,365.311920840959,304.403429719719,431.674278073926,460.69130367378,370.191078514565,321.923972798923,326.90657604335,442.74439835392,286.462763605916,296.823954834764,331.07765947404,88.9140204336646,-100.872266030825,107.294601699129,-155.637132789746,-49.3490642656126,247.593279287193,-465.019676215328,320.124823721308,154.11763501681,-329.806267876295,-368.027715460837,167.131360774068,-466.93989721644,113.622116355649,-344.673857292657,-414.893329667015,-398.829916837902,-135.382680795211,-478.483275544518
-345.481335214423,-326.221505839778,-286.002886983965,-272.388203006676,-257.809252324321,-267.717189651221,-288.303882139708,-209.591952654975,-207.068903090874,-213.537707246544,-183.020957438055,26.3227362468052,-81.9956065492482,-76.346260224025,230.662402698741,652.550849731455,420.867501606485,582.300203215865,841.836468047181,693.364607071858,402.913021431689,833.496729999371,642.628478871608,435.264388787873,900.553110824943,126.9300266504,911.395189990679,202.108010075963,8.19456443578041,330.601972345387,74.8879246744073,225.79924480433,466.614930394307,316.703120836603,229.245175534741,172.632607692206,276.354156162494,299.370594220009,235.238746613292,176.614073168086,182.610350019752,286.568133548274,143.73656450447,136.864642714143,183.497599755131,-87.9958779101921,-427.786132319176,-110.207706556769,-544.890138582082,-165.962115386112,95.2062712580347,-539.948582268439,133.323909915455,-170.032169374623,-537.620803912974,-96.7640447314153,-147.043118879659,-359.219468235233,-139.585911769016,-628.970864284887,-515.960456139975,-475.745656902376,-235.578091117963,-618.17620811491
-313.525940359564,-264.411315607618,-299.167867691572,-218.168370352752,-182.584490409592,-281.64955298871,-253.261324592454,-151.016542355903,-219.469060828306,-158.444829241469,-95.5497381330823,-12.5064998916836,-70.709968905018,-32.0657927453802,187.025437972017,395.411969115814,280.632145403669,310.760567857471,331.731701193798,452.484926291606,365.141547223379,630.277730512026,493.889463924019,355.602262000273,656.843261361949,200.52599304743,553.364696191858,110.80344488833,17.7217755241659,180.391475949036,0.295939173014305,191.636129890371,318.308486858351,184.417734869639,130.145888249559,88.1563449406722,157.761162108407,165.920964830684,126.074556960215,79.7153461374977,80.5458122840203,155.687459865444,44.2184272389514,23.2208034623635,67.9085600908208,-112.367280647273,-624.168147668052,-119.29179142769,-677.955365380267,-252.053404049743,127.448138043735,-537.113467073533,125.098419242308,-292.767741650249,-603.922336806264,70.6865993342448,-327.186580901056,-167.106353415719,-255.865767516208,-587.083936503758,-405.804185787256,-175.147019350288,-212.513325480483,-507.579117463285
-131.78103515092,-95.6333266332423,-160.472545666122,-52.5075800468209,-48.5518840674591,-158.996272125184,-84.2186170893136,-26.8286672492627,-106.607172306015,12.2623745119292,67.9971265530965,29.0718384982462,55.224982598077,132.265690810983,179.917115873969,241.902813953348,154.37421379484,137.565887497868,76.838083113382,188.826214654532,365.432861272703,432.370339679753,338.896323138355,449.818323590591,450.474157160935,256.215634482088,260.915304886889,38.1507933935176,66.4810411390908,53.6011879558266,-14.2086990273169,208.057362336679,312.235476868876,107.707746496603,75.206961370687,85.8881492390774,162.570393111366,174.365203076949,89.490342304112,66.5238279560863,84.6787142258193,157.750961453198,49.3861579864616,37.7264878423042,90.4305344247268,69.5726701856394,-454.549503261655,94.1786941060345,-403.947697964295,-141.055525063887,334.246373936091,-275.740085693773,306.724368140732,-180.208429951027,-336.292731582204,229.789783474792,-281.394159479314,183.667702965588,-228.969119652512,-398.879289506264,-70.7027126467369,367.747056814842,-148.839041772052,-77.2177652193966
73.699958105651,78.1307312399079,15.1034719079829,98.6816081991344,50.0080937067593,-8.35692543841305,92.7031066569195,46.0223528936749,44.0681337575295,149.781332901441,138.888568580007,94.369349986905,193.265701374161,239.117815283069,176.892700529189,102.796942907623,9.65053144421688,2.66880101861932,26.553890222667,-94.1319891446918,185.035164089807,216.423925407293,161.462458478287,372.218064746938,247.395011288136,179.112585252109,11.6462795738707,-54.5760848276461,55.7405910938349,-69.2688302480309,-36.9608270849905,209.022049467278,373.357549675959,62.9314249485023,33.0592917850324,112.822845289656,234.399410321185,296.484503139901,89.2434587082181,94.1972001439458,151.433889596136,266.287480738724,117.74933826122,138.927104166626,228.1786236397,358.144704784894,23.0217517180831,393.121680758585,113.562789702669,195.768805679475,597.68806729335,250.265634656016,576.477102608866,22.2305137245025,104.675294691093,489.766800060323,-125.139077976772,525.829392535436,-153.995546119697,-283.369534907541,289.00372865714,692.24549325987,-127.878488713311,399.933102389422
197.105412974553,184.61142408778,145.164325854066,174.198743081457,63.2084046710014,112.28514051332,209.48696878389,59.2727270577521,188.76091053735,212.908069548192,78.9112510693684,182.462536045136,319.724305787695,250.910724866529,250.685337817342,24.7374182878614,-155.789066701218,-96.8131979323145,80.3230282356299,-318.87019850198,-111.366273529459,-107.816109201235,-23.4580092266918,35.3370889474729,-42.0293349982512,-6.91885298133963,-267.155947975502,-179.198422467549,-50.2606570958336,-203.675172738884,-114.989124705232,140.197301383468,384.271336968224,1.98870188873386,-37.8756529898728,85.4538863591272,260.034639781047,394.688463711335,55.5999304993145,87.7432427825566,175.753178587037,352.63233256645,152.057713659678,207.751413378897,349.093771305871,571.333646908692,448.568809656502,594.776490914804,503.332055455266,506.328947414735,760.357809292212,658.723168743407,804.832226019069,152.037197891418,326.381505110355,700.126511481946,-35.5466414491922,640.917560543071,-84.1655922109442,-235.712772251613,471.9524940319,652.039072601387,-82.0741190708711,686.810438120528
262.74342275883,253.764410450739,243.749937420682,229.591714224669,42.0088007949169,211.690254027981,297.545834373873,101.173424121292,323.852763271047,277.080774294942,27.4519044916962,289.605372117591,466.9772944023,298.659065666454,383.215872817333,112.940418122901,-258.175462960879,-73.1161068617009,175.28240465709,-368.17057515983,-265.302716128075,-425.752164906265,-177.180541722401,-312.118630479737,-353.875511749401,-234.239559390803,-540.649597946639,-344.839125809126,-197.834387086748,-335.416367186149,-237.102590204709,10.3166922159419,287.382543259806,-89.076066353993,-142.591464767689,-15.1214677940282,186.46610527164,360.538474145472,-23.6760563587177,16.2739582595392,107.794242947092,320.294801615551,105.298084694238,178.262783266286,350.033026085628,614.31631832184,582.363960331063,612.672651614363,601.265427608553,589.602381652302,744.497240259788,722.062778247738,923.536001110291,150.194927611254,275.280565111608,747.14116257468,-52.5909214147851,610.957365540986,30.6419770783027,-181.179324609444,476.082772639457,593.554728161808,62.107478428895,882.325004294485
333.546009095303,360.769628775714,348.275524527201,338.024359867166,84.4574401159858,306.436595258214,418.687819421089,240.348577728917,453.41592446266,422.059439175006,141.409410131352,384.183927517657,640.339070399854,500.871900355611,419.746111531468,333.327332944724,-255.211003232811,73.6070452556746,295.765459688855,-267.963394731834,-177.64178402249,-524.802476696388,-251.703295096572,-414.174496110872,-497.925270157525,-385.097785478379,-678.778528923447,-474.910691267415,-288.422303009782,-405.244428646162,-309.349894453935,-98.1936434664146,156.439855751339,-173.783696623826,-220.227102268319,-101.972312176132,81.3481727899636,246.678875473421,-97.6997299025681,-64.3467798191488,17.1468145639546,222.069777187551,29.3832518315145,108.293764856551,271.784211176085,539.397214830047,446.823459677749,483.341901776927,468.848947236504,440.938569811831,599.446681657006,502.78607804919,901.250357967147,42.6471668115825,158.652717344698,617.68543778357,-104.870053914081,575.338035756517,132.166080057712,-208.82002506265,367.992387707511,735.230476628516,139.702964127781,1115.00766007904
389.646774767526,513.294760130524,438.065945542643,480.957365486173,223.202807483635,380.662622365882,562.177040917817,442.5025657116,556.925503534756,619.609505085126,406.275818604057,432.49702526918,773.603058537543,789.478204630965,281.934930796506,487.353031798546,-216.781801689372,168.809420185898,421.415701725587,-230.997065888287,-31.9843231391699,-458.592770061582,-296.15598003843,-270.753315356524,-474.672227989373,-374.845059931327,-672.710539870485,-492.782846314952,-240.642134880289,-395.63286080051,-250.642700676252,-86.4803829134079,135.520909501651,-224.895596005575,-220.772542291457,-85.6479105605171,61.1528275341999,194.474806540195,-131.097995107043,-83.4420479618816,-2.68984246748894,183.890488874448,-0.522097329367258,86.9752986335889,227.122061799071,430.143067197271,146.785805201964,299.885664086732,182.977965377613,93.7585200584092,407.329842183616,68.7877881509193,674.580678869042,-116.727833357627,-13.4517218013856,217.163081425379,-176.502476162213,415.87229813508,6.25275335787498,-444.350083189584,117.07944026729,777.693323168686,-79.6537130383382,1200.03911239285
359.331776777255,625.49845167972,431.876144811919,556.931255636872,395.796587588265,369.031294539788,612.541416420406,589.739511747154,558.039949033355,718.092356346931,641.501049342839,387.911318229927,746.341628443312,943.305802601484,53.7385765475055,389.813940216954,-229.994874694697,34.0062830724672,447.347621539873,-454.93246597019,-29.2306579189323,-506.294719172756,-455.922079534334,-91.1000435082514,-526.114771372475,-311.341692049684,-687.696290241273,-493.986848758355,-104.263647947776,-419.481876142067,-151.295951633733,7.04495963247402,215.797028062787,-289.67372495963,-220.052240186832,-25.8401405972016,111.986350755256,209.352733152716,-173.011000765984,-79.1958977400236,12.4880386883813,199.169057356678,-12.272350209181,87.2843263040587,216.553445093975,298.174143238856,-226.285177731052,133.184654446186,-143.503599284758,-430.826235588474,202.720565059998,-437.51185631456,241.72809175601,-269.264487907413,-295.801382713641,-407.938040693241,-322.236130455169,16.7201134714124,-333.691045731047,-801.061143810843,-315.223508346238,369.684583671553,-496.861059018382,819.294648273364
216.056845877571,615.730725663298,273.009530187276,495.436731109471,511.079616231076,214.221172705981,481.11279845045,593.41916940891,394.970427575474,603.317617864692,693.824206481627,217.418085971243,508.163801583359,823.510218332308,-178.598015514973,62.46160839359,-327.780425270192,-330.85136804785,240.793595243559,-932.439192922059,-226.632505553844,-773.678870439265,-755.928421466114,-52.012232199113,-769.842338377076,-357.522950325007,-821.693424149307,-600.85333493428,-20.6963319680212,-576.117200698275,-168.560160281538,40.2547203349769,233.479641219788,-418.256302072485,-321.130665851589,-50.3629475791274,107.257861402438,172.080489328084,-285.537557542719,-142.423301045319,-40.2986293534242,154.604140417501,-88.6700474203854,21.8773517181224,152.572692542445,156.492963022642,-566.37493088583,33.0991350217963,-334.16984431249,-1024.30304876641,40.6887326786454,-775.910311433852,-177.487453230537,-362.265634140659,-519.985834821706,-930.044283830297,-534.584834069599,-470.536301877812,-547.211237738153,-1054.81633013768,-797.191181174068,-394.806587356999,-774.118271039515,-29.7712258033738
-6.53226150285909,475.187868231477,-0.603313514778225,321.62523814906,500.725157818825,-56.0836218485032,225.583654455709,468.770868476002,118.27642522645,348.436559173723,575.706959930358,-53.7873060495306,182.138369653372,522.682000876906,-399.615544517149,-279.795352756534,-494.810529211392,-766.765043944086,-175.479066569784,-1422.70844514186,-615.624711234339,-1069.61980476762,-1052.57949297801,-225.029388018783,-1034.5051160753,-505.756939333569,-962.454865921934,-739.294710718418,-63.6914621290005,-770.277415749468,-299.923065437837,-46.9750404228013,88.1771628934248,-560.469840877335,-479.925184690609,-174.668200080894,-17.0474368923726,16.5540542492239,-433.74518678299,-277.390171970468,-181.535305016558,1.20646592585936,-233.843504963257,-124.455297298627,0.435056319199104,82.7661294336514,-722.294014945396,53.5200656237767,-299.925876755239,-1375.50627911454,35.0196203841192,-860.810338075886,-277.303822713805,-342.692117991871,-544.217324915742,-1155.75724863879,-674.556590161304,-836.550040575206,-430.005907432285,-1066.1558368889,-1059.3413947576,-1158.61955931927,-795.259548046004,-875.937909046929
-241.01558524401,240.827157468517,-282.205684875625,116.290511634877,351.995245743302,-344.63123525553,-22.8574374476386,296.78446178243,-150.179801394958,128.884430690647,400.82839880028,-359.215998343123,-52.6237318173458,230.02476320486,-575.031610495098,-471.301858114608,-668.188360878977,-1091.9199699391,-603.090740356355,-1616.28712297062,-1018.85404436911,-1180.55851271586,-1236.65700630651,-604.387052753823,-1156.43714977359,-653.434201544252,-976.967019148417,-792.395751028111,-225.072649570538,-851.388633729255,-446.144164585181,-232.778015275293,-211.687097119794,-638.287224692134,-593.205228218967,-345.156095906427,-251.99232792977,-262.415896887364,-546.699577891312,-436.928006874951,-380.427959072307,-257.489252874215,-410.128898215043,-333.094350625671,-242.682515945886,100.983113806923,-619.600672621091,162.508881077021,-137.239964409542,-1173.06720904968,198.888965256324,-744.251027227026,-16.6344145329791,-176.685183822713,-442.422798848122,-1153.44054697228,-567.683406898994,-964.64608894099,-115.163928857307,-832.626988067278,-934.812309525194,-1581.06296765785,-698.463276730014,-1154.68809919953
-410.997431179735,-26.8804964869514,-470.41731837087,-50.073227436188,128.392869888237,-542.171666831396,-183.926746564795,147.202325775607,-323.175739329557,29.4910179887699,240.499215123972,-587.722525645748,-162.250773209728,21.669888109247,-645.825472741543,-573.290009462823,-772.528353943434,-1237.95463248171,-867.446453768851,-1465.34942055188,-1128.06909412762,-1102.10716117749,-1301.74156102933,-965.029778639234,-1182.66905270132,-739.126285032231,-910.534059323306,-799.848685950576,-445.735767139381,-837.75952074316,-566.292006083039,-470.50697142269,-587.517949820441,-657.708157874249,-657.305004874998,-529.002840827175,-548.761593059958,-609.996269929776,-619.078036576447,-593.338188338616,-598.242893807186,-580.734237186505,-594.962764461273,-575.658748365747,-543.762440914151,117.505995411975,-405.819769332196,219.628322458254,13.4827185897484,-575.768672769137,345.175806939353,-427.572958898005,316.082673763463,66.5532033410469,-250.611137996372,-906.143181167854,-239.373823672261,-751.931962010564,180.882265705443,-481.355118322678,-531.376657473288,-1441.65517762887,-571.402773290707,-798.019103819365
-497.627460988381,-267.226120276211,-535.523060256115,-169.444155037679,-92.6946606264767,-592.698564225726,-262.137000097762,25.7146438542346,-391.962408244297,-11.9883592772583,82.3200301069494,-625.210683837742,-248.162447918861,-143.799582874236,-619.062511095259,-760.525164478652,-786.582985978657,-1294.4176343666,-961.027035423541,-1265.29752400612,-969.861828751119,-981.656244953886,-1274.51304650381,-988.497841244353,-1200.09481250985,-742.962939141934,-895.307471657127,-816.485513977441,-598.584376614374,-831.885281672739,-628.651233652201,-636.936165973442,-845.177030095408,-663.125842479467,-698.596978569169,-654.89470502519,-758.050416561249,-830.345166381994,-661.217396007151,-690.17306565992,-732.1105941458,-797.47863313322,-711.961110692501,-732.060895746856,-737.152000908352,59.8777010689541,-239.085035066375,150.983322395269,162.824018351836,-41.6005475995341,290.454412252225,95.7727472283776,418.189880008705,226.749099298136,108.745402131628,-365.280041175106,16.8198182483486,-222.693679792413,309.997452956648,-201.028541209811,-110.810094210742,-881.734004878746,-413.634055745584,-289.155278433007
-549.057641608854,-450.044996930765,-536.058962425771,-281.814630015911,-272.688540160808,-559.549782743936,-318.007358519645,-105.641201388805,-421.557303173315,-93.2251019844071,-91.0626542642099,-517.990341319182,-374.359725411743,-292.689107604532,-572.833913922678,-1084.18969231583,-731.12176846053,-1383.39968670256,-1006.9645364211,-1254.64593717549,-921.904483919244,-912.010963313804,-1211.07579633078,-760.983517196272,-1193.67966496038,-701.672145347711,-958.060570533076,-789.672219759403,-588.653331249671,-834.414137267403,-587.658146240696,-608.436169751581,-799.170453712883,-659.17506486015,-685.19227199738,-634.564247878565,-728.673487794047,-744.764178226284,-646.613106765775,-659.936408569288,-684.471496895501,-734.436915267648,-670.649625239361,-678.297726337334,-663.809366551825,-50.4035662978732,-81.3917024014161,-1.49868290596636,344.504971719491,320.669152236293,71.8934743946298,686.961790439658,261.629574062319,210.468242315143,587.670968813611,263.689224067087,-4.49641886237613,360.992436441321,252.367623960849,-50.6230442563745,171.084774830263,-307.540650163489,-231.716312583641,-31.2390455977096
-587.906002036096,-562.991186189127,-543.411740048009,-398.381679254045,-387.908973366207,-548.451442195755,-395.499104836681,-254.898308021516,-475.31392148481,-227.157299643283,-254.171345498057,-435.655400855021,-497.996673292405,-405.265497181271,-557.947737020508,-1374.94165365834,-614.875468946147,-1484.2324481634,-1095.82689479843,-1322.51018072864,-1094.10995920415,-848.370639732406,-1168.69604772734,-670.52792699532,-1138.12735447268,-694.725908220176,-1017.47399153828,-696.41638011594,-466.83446281011,-792.826556836,-478.822050319585,-420.124433003541,-513.311488861818,-628.480232338373,-605.547830999788,-495.12621415854,-507.264656822196,-449.981055346406,-573.965349721576,-533.423124412167,-509.309504755235,-466.440682351021,-514.281793873436,-477.095075118144,-411.34701072095,-183.53375643898,37.2654393233672,-204.127308085825,385.469215842014,633.942964575515,-142.343666845348,1049.54642525354,41.7409411118773,75.5252492271346,957.01065603677,667.991292839554,-135.814419128946,704.18573735173,154.594579296733,59.7781349879023,298.588207336468,51.8490060927561,-37.6175493960867,3.79399483022645
-574.770765848296,-598.554877842319,-537.033946826089,-475.353910977175,-437.236210884779,-535.874935212985,-449.450352226392,-377.202269946405,-502.512810410648,-337.037666197959,-379.208438702734,-395.59691872497,-530.589777438117,-461.975150266092,-525.014987002479,-1356.45086942027,-435.221207528423,-1433.49814499981,-1121.60411657077,-1234.25932479529,-1171.90596512884,-726.640380945311,-1127.41108501879,-752.709527643662,-1050.53627497683,-740.064224192463,-988.46827193017,-595.580069993697,-345.772623076563,-699.607261685851,-383.428311952958,-207.629711622192,-226.960307907216,-553.299227427872,-499.734357422472,-344.738704086223,-272.077522451626,-192.41026088597,-475.486314498029,-401.403337782436,-340.794186898718,-219.065082644242,-363.532371594111,-294.071732419043,-194.990336761555,-292.364434735551,-30.1328387308369,-372.99301558941,178.867904410826,776.696080627342,-238.226544774313,992.163983405501,-112.743418317273,-27.4918034590727,1045.06920637667,723.607758491352,-133.37404205228,720.20521802904,109.677773279364,190.706882982649,297.565148078689,153.827202464922,126.727059828296,-49.3305642363774
-442.438446771964,-524.262126953052,-409.971127831249,-430.799715757032,-411.268965267521,-391.283450083463,-368.43487424446,-387.569155553444,-377.170774392569,-316.418319500643,-417.52762191577,-252.383515085915,-403.89552583743,-421.067520752616,-382.724815767887,-930.713144581611,-208.150853157406,-1123.90284747549,-884.98870707765,-937.051662549621,-938.936330062596,-560.332313848972,-1009.2936544236,-712.211565883854,-902.108551650913,-764.488555838019,-813.371574301505,-485.230345573655,-265.137316684813,-526.348737365822,-293.64348823953,-39.4127461000544,-43.3736851330381,-396.199172629963,-359.151114721943,-210.373394633456,-92.8670182479636,-32.5381423899674,-332.343032671352,-264.45251141461,-196.617758475966,-56.01462247017,-225.073632131201,-151.744210179074,-52.4626227417555,-267.628194306661,-80.6703544135614,-313.825304668395,81.1720199836609,694.959384261593,-200.336579540788,781.569745103887,-277.949884606878,29.7754954904409,994.931861927936,595.055502084295,-21.2391879491498,593.380525448417,-10.0596356230502,371.304835321555,305.621164406728,24.6755533339284,223.154274882434,-98.5744234605631
-155.523847565341,-268.960147278308,-115.256699588326,-192.208897290528,-222.025365498356,-78.7978477927451,-102.155967444848,-198.436369899264,-76.9980799017954,-104.735221091931,-270.480691310708,28.5115980833252,-131.788246432691,-237.680687753144,-140.852110549024,-352.940167943029,17.0565981759159,-652.034025339916,-417.632958457289,-549.40264480446,-569.940442676414,-382.401453848645,-785.12788570897,-498.861679410694,-621.890589292023,-709.203677717088,-490.158451996569,-289.133876676801,-198.918437759793,-220.535120334457,-138.06884771354,95.6518672323779,122.104948060099,-132.761032500491,-127.966134247545,-35.0250229404658,92.1876537451239,154.039548280695,-96.5000398860857,-52.5072437594396,5.09167590340277,135.651274636768,-12.8921995651393,55.0980989743758,143.245977258674,-109.59315804108,328.252268193067,-29.4596001240018,467.014297406476,780.310788610897,-126.8757191043,914.373557268229,-544.544128873701,193.838410823813,1127.20836531297,611.74089310454,39.4466213392141,613.675689259475,-311.624266666608,633.788810349067,517.11708062119,-94.7292929259575,302.284640321689,34.5384263022653
206.57052997546,157.978526253659,246.269325444506,192.226000062858,175.596418354357,282.102725373085,254.11703792436,169.112902179562,266.685220970666,231.903766774789,74.9976561791899,313.80699115676,174.747927944829,23.8964017771816,84.0512251475714,48.6449591241305,202.798483402923,-215.093054769689,-4.90332323312307,-172.337351887826,-329.066238957282,-168.679896838473,-499.251124620665,-332.938905647038,-229.622222594224,-586.847100617422,-115.386620859827,-5.79995174652666,-110.714493833437,159.271724238507,83.5286727980877,213.62153493042,322.3982681805,185.340135597497,172.768261425901,192.644742994797,310.119156142622,412.529472454451,200.825705417036,227.636904829132,271.965803029439,401.635719463124,276.936428365868,348.833385748726,434.033880396087,15.3506173534131,1096.28979920072,171.125905365028,1015.1111599775,1298.38731002619,-143.648669379638,1368.03163628427,-779.174867535971,273.911967395713,1456.3802423624,906.858306054807,-2.78035911061595,859.433770862249,-632.845738394363,868.824102045162,885.689260223524,86.5101634094409,418.25929597054,424.254031095787
495.314068389931,581.583338826102,542.512219652034,535.525142842072,608.911607833397,556.540205022635,535.177482087333,530.705097739903,510.252535593574,516.303975446884,431.917266240746,496.568532016623,395.882715399152,197.682525740298,228.459655913094,242.842165813907,374.950059134296,77.8216670242812,174.711619996508,172.551205634493,-224.130654134591,99.5405457344551,-204.270727726948,-287.234542948375,123.13996044428,-416.881124783154,175.036163444378,256.542122663912,19.0669513540208,444.24501093534,283.081215224247,313.216879421383,488.947156124576,444.918775353376,424.883618517025,397.697181864006,494.503865755452,632.836016940784,448.21215967102,470.110211861751,502.819179614761,634.458916776364,533.89581815118,613.088331787589,698.20861069241,72.8315023634337,1573.59631952239,161.425375622439,1144.15125945392,1809.35337252985,-191.071477905599,1603.95151654621,-704.503825702538,271.12254535521,1677.79397063031,1240.08933001942,-42.8138373772792,1141.12416407057,-703.559378133935,909.83845741766,1179.30958195459,502.217897744567,507.037352483807,870.886656042362
662.632662712827,805.826150147889,736.668340222823,685.426366118548,812.095242912248,703.51335609975,652.499227633051,687.774556908497,616.440560636287,613.251643513738,574.033423170553,578.555318719128,484.429728214985,188.786896017901,321.437826302933,379.96827121439,551.413873500833,242.292832079516,222.774521279975,432.450313605469,-82.2471938318305,324.165817448778,43.8814389094457,-244.111990672134,281.274780364008,-205.954016433901,313.244417588711,392.402115747507,150.215551198527,525.228798740495,374.3947017292,367.002816055502,534.349269149663,551.775473270764,523.252444383448,488.817849376568,563.500123457402,697.820898883776,549.491230229971,571.666868889831,595.514357388705,709.185748457119,643.637046014068,717.091101117716,790.548183964385,209.703476643724,1426.49032855848,168.593984692438,888.051967083728,1704.01990096679,-96.8796527971828,1381.59840004905,-262.720553780236,377.128252091626,1612.10055786051,1256.02913259943,66.4942944852181,1206.21657366444,-470.798906115639,804.866116217624,1297.74755652145,767.632732685289,494.754275149154,1135.467782338
790.811917076546,815.172829644132,864.439752794823,682.619614685103,732.972533891855,774.66455503156,665.213510238806,640.796520602696,648.655471959512,564.36801034202,493.147406219199,608.933634177496,470.57859832444,82.6293898244249,378.425689701728,489.745904705215,669.105559390448,329.993741611645,295.119064701018,502.786519446957,150.874653921425,384.704963944763,174.95235267649,-152.468840317267,247.391229384151,0.737206759865318,337.523265300024,399.587755261407,210.212380323337,455.829981960638,348.361128038565,335.429904247381,441.981857853226,508.467470924218,470.888508692083,445.381617039509,501.099357993126,604.67265183864,503.147330654703,523.179563563575,541.793547633835,617.266573465497,591.881787443447,645.673415498381,697.359505674644,428.773742276366,923.042165402419,301.624803949315,607.82723149577,974.1617518941,137.523468739783,853.578595264454,251.279471031371,587.261338154022,1199.99709065648,740.638935529875,346.697551371818,818.277086995004,-111.792025229108,752.817367411755,1207.22167937669,575.41382617473,469.316981518411,1097.27050059292
935.924226082007,757.237486747683,949.45932522474,675.645610284395,579.505710970507,838.08609561405,681.465750724043,557.969826757539,674.122038547191,504.309074882352,376.716520344352,631.071392330498,409.722075438803,23.5563863004503,381.35659355854,480.614659242894,659.367260510363,328.689340000194,344.574991693151,356.102010877295,286.07521302482,317.279444742677,158.59837231633,-102.871728946409,159.198481074268,104.78564232967,326.064904435966,342.600865948894,171.956117449202,352.621785431646,248.438054505763,210.336800623835,255.006186739463,396.327456184256,343.916448656515,317.310570591039,352.067576826332,427.334714744995,384.345027386482,392.293879885824,409.463198159155,439.708456337401,456.940875219891,486.643629880416,519.726125623495,570.655569906461,421.58327503385,405.053947788809,330.155599479611,94.3329751176768,361.726614192537,132.632893037405,538.378754290755,681.402893501211,405.187039653207,-189.225152921968,660.149830727049,-40.8761524658267,230.402446967249,812.363899963874,794.811742359843,-70.756306087304,569.597396108949,687.650184308824
1019.81147477399,707.839322396062,940.825616492236,681.644737035724,501.249337338161,858.598696200502,670.828133861095,492.639906051857,646.806899573443,434.063559339495,308.596710294742,621.349338364589,292.463628835283,5.38811355404842,316.695907720595,302.649020402224,532.249221059415,169.987346073692,169.733782220576,99.3752598566751,89.9038900751191,245.278588620094,24.7201482013787,-232.372972845396,97.6479214717516,0.0393525439279339,291.169756247709,221.161748726601,29.0502001007048,234.515615330199,78.5471223536146,3.28393285454967,6.32515533660269,263.907609826838,178.405675850774,132.469736815159,140.789235995291,198.193275915329,240.602608148883,216.098911330338,229.530438492011,215.153082522463,286.848996302393,289.856191565907,305.743117457861,572.480588837184,71.1580446194685,386.434157266229,16.4658695377495,-463.209551771619,485.427792301724,-452.700499683731,588.158591027328,562.292139904467,-377.638192618989,-915.066527192733,827.35334172436,-817.768233674571,533.086677201753,835.966301254778,151.594252589544,-841.67073139356,776.468579864542,27.234702859395
919.44047483611,560.91821197098,759.173134299424,542.345803870149,371.665705902324,715.441416978895,480.365573572224,282.423725748379,447.938763995089,204.628246339448,141.992992992276,485.02080168452,46.7936159908822,-130.383088377831,180.143211963463,15.0313113747136,356.325813988955,-114.594868616987,-274.426877283563,-91.1245284499736,-366.195183377397,207.930371793626,-153.325424952219,-569.644758070345,38.5316016169387,-303.162905739021,196.444673914054,-8.15155518254905,-217.090182629149,61.0227660460646,-173.333278873644,-269.505358560304,-290.603570074422,106.480455183441,-29.381669905858,-113.663781400006,-137.067764765861,-97.7520571378321,66.5385826386098,-11.3317982301237,-18.5606106658915,-74.3851981524851,60.1151299057424,33.9475307811394,17.7231866461477,473.867913075911,-75.0528869875569,302.164934777102,-111.674328807772,-493.621385519697,492.324853858575,-379.980339982768,498.572894676385,390.398583734384,-468.836738025972,-822.493191618541,779.504614063811,-814.579716023603,745.654369987373,760.918318675894,-231.586983989615,-1184.46374826274,989.279865600837,-436.059850062433
643.490852965348,247.481692065484,449.172181382533,181.893381692158,30.3920492362718,406.923182322501,88.2419569657675,-170.895406287227,91.4562436589017,-225.715144048919,-236.435957105378,202.777330595111,-302.647999825333,-449.813487112879,24.1676946753044,-233.741353135358,200.272342956081,-308.797469767113,-702.694498521083,-73.7615780855676,-646.987869796005,174.885667933145,-244.633069702213,-871.062386747266,-8.59233060976827,-575.485395280718,65.2272884690596,-256.302397100935,-460.650331561283,-111.450093298314,-411.052376015936,-532.870654308547,-565.538648570967,-44.4913539644488,-223.710677586281,-357.750153039009,-421.62672354432,-413.277863711044,-107.745106956697,-238.992011722156,-286.891295804241,-383.27230909505,-192.26056456664,-247.709062286838,-312.340732797491,270.077246162823,11.3949214071536,169.46380043871,43.7347757169933,-170.235968557089,362.706044798132,228.423482318747,256.461066833882,373.185109101511,138.676614772871,-108.797106556376,606.451707540775,-136.368458854843,751.669404840506,752.955064059228,-15.8030394641269,-751.257268636404,1121.60230032119,-379.372406317709
382.514849373081,-64.9254859745129,210.405576293262,-200.841191681536,-393.83970522271,139.661649847966,-274.936701069187,-659.896474850135,-205.833375363162,-640.851883339673,-648.393473815221,-61.0394226484025,-542.128017800334,-735.2784754032,-2.29431481488733,-260.333335969368,105.556540033558,-177.300273855244,-735.660891628648,163.472877040962,-384.199847683252,138.676976012057,-105.700091108234,-734.516360426676,33.1401509837926,-515.601111483914,-21.2106831183145,-314.670845605934,-502.020912038047,-151.707705137626,-453.799158613097,-635.550870721548,-669.575811363207,-107.620348383427,-286.569430385893,-454.146855689994,-563.052699723917,-603.20278701753,-189.880165472935,-343.59722422659,-427.896554109556,-566.163880330928,-335.103500201372,-418.09398648293,-527.84320010457,-46.7205573359844,282.351324287522,-62.6232337474922,270.94011589209,184.632061183809,105.726958139779,690.113385043465,-101.508063592104,444.091519912251,701.663917056645,544.325886690855,407.660896902471,459.560294675391,531.726205094721,836.56938745514,406.28485539306,101.78800579805,1042.8406183499,-92.0150341071281
352.17633746381,-127.965480724819,209.705356280577,-308.868259235867,-582.30481103777,118.979468383335,-343.921192067179,-838.825944184009,-233.688502723488,-753.711009536715,-765.091900209285,-95.6852120446186,-457.085083390985,-649.525180833242,206.098101873149,-0.835757725345218,75.9174410467318,262.207962275627,-319.676519454394,466.779107708763,249.504957550944,96.2974826688151,236.102202875993,-100.625413472151,157.734733093755,-108.238207474294,-28.422801663109,-127.65929463846,-278.42330859621,-37.0381019026917,-251.463683282939,-477.23320437978,-498.341766801687,-49.9105116595635,-172.835478801954,-323.626171008047,-448.306582952759,-540.277304918037,-126.091058078955,-255.30787083306,-340.793417580283,-504.853391304561,-270.331164380973,-368.128513700383,-497.890004731503,-334.035559797571,593.820834238042,-319.526892698342,403.876079935888,471.483449003804,-145.924002200987,776.616662138897,-323.243546400417,369.315303040536,759.785713249177,911.441909946126,228.920915108157,595.515492736918,288.621202773515,810.652689250209,492.29168736573,594.030067896226,757.381841374319,3.59853587861892
571.771888658886,107.20489451499,410.843655036218,-66.0891040841093,-388.259996922079,324.76188424511,-99.6136377948945,-583.142820832736,1.24337915947073,-490.299123332854,-465.530102395802,138.48566996092,-82.3499124478037,-131.833328274854,535.423635304395,361.182866348555,72.3612110254936,695.054155740712,189.571518461432,605.232733868858,678.961251901082,9.03713321523517,502.195223799983,493.804491925053,199.963405943726,264.83853660683,-9.80738014931066,71.9999149763801,-21.0432802372311,80.0294601092159,-6.03893550705423,-170.00220911712,-147.507776628763,47.33018367937,-6.99733081082034,-86.2851178876316,-155.772928285055,-269.044477022816,8.25054955748292,-65.7998385036307,-112.029873762282,-252.825063546587,-74.3604903634946,-160.221915559973,-271.927451609197,-366.032417273742,795.007700308761,-369.409663574615,489.831287694699,774.885771639536,-195.533896396236,839.656048287589,-203.638134025367,213.546295628102,624.916514598183,1225.23015603214,190.997105157651,595.884343483501,291.954191774247,741.564687990684,459.244095214178,444.095345826538,588.841176319217,47.7482447783085
845.793311837002,455.144105157176,642.620311659651,327.888443994132,28.23157719235,595.133347542495,253.937413616495,-97.5298994609753,342.709078662469,-24.3763708684355,45.1885932824562,506.063270851629,361.220476220132,499.627033865201,762.194108158241,569.561613270845,70.0080085330613,834.860658841603,447.899324221938,489.17565332934,606.587060024024,-108.456569083677,458.521864003543,490.784013869718,30.9517171086392,255.319394036283,-26.3794331208879,41.2546314727308,-9.1665660718015,50.1784894742769,46.1670914935566,38.1677506856229,144.166789067671,78.6795920990446,49.0122616636875,54.632413904219,98.2522188782929,18.073948700032,85.6413717685675,62.4386756755374,72.3323035899072,9.23459367992358,89.7581684889336,37.9388755917564,-21.8990519987397,-112.349913395848,877.293322876997,-123.690244411839,636.548996989899,1109.46505111008,-7.46152862256458,1148.46051599781,137.756244258645,277.329353517441,821.316773409793,1652.13044006747,434.140479496576,957.796121584634,596.297281527727,957.592009752741,873.186394612982,244.360091226601,829.811113166135,413.779496978541
995.823307861298,706.481680865402,790.548058881627,621.9571072992,404.701680171554,820.752281433213,522.078361787715,315.153910224103,645.277933107383,401.200199075367,477.685442674383,832.983648498691,702.670554417708,909.658117442417,794.030667757732,554.458116294327,106.630990453101,701.6032908321,454.217354231693,280.801433173189,301.477592063756,-137.560631184637,231.034497511031,1.48804109503199,-230.865298588399,-14.1845891083767,-68.171297313772,-149.656740048809,-195.388926625281,-79.6012666871689,-66.6364243830669,56.58754077526,254.047719500094,51.9172836200862,5.74326595887885,61.8433579516441,205.886792988056,196.281704782946,86.9798890525879,95.221258483595,150.000432385728,178.429470752269,173.630212558023,158.746342948557,159.078493266515,225.655899123105,982.521235404847,236.91499365931,883.103052050545,1394.65620988161,274.556971740347,1615.90802036044,461.1144552949,590.563488356584,1338.55547206307,2144.31114816251,899.713055590929,1704.79042252523,1013.44484369774,1459.23133771316,1634.05280061854,717.927784005827,1323.81693670773,1065.21598043332
1021.11816247318,809.983951089709,850.027858894545,713.107443403311,612.738293408038,948.321805263901,630.104567058951,517.052501558128,805.42208007548,617.770607379874,719.936189576883,983.24732984616,879.540575314466,1050.14660362836,682.121178801785,405.212207871489,194.525390407255,468.091331425824,327.107234696734,193.209192935012,110.67813918754,-31.8647982195981,121.415577202737,-411.194281644732,-357.303309220493,-165.588294014301,-95.117151279175,-240.548519662981,-285.167408903106,-142.985344775878,-123.527747019765,40.3568180094754,280.052994653889,54.3543558471953,2.87701283643066,72.5641211490176,254.589138894418,311.706942845212,101.094190101553,135.203735253736,210.877609189231,301.303633941826,254.180528945841,268.82760502486,311.594169009705,480.592038210842,1192.71853144886,528.543701668099,1128.9498884906,1569.87427598618,538.753094073695,1930.05807094483,682.199611654832,896.501541978223,1600.88630315415,2422.34608916729,1335.54615892502,2231.20341115834,1305.68461092928,1846.78540232775,2089.17814485083,1700.74096833226,1652.2943238995,1646.65463158424
990.380924745832,842.887171439342,839.259508486525,658.98739509068,690.33488819026,945.83967009777,599.922601443661,574.557707441545,802.089603899765,605.680565239671,825.216643450412,928.301339088295,893.779194676228,1051.34809875931,498.569185463536,215.310492551545,239.788848450261,200.541444828326,26.8033104117895,232.186275777077,14.3120125102341,70.7014096904194,182.563585774507,-477.243712646293,-304.654537258056,-97.5415606993309,-105.277379803125,-145.051917207066,-163.222421681646,-77.7213986117566,-30.4848383012211,137.899296353506,355.156351612737,113.857146841368,93.2977489862897,169.587690696714,346.566648935806,443.000163915568,175.414228070816,238.432418419831,316.386645702672,436.645968483159,369.605827656522,408.450168670337,473.279388080125,617.341937036794,1380.12793882974,695.071834258855,1165.16661216224,1588.47427242085,723.911837229829,1750.9849467176,778.193910689504,1032.7230119788,1259.47896810733,2056.28434934776,1522.91170619086,1951.55638354538,1344.84310583414,1837.56686860502,1934.23082306515,2258.10501360662,1592.51808461306,1871.97318619884
890.784420507257,850.408014031916,744.105331055663,564.285900096034,723.046697954284,835.248478115837,499.761030656654,602.480931057374,713.330438207244,488.019210594235,852.042677192513,764.791487176683,794.902230585556,992.633679263287,300.598589636741,16.3104868715454,161.93697784466,-136.797114315022,-484.489505513893,224.649526465058,-196.525276746488,70.1697136961712,162.614492461942,-444.052059593793,-229.869753189258,-69.2612506545158,-112.100163084442,-23.6005217352317,-23.7336223296937,22.6549765287932,85.5213971877877,276.378603077767,453.207670679563,174.721337055006,186.546231090439,271.670279145262,440.668674897766,553.733820047351,249.552620258529,328.036495278083,402.413973124169,540.039151423631,449.610969501089,503.840252893368,580.088228133178,610.581410940853,1319.98911608065,680.971172904407,869.108874825915,1331.71783656678,712.955905712201,1002.55185293974,673.641443025317,983.630100398399,605.246353199939,957.035207758041,1408.03410054273,989.728666034854,1155.59390992453,1496.93336178872,1399.16214724133,1922.608747413,1222.73626007492,1674.36081401718
