18.7765774210971,16.6741807214376,20.5164919311601,17.8341237281463,17.761627290227,18.0516130419041,18.0516130419041,15.4417412768096,16.3841949697604,18.7765774210971,19.7190311140479,12.3243944462799,14.4267911459395,16.1667056560025,17.9791166039849,16.7466771593569,20.8064776828373,17.1816557868726,16.8191735972762,18.7765774210971,13.9193160805044,22.1839100033039,15.0067626492938,14.9342662113745,19.2840524865321,12.6143801979571,18.8490738590164,8.33709036071878,12.1794015704414,4.92975777851198,7.61212598152584,19.4290453623707,14.1368053942623,12.6868766358764,5.87221147146279,15.804223466406,15.5867341526482,10.7294728120555,13.4118410150693,11.0919550016519,13.0493588254729,12.9768623875536,7.61212598152584,11.8169193808449,12.9768623875536,19.7190311140479,19.4290453623707,15.4417412768096,16.9641664731147,18.5590881073392,19.8640239898865,18.3415987935813,21.458945624111,24.8662782063178,18.0516130419041,16.6016842835183,15.2242519630517,20.2990026174023,22.5463921929004,22.5463921929004,20.226506179483,25.3012568338335,19.8640239898865,18.269102355662
88.6594528901592,78.9011178254901,96.0453502931362,84.1150351791519,83.3360626075525,85.0745205734837,85.2920098872416,72.4007528347939,77.1626598595589,88.4419635764013,92.9863812874086,58.4064740563075,68.1648091209766,76.3481673410657,85.3829945706738,79.8250832729282,99.3787298932918,81.4540683099146,78.5016591448681,88.8769422039171,65.1768800090364,105.552132641285,70.9167606736461,70.2102845399659,91.2848998125029,59.4199676430458,90.3808791547095,40.8642394521713,57.7909826060594,27.0164100936554,38.5842430180431,90.0879803147686,64.613940207063,66.2886409998659,30.7633669875504,74.1207225552122,72.7262585333647,49.8961535935156,65.3787941655451,50.0936981176288,60.8314633662743,60.1974836705134,35.3943997495942,54.7660770030937,59.4725192913205,92.6238990978121,91.0304340077194,72.5457457106324,80.4220864776635,86.6850173649573,93.3843834238988,85.7980284085448,101.024746631659,116.539994062319,84.9295276976452,78.19464169181,71.5862603163006,95.3758506504815,105.677180727479,105.677180727479,95.3943388959944,119.473914981852,93.6743691755759,85.8165166540576
169.2359142631,151.353794367786,180.86853135796,160.388186290136,157.302030400129,162.965776146726,163.490282913542,137.187771136441,146.994984503737,167.406471613737,177.41414259341,112.82166229109,130.921271500162,146.192829104104,164.024579287105,154.330477328848,193.375179495205,156.949738258985,147.005830212911,169.977910343674,122.971378192784,203.827218267436,135.546483846149,133.384293403581,175.175852098382,113.378050524706,176.286516360759,83.5809703191935,110.903782470407,63.4374119663724,82.7777588171329,167.043954558586,117.745123720262,145.939669221096,69.008681619851,140.196335564302,136.859717925757,93.8361202280334,130.809686366362,86.865947189204,115.327811812188,112.567161620753,66.9895573361771,103.225752245345,109.997179434947,175.331690683394,171.87835802127,137.658269710851,154.463133085827,162.857359320208,177.067601137213,161.928699290249,190.692776426637,220.923088630961,161.625320317285,148.539135983945,135.950637109292,180.246888781059,200.065376742568,199.485405239214,182.104609282682,228.574297547896,178.733562665225,161.829015968051
171.142378467762,154.369220661721,178.630083555704,161.275385332828,155.297420405778,168.306687556982,166.50042773565,138.007119029271,149.799234079522,165.524307850959,180.170239712039,118.618033300016,134.39327267657,149.537246840117,166.466004258426,157.592686523986,201.335599735571,161.192661709904,142.955068248567,171.093064857879,122.888063577877,208.101745453348,137.320029005261,134.101257725516,177.900565172662,115.523417743992,182.201169684236,97.1385366478671,113.408891263353,85.9295873465803,102.447701190909,160.389545371233,112.588539116107,177.421587664456,87.9753737404241,140.522200660197,137.464443724168,95.4730248560235,138.866269529041,67.147618210068,120.024175549314,112.340725091116,70.1070248004607,108.055312759828,110.161537812718,174.499251870807,170.468256244694,138.004571517159,157.015541872734,160.416015337268,175.667447205652,161.323760711316,184.903045293492,222.040122370677,163.093861171299,148.344489636898,136.04365031496,177.134565903688,200.104628992989,197.062691688642,184.4247895424,232.083471535517,180.117241753135,158.021211977219
118.836807964735,107.280240737738,120.211103640335,109.622670282048,102.780469972134,124.500666274862,115.333462628254,96.9790431995918,110.128537609681,110.933801856854,127.625842862819,93.2559725873424,95.9998964810179,107.194134352103,114.463833404241,106.596599924126,142.859617558146,112.865520780618,92.8107040148457,115.378659618382,87.8408723995129,139.872907296761,97.155307438926,93.1570591003083,121.281883557972,84.8153386694247,123.277512767568,87.3362961646639,84.1572463350981,85.2604605627071,96.2945196521694,105.321846703505,81.4721201882842,139.867749923904,77.1969527352822,97.4540376539157,101.415742083773,75.6167293073864,89.8413246574331,17.0905798619122,96.5226289479846,83.2543363366606,59.3176342873334,93.9986126690981,86.2146464877403,117.122800465504,114.094841701293,94.5858894875055,107.51097876288,107.001169194932,114.144025788593,109.602590876723,112.876058093527,151.458182091814,112.294965198493,100.750478114017,92.7488031399379,114.020140983983,135.735334073294,129.444160199292,128.150612224989,158.783177630681,122.365655574884,100.308971658057
107.058218319293,93.2041562429197,109.909732020557,97.5519812553524,90.6740232309507,118.218477413023,102.817020063928,91.0280210767898,109.547360248293,102.638130614392,117.065251115037,100.450366411481,90.8653671610792,100.21268560222,102.768081923421,90.6925867041413,122.962582209924,99.3955161714644,85.4350249640626,100.67403495505,89.549810849612,113.082285748619,94.5286954682619,86.561486823008,104.337917548569,87.6528043848863,97.4993569377804,96.0818855424839,89.8665808447518,90.9497601422067,101.364211818503,104.963614567598,94.9423578382696,102.880964100393,71.5189688344567,81.1854275377484,104.204718956218,88.8878582474501,55.7663738978902,6.39155249530426,99.3803664672461,90.6179089720956,69.6414382609271,116.72526814368,98.2307430748632,100.916093816802,99.9720086812857,85.0883000650385,93.8301475672389,95.0898388037511,94.2464234050165,96.3522444967265,90.2670441128534,126.937723171022,97.1346650672008,92.5626136794345,84.9830397332177,97.9583218071875,116.459402744453,110.750269940411,113.632738610148,131.552845804807,106.735414154793,87.1263650245371
134.188930081534,115.285116893843,143.091081732945,125.420510672638,117.1959323157,147.403469510027,134.860301382061,117.712005863987,141.965939375086,135.819760785272,144.49636310965,138.340684580221,123.325716600197,128.391435505873,134.079772460671,118.418342799767,146.602528460422,126.460581191086,118.205186539566,128.420895544414,121.993002204436,134.990754602753,126.709724325869,113.062924574905,129.030684130931,119.834835411782,112.810736903887,123.637773817073,125.641610096761,114.230068974511,119.951271131156,150.4411399128,133.798548277366,101.857659982929,92.9789315108795,78.2479610146591,133.787265970724,125.416400538706,63.4310335718551,35.4593132076643,111.931146072642,126.915176465045,92.4460356576125,158.88497110554,131.723464327483,121.980259909565,123.956820969911,107.927766879896,119.521344931421,120.53635546553,118.213147861781,119.469187286768,114.62489310745,145.453143590396,117.038489143497,121.616853351262,111.384689442144,127.877978257639,138.264742264073,138.321987430056,138.062975408618,153.356352641024,133.932208677035,119.825662102371
143.539700004306,128.945292794043,156.225469533527,138.476143162808,130.860161081028,162.737583791356,156.670895400689,132.465959938759,157.582956463212,150.052746738876,153.673273613854,163.050147994848,146.079781755701,144.387548415679,150.883641177085,137.788239161254,152.764200638805,145.619933712699,136.894252816308,140.48766607667,139.33023529929,139.438313402052,140.906234689225,129.495888639131,135.016693212795,136.016910856083,110.998302893618,135.100650309462,145.907946794515,124.671109669633,117.128486220645,174.86054403787,144.434751744248,95.6009526584254,109.940627345805,58.0932741876916,146.968648990716,142.491398245511,85.0246192225978,62.8847339938875,108.479099171852,148.670549745854,108.488915177943,174.978035842671,140.951944967475,124.902037333464,128.559157340323,117.035467534431,131.404248409758,129.843018830104,127.22442913544,130.594589981806,115.268477057985,144.152809869705,125.753173336733,132.851639502858,123.199761318657,139.232564358786,139.594710514209,144.099680598677,144.542113651724,160.017428667354,143.355011241957,137.265577967928
131.87960049409,129.756059775922,143.442650986868,132.945455612656,129.141849380551,159.285549622131,154.486248282504,133.824206939208,153.979379740239,143.331393695971,145.042601684473,164.054915127481,144.960255427033,144.251209120081,144.432364288587,136.040751137515,136.304865137307,147.044526831879,138.192570295404,132.385309539771,140.554889789201,119.530415798189,134.385320442297,134.506822330919,121.04753395584,135.834895534534,90.1193180320546,125.05482532689,151.869816076657,112.063010886763,93.0333577642203,174.352011027866,130.092140646829,74.2244569584906,102.176791659417,49.4374102058659,150.823912738215,136.850348467418,111.932264402225,79.0504177580254,116.381062256156,151.266767098615,131.56768866494,169.508087102391,126.344259025597,111.974194897747,115.053872459999,110.113243247871,122.217025565233,122.844884289595,117.539929603334,129.030832293671,95.8274490216744,126.600448191579,123.013434397575,122.974410700889,117.132469080867,130.852446092901,123.183985701868,125.199954166283,134.568531330083,148.049181433035,131.338095633986,131.096377318578
123.685116738167,132.36343814445,128.916100093813,129.536142144869,128.424048864349,149.754386161974,145.708055499368,136.579762125693,147.357569080937,137.457710619935,139.282729803002,153.921700471271,135.817670613846,143.56539939488,135.990926003199,130.737177376379,123.526124656861,142.268559894349,141.358348333317,128.167369534819,141.500553171568,105.457758140862,132.487830632084,140.669411447945,117.846689164143,141.167999210136,86.7030467319436,120.238042136633,163.762282713451,107.168133044379,91.00976889575,170.667290986651,117.949377049245,83.4916268793881,109.774769306222,71.4075433022634,151.367550593092,130.114825162135,152.551410031125,96.6002050778198,145.203936901325,148.162372411127,170.384813844285,166.894659228044,115.806958010891,106.74673652605,108.140998432374,105.746053900044,116.278221980494,121.323880245326,114.905571142751,129.030536410061,91.2813659076586,118.027686685975,122.257917563597,117.699691558345,112.751923094048,129.756616016134,114.028721416367,112.044457965301,130.06365327855,139.038616655189,124.830142056293,126.941251018723
114.638736189484,128.419476424507,112.636380237446,120.142458823983,122.43858144557,129.341384771615,131.20425889385,129.818902514659,132.105996177408,125.626234065104,125.524930205384,132.13310364406,122.554529820534,132.974234289032,121.294213899261,120.03195768443,108.623785395042,126.449713552576,134.727356749238,119.828228440368,130.747144509043,91.4636475408825,128.27309700786,134.891128593505,114.157940721354,140.895314131742,91.3291598574507,127.546629167413,166.93258201346,117.97692452899,120.729491394677,152.577127701721,109.986845251306,124.703686316196,151.822980588178,99.9514022650608,131.097352995633,128.127511597361,183.573834518921,115.58828978168,156.399015085756,138.289729052685,194.765408492994,161.41243524302,117.19387968035,99.4176046571089,97.7946539093119,97.9478742681541,111.255816509844,117.349338123791,111.603414616146,119.525986639043,86.577494916761,104.516423390586,112.382176912492,112.115648413191,106.328868981471,122.980586883363,101.790098221417,100.652218204389,121.838872506265,124.188622925817,116.985032367281,120.410922559203
91.5036707383127,107.959671640039,86.7059979485187,95.2196462812931,107.985890998779,98.1029707050284,105.611751312555,105.971542543551,103.018621532964,101.239453930612,95.3146214941546,96.4106612681649,98.6451326919208,104.63253408924,89.8378428250399,94.7945047855138,77.1128618935952,96.4097325484468,106.425901944696,91.7369503550204,99.3911448297507,58.984401626333,104.221389184475,106.856664019824,87.4092924478468,117.720521147494,66.5501824295262,128.014514194448,144.676383306229,117.467525203451,142.390082027655,114.38275920544,102.217666931988,146.443944922171,182.457177695574,118.079685916203,100.668650940024,127.861409142845,176.799767998632,124.715573169032,134.975299251023,123.450705485797,181.320271664805,140.769460308659,121.123367027161,77.7990690983048,73.3700463937242,77.2041648651543,92.1928259288594,98.8393979285729,91.3579547471631,94.6529020947104,60.6026308014464,71.1341338110946,87.3555581812499,91.8989947988186,92.3634473609131,95.1872702741765,75.4720221038883,75.2666097694056,99.1291750006051,94.335654061191,91.1622627284597,97.9679333975733
62.6699523509285,86.0289351499696,57.7353645810753,71.3098517066368,96.9199770765068,67.6747292403123,78.29964987862,83.3199934802315,72.2105047016302,76.3429428187121,67.8913882751783,59.9332150351487,69.604404812825,76.521378700364,54.1438115090549,66.7353695343832,41.8824113580248,63.8641758358257,75.0726819096386,58.0915952581968,67.4621645165338,21.4960496893063,73.6049127705731,75.1978295283893,50.5117659140631,88.7634438492669,18.3184148608704,118.13973353624,115.982062361893,104.253978786966,137.622623069384,82.8241703229932,106.211812979695,132.202384897,175.988615684994,128.965414193479,92.3320385726385,135.106140930309,147.909024673574,121.990102531474,113.731321168129,118.995264311784,152.393683235169,118.618298189097,126.75264738344,56.4110605712481,53.3128216730162,56.4077760302599,68.2128303248257,76.7764637185446,65.6268117983055,70.8366930137347,33.882562075297,39.5356047544405,62.3086171986551,70.7492489814537,79.979792417442,66.1970397480207,47.7264494835101,46.1080064494592,71.1344229574202,65.0457603872811,60.3688953992137,73.7856717284443
40.5598054332295,75.7443531526232,33.4935698558782,59.0137778196543,90.5636695578521,41.3650084729326,57.0920892620865,71.4206346519363,48.0706598270916,56.096255875189,55.7329874613685,33.9011988495768,47.5447064821415,63.5801554661606,27.8156783758131,48.7422311294727,18.8658516231556,38.8423040609172,56.0588489353665,35.6812908925643,50.8179216577906,-1.10693708618424,56.3864400876217,60.930902131306,20.6770616980108,75.2439380912172,-15.0577450098667,108.768189120841,98.3571604295717,108.068117187316,123.916439666808,67.9119292818394,126.012358542658,112.256752865907,160.152365511725,127.215274601786,106.965787296361,151.221100249488,127.297052141661,117.564567226078,110.925221245553,128.484399121925,131.832150968617,108.066196301263,136.303312598179,45.787374841693,46.9829617405267,46.5871660736402,53.2816151582286,61.6776886326694,48.5471369874037,56.9359129038405,24.3071026502791,30.3415229194368,45.5780244720833,63.0922618952907,68.6653416529723,52.6945720374266,28.2060226476468,29.0029333384767,47.2604695610849,45.8844864573457,44.257197649569,61.0642859646664
25.4315469559778,64.9750305301743,14.5956848922669,46.3920643285164,78.0535880069433,16.8235018048578,37.0532220419322,58.5097382794045,27.1441632030257,37.2566107306373,48.7980054739667,15.981109566206,33.94324864337,58.932372390633,10.199589387289,35.0587280547072,1.9004968552745,22.934856148804,41.3544606738435,19.0001801189708,40.7279422389545,-11.1925136609784,47.0394679278258,56.5435360826028,-2.15161638156363,69.1574344864837,-13.3666613568587,96.1814281102381,73.623655476661,139.516122810483,105.133207617473,35.2821876608935,135.127050205598,115.455538221956,158.375138200641,89.7213233433718,108.565221752803,158.303184592326,124.042426945272,112.426107112588,91.0647208135427,130.774170581493,104.202187181008,92.6770633799756,137.965964796535,35.2838742508611,37.8471737732173,39.8295493662364,42.2946898540655,48.9254573414908,35.7266179328809,46.0414637917501,18.0326059151015,27.4399458627372,30.8382224507394,57.4460480972845,50.9976937101176,43.7653111303157,15.2249945240086,19.5952362926091,28.2079877916364,27.7391669700448,37.8042689557329,50.5284847060899
11.3274534877709,39.9091507337807,-2.68893203901949,26.5670233616445,54.9536460044161,-6.28306063258497,13.5401889008597,38.3915103850671,6.70620841644279,20.6142205418822,36.403098251426,0.751787381354055,19.5779845293372,47.8150490485777,-3.12340157674002,16.6133994729006,-20.850014997552,9.26634718651458,20.6841005323977,2.23425172607891,26.3771529921432,-15.3206451378475,31.4394868518715,37.6824910577302,-14.1337222891075,49.4181915197182,19.2554771017715,70.8473879747586,14.1315458521966,175.621983504971,69.2328025945115,-56.6165024158512,91.6369772864681,147.887619972545,170.619703403116,-1.77427453835436,47.6994205764435,126.557664603113,138.415089464186,89.8484446374008,3.19025862297203,93.9175882858439,43.3631664105169,43.3323224931734,108.757689914787,16.7755574473879,15.8732311419525,27.3392965011016,24.5705245145715,29.6748294705637,18.0824079837439,30.1401982599685,2.98631677889541,7.82308403089671,14.1702700112452,39.5137672151144,31.9241849920673,25.2100465813101,6.00790991305424,4.73955384818565,11.0603280434563,4.14825523734205,22.9586309284047,32.8441425951808
-7.32410794629345,6.58800525587831,-24.3324454393606,4.82427524352915,24.6208538563285,-27.4536210567109,-11.9273259709639,15.1027124640975,-12.8910742415435,3.05331988447312,15.4502546974448,-14.4419509047591,-0.892840490656689,21.9573178847247,-17.6156544130567,-6.31792665098272,-45.1850021423173,-12.3399300726876,-5.28944672023749,-10.8800348895928,7.92485122066077,-14.4792649522247,10.2805288420545,-0.991125559897003,-10.8523344460767,10.387827808958,64.3757183048898,38.2337454496674,-77.5582396530626,189.058779925719,24.8980413685814,-209.367916895192,-19.0570284731006,192.641556524439,189.234750061092,-120.350773785747,-98.6587854695774,43.1819032907525,165.466209983681,46.6410982217851,-144.023947741999,0.559825669507052,-43.4569081622353,-49.1860415542654,38.6958955753679,-4.20483962807218,-10.4141118670227,8.28977768352978,-2.79341153512986,-0.738471864801871,-5.48247321170804,3.72219590471613,-15.2773404353784,-23.1726689756744,-5.27375564169283,10.7106704663459,15.2177579658103,-2.20153483005265,-5.43498940805537,-18.1998264224203,-9.46049597382812,-25.5014703576975,-4.17864302856819,9.6211675826371
-32.8887617165888,-24.4942130796791,-51.248586712452,-20.7688484138229,-11.761960462263,-46.7761035103393,-41.6190600033458,-11.8422437477044,-35.0172788314315,-22.9938308516549,-17.6199866848251,-33.0543222259707,-24.8112720132662,-15.7488373608269,-39.2922492085424,-31.1168926561689,-60.110895401516,-40.1107763648371,-31.4046923765147,-23.9465363091274,-15.8284673206728,-18.3920800432695,-10.9500564291497,-42.1855129499576,-6.9089157577239,-34.9852240435693,94.8796822579356,7.00956122583974,-167.766133103159,169.802013809309,-13.115464474213,-365.922034650573,-158.972881137172,214.631023925366,193.729207498755,-202.74225646902,-272.976051634778,-63.931292300901,179.667204888953,10.9165457738419,-270.3355507261,-120.112228558008,-115.741073607673,-160.845505513612,-47.2221135156557,-24.8412990858418,-37.5222152628035,-17.6207728503263,-37.1436027228978,-39.0687669163712,-31.2255272972482,-32.4723180821131,-36.073314152416,-52.1576081456011,-32.1032607755819,-23.9148656309705,-9.12530013248292,-33.5515925049054,-28.7108547021501,-44.3382809693744,-38.1123360310143,-63.6060471401595,-35.7128366409455,-20.2098142361901
-67.3359213559502,-57.8518977124861,-80.2989534887224,-56.3082319890493,-55.4579122146981,-71.9309091850688,-80.4619719146943,-47.5135433821113,-64.7764783312528,-58.1481006481471,-62.9976287413335,-61.8202019148754,-53.7857410599861,-55.1596326979822,-70.3343679832686,-61.9965555259373,-73.644704002627,-68.2773936061661,-61.7518910158032,-48.0496550242087,-51.8846320528129,-40.8715309037485,-40.3041135620507,-77.9683803943759,-24.218647158499,-79.3005772141824,89.0536273115698,-28.2418915295061,-228.28394611829,115.969354677002,-58.1175680017376,-446.956409983611,-265.756936428326,175.586261548557,159.412654649266,-222.724094159292,-375.005785886495,-154.17460589333,144.653859345738,4.42375596064498,-314.42815293345,-208.849146966403,-142.19015753639,-250.453521783518,-113.849949427463,-54.692724654766,-74.5354632123139,-51.3666694181218,-75.8585042750543,-80.0392007632384,-61.2698661443187,-73.5920416010368,-69.1145721348122,-85.6966552100313,-68.8300675580266,-64.8863830198829,-48.5086587237736,-72.8555288265196,-66.575369351224,-76.5919067180168,-76.0714311118992,-109.602919185036,-71.0284709907456,-63.7241405163072
-102.057832342155,-93.3573186614754,-104.391240165522,-89.6241385475671,-92.3573737906747,-102.078675817577,-116.279385559989,-83.6376312228515,-91.9517540535909,-88.4859787545026,-101.47631729172,-93.4518447734602,-83.6603517717096,-82.4795350560635,-99.7220164858808,-94.4935988044263,-94.6881115132502,-94.0298472410874,-97.0236615301957,-78.103983354733,-88.8251685089662,-69.9155693113363,-77.4499927181897,-106.184845611019,-55.6698777074075,-118.359784559442,53.4626759037748,-63.0455968773132,-250.19617562554,39.3629141154188,-107.891966938966,-421.041970319991,-301.352642629806,74.4697349025328,93.3513203858955,-202.38264553616,-377.125108874427,-214.623234821015,52.060161869952,21.1241225548289,-287.707533145052,-241.339900529309,-123.598004290057,-288.629930239668,-150.268332297638,-89.2286031129814,-112.555206882383,-81.8173509252692,-108.513027665382,-114.982291659495,-91.7199403956067,-107.906974672849,-102.281936032865,-122.609451966584,-100.505739140496,-99.7742046319443,-85.1387522213654,-111.742210549005,-100.980720157848,-110.566964549069,-112.571133066119,-148.712356574169,-103.017473695387,-108.093759253316
-117.778390718261,-113.183040300131,-115.241772816949,-103.077439017497,-102.388388846187,-117.547674282946,-129.873225464452,-102.543531258009,-100.373006000389,-99.7977225118646,-113.348633792656,-105.934243184649,-98.0190407199466,-91.975217187363,-109.779092317491,-108.981627485113,-106.829557236054,-106.773657857083,-118.031720221762,-93.8295848171274,-101.767087044406,-77.0904849390027,-97.0264887013587,-113.836796185358,-70.9000643329159,-136.079328332186,18.7085687570341,-74.1652885559277,-234.612377337649,-23.5259818662057,-120.995972915761,-328.718640241968,-278.378696682245,-38.5376639080057,28.6814380289361,-162.648864929642,-340.610447657111,-258.726425104945,-62.1276890938209,40.607124819755,-232.545888714714,-244.926768645572,-83.9854624290616,-286.463805464904,-165.616362241145,-103.1977064377,-125.232545339154,-90.0841182278639,-118.425425666899,-129.92460233792,-105.098867718753,-118.426897585672,-105.090359820357,-139.400311821961,-107.892018678307,-108.441032861431,-93.8437037068052,-124.945849332762,-110.597723974181,-124.840938511319,-129.592061128108,-162.249934936556,-112.703997354023,-125.110383916029
-114.739430801121,-114.874338220061,-116.735741896761,-103.976024622745,-99.7569551446365,-113.932408359217,-125.812759988075,-105.687578703526,-99.6243536464698,-99.7244687638545,-112.433862798169,-99.6521849687566,-96.110940732485,-94.9141717896049,-102.805928748913,-103.671514749984,-101.344604540785,-102.134606346387,-115.817302278777,-91.4547521415607,-94.6702516894539,-65.3380267844422,-88.646373639985,-102.998624114445,-63.6544962107612,-126.806870167138,-1.08195231147045,-58.6736483599588,-197.071505507033,-47.0104764336184,-90.5889497406454,-232.447272576417,-242.696750755091,-122.379311616341,-9.86452076018618,-126.471001834871,-317.429899582991,-296.655275254449,-146.037412421982,33.595510679247,-184.654464343316,-249.42678805192,-52.2725205039631,-288.15206649577,-177.953035587321,-95.345519915141,-113.674152429365,-78.5400530817744,-109.829366206389,-124.909110480155,-99.1758305700984,-111.017572969365,-82.5789190107225,-133.044814700675,-99.5228505002951,-99.8962692987303,-83.1109157233978,-115.110132400666,-104.509615553328,-117.799461157042,-127.254718503197,-154.687217054183,-103.814499529088,-117.421428143061
-105.278833641367,-115.36931217875,-111.758503015529,-103.558265501587,-117.540485849685,-104.092388199203,-115.273142294323,-106.267073912723,-102.858007786708,-98.5161415663088,-116.247384641945,-90.1139140434014,-88.9284794120005,-95.5150277171148,-90.3120642467835,-91.9754091788564,-89.1009499607312,-88.4174870913793,-101.51489988283,-80.294785975929,-82.5871924884736,-54.1245143098261,-68.0348222578632,-87.6481958250973,-46.1411435123848,-99.5392530017911,-12.1953479896973,-31.8398874396562,-150.304388940342,-35.912602306417,-56.8446139569408,-155.570648779077,-214.583848307364,-175.398492436933,-6.44037748800589,-116.185625982732,-290.893697166279,-302.669422532151,-167.234731945562,-9.41851257065573,-151.972541182593,-243.550916728724,-31.4787663683235,-300.059362304034,-191.234156984395,-84.2940008994438,-97.6540483503373,-62.520180942614,-98.4676728536191,-110.158948050559,-84.8102109263315,-101.924999194501,-63.325407094839,-118.595567668073,-88.7649929957599,-90.8230911383626,-72.4891610471169,-104.264167432693,-97.2067953500003,-103.70852114732,-115.699454810598,-140.716439744582,-94.8206016222238,-104.700740595894
-92.5017412634054,-123.873005548027,-96.4207824687367,-101.525585189638,-164.336175010187,-93.6217933837665,-100.359656605775,-113.504051399269,-99.6111778591287,-94.4577880508852,-119.790514423109,-78.4691256515327,-80.4844731041492,-87.8641541866872,-75.3903492976567,-77.8905950455691,-75.8321785222388,-72.507196081491,-82.8043992538031,-64.6341126389092,-63.2329393551992,-43.0396296343598,-49.2170664705573,-70.9644780518916,-25.2612914802194,-69.0688758028075,-20.0307847536018,-8.22521869304389,-98.2255693701836,-12.3782000189196,-46.5002270174286,-91.2729971902501,-178.033259821148,-202.807330842315,26.9799244564302,-120.194575806589,-232.766426115611,-244.398018745361,-137.159792844289,-63.3661650715524,-121.570271958171,-198.419761277348,-13.6964265932509,-272.909545531068,-185.252836317812,-71.0857583379167,-80.5383275193589,-45.3857246313022,-84.3770997398111,-88.2698252044528,-65.1776793391571,-85.9610536524563,-49.965480456544,-97.496863566289,-69.8915078718732,-75.500462096261,-58.9707980704685,-91.2215305547736,-83.3451264543212,-82.968684684897,-95.960685086975,-122.721304571736,-86.1931926805697,-86.4445213404153
-86.8353018432804,-141.265005559732,-83.8917454628945,-111.067471801314,-222.148646065913,-89.966370143761,-95.4563744475514,-138.43177605265,-89.6042879227602,-95.9363223812843,-123.78073889235,-69.7584113903159,-78.3513593797185,-82.6963363304077,-69.2471558348887,-70.862489419947,-69.5050724559634,-64.8012182497983,-70.3431939771449,-55.6290018446674,-50.0800042773079,-36.6758566979823,-46.5589791335242,-63.6621297916182,-20.2961750921334,-62.4783929594042,-36.3642905909029,-14.5644244236691,-65.4312552644057,-11.6472224386576,-68.4400351187429,-47.8188633979151,-131.813653519985,-209.237683723637,32.4379997681812,-120.523523330397,-159.457825340614,-147.194336771955,-102.025043262964,-109.274405534547,-102.156873953493,-124.603748956379,-22.171408730867,-185.178603787099,-157.559621108903,-56.4447657774355,-64.6417372630422,-32.4541760325035,-67.8723612414955,-66.0691356385865,-50.5116068415854,-64.7924501273714,-40.0531041625615,-78.0088271800028,-49.3158128738378,-57.7414417214412,-45.7737484273975,-74.7304321653378,-69.2059997731946,-64.4399105603317,-77.1886070010797,-105.878893612236,-77.5541362294785,-66.0611968340276
-96.4851666198256,-156.851454158391,-88.8239655632865,-136.507516329671,-251.514243348801,-97.1993018704952,-109.761585742907,-171.007290228051,-90.4623840787074,-111.032350540847,-129.41260781112,-73.4155298946292,-84.3466874916584,-90.4782201506423,-80.3013771853005,-80.5966807770088,-78.807223501287,-75.5896093426878,-76.1794140132998,-65.6720647821125,-65.4980070196676,-49.900266608667,-68.4917294048489,-77.4283103947806,-45.9765949264959,-89.1268762665822,-70.7455875028691,-63.3851456991308,-73.7342397395389,-45.6842122114672,-121.441099527105,-36.2547260450087,-93.1182627017866,-196.851320800088,-27.8619726587835,-126.833222488861,-90.846284996195,-71.6220299983937,-89.6488642527882,-146.826026964463,-109.695474195771,-66.9478865659959,-74.8238994872863,-76.0583623803468,-142.184448692931,-53.280353692812,-60.8031888244067,-36.6322921367532,-60.0757440504342,-58.0401437614634,-53.9988621529193,-61.4956881730857,-45.367120253976,-78.5474040060679,-46.3703168050683,-56.2863341977271,-50.298497841387,-71.7726223470957,-71.8412049567928,-65.9083442152454,-76.1889353868652,-101.00434039246,-80.7268492762828,-60.257239411661
-110.449435139151,-152.446886216154,-101.693758525531,-149.76278257006,-220.234343787678,-104.684175969986,-125.257375014795,-175.53682894659,-104.142226363646,-126.364863098515,-126.195059167563,-84.8273563783419,-89.6059033137508,-102.179055147286,-98.8144725326208,-98.9882082526343,-98.334986496557,-101.179748965402,-96.7115322237128,-90.8069160873372,-100.028183860434,-78.3774534751023,-103.076488515582,-103.420054089751,-83.0724433643059,-125.605374439978,-110.763816310433,-124.889077071655,-100.965737453711,-79.7773935867547,-177.432495543348,-39.9112243860147,-70.1043173128218,-161.088916151875,-123.123256168247,-138.5136715843,-27.1325462012326,-49.998626128338,-88.1131452284742,-167.093228040415,-117.867431505893,-53.9354360250195,-133.31774223819,0.797051739328491,-167.481429863731,-69.9588462008037,-75.361280281693,-61.4755087657567,-70.1996826553589,-71.5172817426681,-74.534464210243,-85.5765620829992,-66.8726134933726,-100.318904019729,-65.7633539242065,-75.7723438337236,-75.381354880079,-89.0752335105732,-91.6006116244793,-85.1231597367088,-94.2426813695557,-112.446941844129,-98.9951702956983,-73.7329508465834
-117.552324213299,-130.044260882448,-107.944679952623,-135.850994063501,-151.321315926803,-105.951822667465,-124.830856085441,-141.611314015469,-116.823843028562,-126.638369107807,-115.205493927048,-97.2818383668773,-92.6797273260556,-107.925349009867,-113.908980996022,-114.068338980501,-115.873347706892,-126.52469911098,-117.98932887955,-116.059925487405,-127.430432373679,-102.617104191999,-132.360695442485,-128.26925069806,-104.33185913692,-150.49459252698,-132.885669308118,-161.507524439992,-107.697396654086,-85.2099116622712,-194.082593732637,-28.6276771081481,-57.0969765840811,-119.397400651906,-209.166936921496,-109.927611849455,30.7309557459358,-66.3378270691434,-88.0796012863035,-142.623875841491,-69.5989824936417,-69.6255921060142,-134.294839489379,27.4059759491249,-201.930633946756,-100.422313460983,-101.824700832099,-94.0579834977,-93.9141488145092,-97.2874436246017,-102.318607052443,-118.093466538597,-90.3157898539115,-128.815463197471,-95.9877211251206,-103.059587493809,-105.103191951966,-112.465639705853,-117.805857612063,-106.732307983168,-116.175353095309,-133.926429722212,-118.688393202395,-96.0550548639383
-113.101927294202,-106.979124784633,-105.345872858207,-112.701654286193,-98.5850604186584,-103.456365195887,-110.58950996617,-98.6247947161991,-118.00667892337,-113.10550997336,-104.046423008436,-104.154764323963,-92.2534766716927,-103.505202699926,-117.266520515544,-118.058762089335,-119.103694101587,-134.217511121234,-126.343138152666,-127.049114241183,-133.079301629511,-108.591073750412,-142.309864279405,-142.515621541219,-102.861185987935,-155.23850677613,-130.044755480924,-165.152220546335,-79.3480696941008,-86.7933053180371,-151.805138590544,15.5044809311839,-31.5911021804258,-123.085101994979,-305.450989229844,8.70181984495472,97.6149796943406,-66.6869582635705,-126.301210855653,-53.9903580657698,63.3310770505456,-61.950490627759,-52.8415441733628,49.0179666565061,-168.997056355633,-122.087331889306,-117.482642697241,-111.968347953108,-108.527937850261,-112.32600022396,-120.633469759501,-131.95034984834,-104.083421939642,-146.442922245579,-114.677812194173,-117.582057302476,-121.209377604964,-123.738329256829,-137.135614131773,-119.220529031285,-126.473267230228,-146.515288843237,-126.020438637037,-109.534812730722
-103.119438695478,-95.4853437479822,-103.474806003653,-100.941759955028,-84.5456596471008,-102.87525159877,-99.5922162046509,-77.7299537033457,-112.585812568161,-101.907329485209,-97.4793860263004,-101.734332088436,-88.953337777915,-94.4860856195876,-110.720836925384,-113.475518542239,-109.814397060765,-125.38601853252,-122.141091372514,-127.71993730032,-122.735443663676,-104.944596807715,-133.511646191582,-142.067422053292,-101.39778785623,-143.603409032172,-133.795666735186,-165.273673198241,-34.9236178721284,-152.720669381225,-81.1621708418877,80.8668298311833,15.7232426585585,-229.976039795082,-499.009244641704,203.883906600953,187.538226462319,-19.3955833273819,-271.48391389741,56.8993660973213,237.984201952968,-2.09779008015504,66.3898056977197,112.318605498045,-62.3905286022349,-125.518917102861,-113.363879185326,-111.510066353394,-103.26074521865,-109.711190949204,-123.836426727954,-124.1507015743,-113.642916126288,-149.83467471154,-111.758547939959,-114.006481903554,-123.469655477941,-122.937069847291,-144.097246083655,-124.624783654944,-127.981647239402,-143.824171860354,-127.633643396962,-106.800436005498
-98.8381638917243,-94.6207707329416,-105.405419771946,-99.8724965776126,-85.9847347261241,-105.180690120818,-101.602599501691,-77.29354543789,-108.89232492576,-100.548213145189,-98.245356290737,-96.4645817586042,-88.8396317072757,-89.2096946925728,-105.967144979199,-108.073480288907,-101.589478635955,-115.751899810327,-112.1902700813,-131.160039892253,-110.24915782789,-111.234458992017,-122.995968985259,-127.975793962395,-128.110946115493,-127.896381888868,-176.815781201874,-198.82597430082,3.23832849825108,-317.667978976297,-36.5308493112977,145.377887256268,61.6428025253543,-441.971527213003,-794.917614427853,396.611195935011,278.627334464493,47.9511222107606,-515.737018753884,114.209981730097,380.028009115577,77.6313181630612,151.592045900866,185.58255540754,33.1626377686153,-124.276131439477,-103.459288452196,-106.530635889196,-91.3962075505883,-101.051027781761,-122.612891602939,-108.381074291815,-123.16051703194,-147.215844827493,-101.00558239695,-103.06530079543,-120.054112168235,-116.921224515739,-141.6566874705,-126.203759915433,-126.066949977426,-136.340938078906,-130.517436873515,-97.3002967443581
-86.1863241321144,-81.2604596518772,-89.9651627836503,-85.2217876363229,-63.8494602928995,-92.7560358784386,-92.7438708662732,-64.7185798926942,-93.6538304853609,-86.93946538818,-87.9515850514185,-82.8039026438198,-79.3931305630812,-73.1137913964012,-92.7928608841248,-91.0913639666134,-88.4650541756511,-100.047847025564,-87.1889816802038,-125.490833848612,-91.6456197203732,-119.457347317717,-113.977708966403,-96.0524780841637,-167.717506726179,-106.037577890182,-235.536619458924,-259.283043751198,43.6666340069845,-511.304168444209,-30.9687268280281,219.051139689168,100.991293115451,-658.256734056739,-993.232468521459,495.964396375907,350.065934895894,107.320417566061,-709.583787463909,117.434744531172,454.879739584602,136.515288701427,178.162304807634,207.285149371815,76.7814447414474,-112.113765270183,-84.2339778115968,-89.5725460127217,-70.6609575961531,-78.4348049371077,-108.55659114509,-79.5924280216776,-109.925124054095,-127.709035850655,-84.0126913841972,-80.1028937732995,-100.187185206467,-92.6803215139001,-121.103592117208,-107.550046757408,-102.947409971709,-114.218895522692,-115.159606650704,-79.7091362021877
-58.3641412560095,-48.8963624549677,-59.4974996969546,-55.5421758756916,-22.881251387807,-65.7856979941735,-62.1801065192504,-35.6443083431337,-65.9270654033354,-57.8436540326391,-59.4731812916934,-59.1180969207845,-57.3198823176788,-44.3249467095188,-66.1238999347009,-63.230092782897,-68.9627146002231,-76.1599499914763,-56.0742081957848,-105.316771549654,-68.7738471933829,-117.764776303807,-106.641636846092,-61.6949918089131,-193.799156576332,-82.0706389467476,-276.138419186361,-311.085903908103,86.991898880302,-641.307839857116,-45.6681544789959,303.573021625771,145.802267519554,-757.003341634285,-910.414679729366,447.169489480805,393.049234279672,147.082886967039,-716.939092052213,113.636012045413,452.536629398058,158.337829084038,153.648697523662,160.723675328089,87.4641641679912,-84.210135975153,-56.2686428796395,-59.2711975188968,-41.3769586439511,-43.8740072156759,-79.4027381856475,-45.1405413600383,-73.2119146692307,-92.6622635366575,-59.3799551466676,-49.4581338929758,-67.8943368075232,-57.9875921074871,-88.6329521715519,-73.5160946483707,-64.4201890318249,-78.2615081893659,-82.5901747086376,-55.1836477945436
-59.4302954848759,-46.3498702743916,-67.529002684382,-58.9723019901422,-21.8547277119203,-70.4294727664138,-58.2963876682449,-38.6963742633929,-67.2243637019685,-61.5764103311462,-59.4863102521873,-59.5453394863389,-60.7341283746156,-47.219787021387,-67.3646699762744,-65.5835183676201,-79.7374716328746,-79.5795843334342,-65.3769940397324,-108.228721097788,-74.9485597233797,-131.794253973968,-124.986134843335,-68.0798590616189,-221.954631911745,-87.4856195750101,-308.432068130673,-337.050871225907,86.2203159796842,-695.694460516333,-88.4537883789455,331.196241245822,167.533014500786,-708.277259408013,-636.137632479006,275.985211325115,371.206032731391,132.905379352791,-569.935982394822,81.3501171801028,356.99721988702,125.55969516804,68.321784046897,71.7774292753802,55.5972612514808,-83.0795683982717,-61.7804706525858,-59.4674183930972,-46.8416995217762,-49.087494287673,-80.2878217095404,-52.9414477237499,-69.0178582162864,-94.2817132606652,-63.9410086357743,-55.6210687643583,-69.2882957047551,-66.5725878536234,-90.3270033360889,-77.5938646557175,-66.7825433184313,-82.2229391617902,-83.5082573929989,-60.7197526372007
-118.119540521822,-107.606771302234,-135.784683057983,-121.009561800215,-86.7490773326925,-130.025225639269,-116.700563969565,-98.0769739999201,-118.198288347981,-122.493906704206,-123.614385756196,-103.780638085941,-109.165681210111,-104.950593489238,-121.799272277691,-118.943578185844,-140.24610106803,-129.707376008404,-128.808818793177,-155.323235658406,-124.568977671798,-179.960608983633,-173.646297009695,-125.928865181887,-263.575773770724,-130.901350185513,-336.427863161492,-332.580585084975,9.33428526455188,-677.52521587702,-174.787342422481,239.212724682503,125.48461784752,-559.266612691865,-378.38531010365,76.6710075450542,252.19136508415,44.8108353527873,-385.271600070068,-18.092899502379,183.454952298596,27.7375741091766,-72.5138342411682,-19.3930229179556,-28.947910737971,-137.113858484912,-122.054388151736,-115.648099019538,-112.735822986996,-120.38563596912,-138.909925919383,-121.082205676077,-128.417870086487,-163.106251855569,-124.498358715932,-118.710939722818,-124.768351830857,-138.347351028955,-150.321939448825,-144.65707130566,-134.65431702642,-157.996308160033,-143.416077560377,-120.926717032439
-194.154869493829,-188.04800999051,-212.240149391448,-196.804875366661,-169.004995799772,-201.189328606197,-196.299696901995,-171.646035233458,-181.05760925328,-196.037207602062,-214.222874234824,-158.4609686256,-168.74736037735,-178.727200445079,-190.158272502286,-187.003460916258,-212.553892395963,-193.081764885059,-199.200698133529,-211.764211768277,-184.131521067157,-236.931924616486,-219.04920681255,-194.086030422253,-294.20408466783,-179.586167071503,-337.573663943719,-301.556622856655,-110.907960126476,-562.334214420989,-283.324287102034,63.5456054764493,33.8346056872274,-375.848337297682,-218.589573434597,-87.6026766447154,67.8787361477909,-76.8212673965372,-236.040087555671,-146.216193921746,-15.8039385851077,-107.251792568709,-226.772091157496,-104.794000386584,-131.631170340333,-207.255989233099,-195.166260987623,-187.340749943448,-195.613266026193,-203.370517182769,-213.929324577784,-202.656726607837,-204.93373914246,-250.07659955176,-202.522700381129,-194.142864824904,-193.844072186325,-220.87272402435,-228.97349871325,-225.603570295072,-219.003686024096,-255.050927608102,-219.228280621861,-200.356212352732
-235.576944062982,-227.202731473126,-244.668670231856,-232.063405694632,-212.729296249395,-235.321906026579,-235.334853432592,-211.649056641534,-214.160360829417,-230.166747655475,-267.507957476698,-187.416634548881,-204.534428786286,-221.39045832933,-225.989459209677,-226.107243991872,-251.152557399406,-228.69938290334,-231.984759304278,-237.782843405625,-217.725704891834,-268.827799290741,-238.695947575484,-231.621883000293,-296.094727446217,-208.887711508768,-305.699792183923,-266.205987834791,-219.099394448254,-379.961114783659,-364.650530993107,-104.722802083316,-49.4817833932704,-213.573841014074,-126.963301378644,-211.793466893775,-103.533964400587,-169.557803303108,-138.109789683394,-240.201790403484,-189.474821612645,-214.439745333728,-351.885942461909,-211.400179820479,-201.413264604635,-242.66010405881,-234.206203206044,-224.792875234235,-240.44604844867,-239.396593909642,-251.420014595476,-249.265066221059,-240.446676810008,-289.911639258773,-243.713852258641,-234.739941672523,-232.684272773629,-259.929104962707,-272.264699825204,-264.474794145847,-263.476285791551,-305.145452027441,-258.436439233254,-246.241182454249
-233.218154344231,-220.150259950177,-233.311999607554,-223.158852792221,-209.642187167198,-230.456152641459,-223.973606207174,-212.152737677425,-213.744214626164,-220.922634554766,-262.432157142076,-191.847843043915,-211.038981779695,-221.896361940939,-224.568458303747,-225.729813750777,-248.47312565165,-225.40728620315,-224.790754898536,-228.990964565365,-220.121451286244,-261.279369053856,-235.010824740126,-230.227411635907,-271.848639298048,-216.901460167842,-251.698704581793,-237.589460443568,-274.525379304716,-215.255844994727,-369.87607693507,-202.821706672442,-88.4478878033246,-89.1363032849017,-61.3857512086521,-278.300868257611,-201.05411653321,-207.465123391411,-70.0394657376969,-277.815574654446,-294.311791387607,-240.48295917766,-416.275920527875,-316.496595202399,-207.153701613005,-235.541558418621,-232.889788884442,-222.120818456531,-239.802302503667,-232.885176056358,-241.694485138399,-252.640323081635,-228.540549090065,-272.666329307616,-240.319072041191,-235.836800085777,-230.884618804165,-251.278398135445,-264.01477240681,-255.576680672331,-258.177123625492,-295.38473445496,-252.821594827603,-244.866272652878
-215.205673989127,-203.71879120225,-213.986320511249,-207.099708692643,-192.044136838758,-217.743057202999,-204.082313651839,-199.073094350958,-206.443921314785,-205.418201135422,-235.091228295921,-194.03072343408,-203.942413272342,-208.095803485783,-212.569462264545,-210.179744975693,-230.081682742842,-206.266815336667,-207.784709230079,-210.704439433322,-211.683994368342,-231.067633463246,-222.642892097531,-213.391121605402,-236.431980761385,-211.32199571359,-192.563637635553,-207.692079259477,-267.396342477163,-115.941717613515,-295.524975272429,-224.055535484911,-104.17224997172,5.13205625180752,-7.36303498928746,-269.028238648209,-222.293021756432,-214.222782419647,-9.62857694931807,-274.91639517934,-309.102833058769,-208.745548432074,-412.268368275972,-339.558948514877,-177.51801190713,-213.800927709145,-217.172405517408,-208.245799293307,-225.338277650525,-222.07093149305,-218.258706605271,-235.589006731968,-206.075297879417,-240.146522537092,-224.069332895897,-222.800762303818,-209.408465968615,-227.629073741779,-231.86232518764,-233.514124993491,-236.445746190293,-267.370245174156,-232.872542647985,-228.657309356342
-210.169686963773,-203.356215439866,-215.510452282149,-210.745771689855,-190.525133776255,-221.766536199484,-209.939348130276,-198.59486575287,-215.759133600544,-212.836366194348,-228.404213051218,-206.446550710551,-204.083130649125,-212.883675313506,-213.872901244029,-209.877595368783,-222.434136122857,-204.326500237622,-208.926869782551,-208.882285669783,-213.012496743933,-215.368682333711,-221.422807557355,-208.888526939023,-216.161983767335,-204.688127883857,-156.096541289367,-177.686453098251,-228.558381270499,-71.7120598039651,-197.710222497136,-200.032424058328,-123.988943857922,61.7161966880112,25.9776441912451,-218.297893171724,-203.490885524705,-219.559941552373,29.6067875031025,-265.66980845957,-254.439102173349,-189.273507883085,-370.232870759996,-255.420582228736,-176.662458209758,-204.020144865147,-212.151314412924,-204.446055315756,-222.765642946231,-223.979092432964,-213.742991466483,-225.359496168443,-199.227455351634,-227.130517959519,-221.148812362313,-220.862558630866,-196.873312169656,-218.542184411487,-209.995341835083,-226.434661881243,-232.6239768903,-260.274959141218,-224.342764679427,-230.603610694732
-213.943465359017,-206.852652799676,-226.388916387002,-219.962000326983,-196.941554544475,-232.203719616845,-226.190544899419,-207.738028878431,-229.842192401535,-228.32118130901,-237.546265121803,-218.712742343091,-210.902541068629,-229.988738410925,-220.873304294363,-219.514825477642,-222.096820443542,-216.09309169937,-216.378251519298,-216.296547202848,-217.685735681958,-218.962073589767,-226.045595789538,-207.920710497623,-216.382646961527,-193.64458063352,-152.204590639369,-148.004477854144,-185.524171390017,-55.0872383915529,-121.498576932751,-156.10255756493,-124.766619252192,70.0303538468351,34.1841281431406,-168.519200326113,-162.565670476367,-215.194306503588,21.6514071423467,-270.091917547806,-172.501588255668,-198.388760589369,-320.650090507524,-132.401676014078,-217.18471604826,-202.692251916114,-211.280060882644,-200.70199129576,-223.693206702511,-222.796262963751,-216.636392336357,-222.813035549354,-190.136196292063,-219.619411313067,-224.035795160304,-224.996969352323,-189.817143266443,-218.580177029803,-194.655785221288,-219.357660892865,-237.711969560912,-261.480633171633,-215.364738455389,-238.573305094211
-201.344847767223,-190.349986225347,-211.144123905073,-205.209863597197,-182.85603180968,-218.838792669027,-218.03090017004,-199.630793239574,-219.462638423971,-217.461843130321,-227.748734670991,-210.057031052461,-199.884100685377,-224.601460636802,-207.114965269736,-205.975314336007,-204.12092111015,-205.454187497008,-196.529780975174,-202.131693649668,-199.620076409213,-205.965623838145,-204.701591584418,-175.712324112491,-209.112876611695,-157.36712913942,-156.985294782913,-105.115911041757,-121.074622646144,-46.6474633590876,-53.1672091306629,-89.8170775194786,-75.0611723578262,39.5679358291419,14.6232002909786,-109.048318496862,-91.747600053903,-176.814995781826,-43.3421681470903,-272.612036709345,-99.0952662790907,-197.275806709557,-267.397733023765,-44.0528153343827,-261.157447543033,-187.269249635317,-192.424675226806,-180.389147029805,-205.881105888957,-200.708751827025,-194.745976380294,-206.561149630344,-154.289467550495,-187.863587027536,-209.209080038669,-209.137265387806,-163.696889451206,-202.783164339179,-159.989652103383,-184.396915491125,-219.233942095081,-235.266156372854,-182.653217463632,-221.440151647553
-160.465866816066,-149.622470310287,-158.718338735541,-159.166909346467,-140.945298363287,-171.355735134438,-175.086699578995,-159.495734732498,-177.035711488219,-170.385998695961,-184.133875663383,-169.312390116475,-154.887372551125,-182.163562136967,-162.733586262288,-154.957987447763,-157.617606336691,-155.738100453272,-141.666389030097,-157.194832671556,-144.548063423079,-161.968455265713,-149.018258238372,-101.340804737702,-178.084014212711,-93.9999958545405,-151.288674155561,-50.4511108964631,-17.1209675156087,-43.064256686008,27.4351702001599,-1.25009429842688,11.6335242115318,-9.18595733267508,-48.6885633723681,-11.0885932462791,0.468377174420264,-106.711517438384,-156.498091020189,-232.625423665312,-42.8846992855975,-164.147388536942,-201.620874679889,-7.61315379689041,-277.583406130001,-147.903722816299,-151.208111562538,-141.890158802885,-162.481275551117,-158.683036778549,-145.160208794234,-166.657445371275,-100.216198597212,-133.21712422356,-167.462673826268,-166.27966860998,-116.480245833186,-163.999323205429,-106.348533318498,-127.764110765421,-171.632347680174,-178.46693488456,-130.48907435567,-176.583934770179
-109.743948946215,-103.622605950029,-100.870664293693,-105.658846546813,-95.0073234004675,-116.837586400759,-121.46242953376,-109.006886260744,-124.387083715062,-116.107725480726,-130.171455532985,-112.664938240149,-99.3240186622245,-131.388947391383,-107.889669979994,-93.005074499882,-104.599293519701,-94.1363392693284,-77.8704561378283,-108.919327425012,-74.124646872875,-118.880571028567,-92.668795190258,-17.9518253106476,-141.845661941143,-34.8969627227867,-146.09786673039,-15.2824966595343,84.1357946488086,-53.0614913310878,87.736069496292,72.0470297147361,89.2020872633994,-61.050088046965,-150.571844120366,85.2958228780083,70.260243561843,-39.2002650828752,-276.057969939349,-140.533337428265,3.43333519325724,-113.682832435893,-129.696126953067,-17.5849047519413,-245.655163857045,-102.956067263235,-104.734058263423,-100.13469846782,-112.129808978623,-113.765871812734,-98.2564385852708,-121.038559818382,-56.9426019939556,-83.10107681245,-115.96518921719,-120.572416278977,-75.1711037944361,-121.040681121382,-63.4857093321336,-80.647808071561,-121.883704312583,-121.304965307737,-86.7772987230647,-129.048579893698
-71.7656604189205,-70.035831751544,-65.9689873349879,-67.9326738328295,-65.2261335505332,-82.2330204615852,-84.4886759710644,-75.2830816380581,-83.9726144506835,-83.0356710846941,-92.4636513505387,-68.1199141151462,-66.5718329774123,-99.28211046627,-64.5142979985628,-50.9541890143025,-69.4307058691654,-52.7318650224278,-29.1539309156111,-77.571712335213,-22.8188283802645,-95.5971195632348,-59.5885435080822,35.7876271213306,-114.849934368565,-0.794332985141755,-146.431646803402,-15.5347741982416,122.585135693579,-69.7231915432801,86.0411396512508,85.3432506149976,104.345613974552,-101.868393289751,-220.034738307584,93.8638949262023,63.0672095602976,-11.7715561346302,-335.122476774033,-56.6929681206806,19.554621222268,-69.8047652689384,-85.7973605429263,-69.3131737018154,-150.189489762798,-72.4765750438294,-67.3755611971174,-71.3763325497609,-74.6493337792465,-77.6445464120923,-74.4213134027663,-85.7718691773408,-36.6339787782314,-48.4387031939646,-75.7021372876471,-88.0893658501263,-57.9301324501906,-88.3775292509702,-42.6137941737805,-53.3924729793206,-87.905346559823,-80.0982369205507,-63.2926162079318,-94.0878273245189
-33.4937780236485,-36.2621007667415,-33.182367089284,-31.3090363283249,-33.8243897804133,-49.4312429544669,-51.0104042066416,-42.9446982603448,-45.7109798297864,-51.6378297999518,-55.1308958239822,-30.8491221731232,-40.0936404262093,-64.7654273757209,-23.1685510973311,-16.7634325105066,-39.4237692131375,-18.3104487000932,11.605649110831,-43.1039386399076,12.4789255219728,-63.2849138349067,-27.2905187219139,63.6273860080843,-78.7209510840421,30.0560801099728,-124.780540229037,-14.9521659501912,99.9424571283866,-64.4480865037501,44.4942246006729,37.0541846046431,28.2484465179315,-108.92855610436,-178.796236321279,-4.76608389559021,-45.7128792550749,-25.6888127562814,-300.288925517372,-41.1273040349356,-33.444612883185,-41.9659221571767,-87.4368131404392,-133.384242665939,-13.9918966666288,-42.5106041351061,-26.0684932020944,-41.6196875855662,-34.3526211054767,-34.0530460518764,-51.01635419362,-42.8850574036912,-14.5231798896816,-7.10714662573892,-34.4857941163294,-45.84326113032,-42.1144122177983,-48.7090075337935,-13.894673927232,-18.550486975874,-48.4738906440422,-31.268941591433,-33.3789313527961,-53.7071825780151
19.2543160267651,11.5475743779103,19.6615775206385,20.7395806656335,16.2906851407562,2.61528335332409,-0.301703302121406,8.36635213331534,5.12767110816833,1.06714386684107,0.17896377994185,16.8502428569318,8.28089102430235,-13.6245748113934,26.826486588053,29.6474604885335,2.01665014653533,29.0819381614539,53.5534135724144,7.20901635621936,48.958756082428,-10.4458660486749,19.2162655494763,81.3299000786482,-20.985609982817,65.5226184367708,-70.0523869359704,14.2007727212125,44.6515539416915,-36.4453453422549,-2.56384752645227,-54.5942913506238,-110.773682069629,-78.1731096140504,-67.9549723885673,-174.442791834509,-224.311101107992,-47.1777696381304,-210.613297661476,-94.1918064862168,-161.649963022898,-29.6265437873329,-110.942873319321,-170.853121676319,92.8800783513544,3.66425582962102,29.7327151862407,7.37223737987752,24.0478241771228,26.5695570910061,-5.40931039696096,20.4189510415787,28.8305531144751,46.8894032114041,22.6077602900702,19.1977109650178,-3.52927140256651,11.2450563961191,35.6314818771009,37.5502486656582,15.1522504233334,38.6928285047913,18.4807989917412,4.66322933223776
57.9507269805028,50.5476769841355,62.7414227085716,60.7637685762857,58.273672620459,44.1899823037538,43.3575889635117,49.5917343456664,44.9950146201439,44.1925900539639,40.1750989822938,54.1117423938827,49.4438261231807,17.3005250502937,61.1180515034415,64.3198428942368,33.9880931753116,60.7452839279158,77.2256835060343,43.8385243891624,68.039250311835,22.6534531341929,48.0611873616692,73.7912230452157,30.8042322207446,64.9732686396708,-16.098585339378,37.8809402209135,-35.5627863119687,-15.9615071874269,-65.5396409070743,-166.480709688009,-242.715582777696,-32.209437146154,-4.97885178485489,-367.877667067826,-391.705744687379,-52.3308501394179,-130.081912708849,-183.986030269518,-312.229613218488,-35.5527383122903,-132.157287277399,-170.501054011215,118.738329841423,43.4662210534715,72.8255688101553,49.2389763862009,68.9902087583977,71.6426080282262,37.8754240608144,71.1203300432099,66.6414788170422,81.7593977439092,67.0600281810354,68.8739820870214,35.8767116731367,60.339680098081,67.1549398732492,81.5838097615072,72.4425890915658,95.0311980751608,58.7993715198066,53.0509899007594
57.1654130657047,55.9497739850371,63.7826175556481,59.2666263180573,61.9598608024296,42.8878111011053,49.373754227025,49.1541104821153,44.7364694559971,41.6221237775584,32.0393586941219,52.2141108052237,44.6346617439423,3.18044490780542,55.8650333019522,56.9793087821604,33.8392020437997,49.0472574769791,66.8615627590414,43.1162838172828,49.4072267458479,12.6059482309939,37.0180490562327,38.7459231559567,48.0516434476851,20.3355452764405,11.1585507454937,30.6650132161145,-96.2545375534141,-4.39315219679422,-121.520361767654,-229.759082039122,-304.459627767564,16.3772719559846,-7.12537368919919,-468.134140164262,-460.972080611498,-47.3802134055362,-79.2950232121819,-250.174886988118,-386.412855362708,-53.3913461182633,-135.276273050991,-143.216649805447,86.8453874522155,48.5971076113393,79.7547208761506,50.7618421891537,69.8378511376813,74.7769441706539,46.117067414535,76.4593105940316,69.0137554456969,80.1017084018284,68.5961108210648,70.9071870145557,42.9427480978714,66.4283857476521,53.4176440975202,85.4780733587885,83.6372846222107,106.114995861029,58.3098093952424,61.7760711636717
37.4827570590489,40.3911184234713,43.7701744365264,33.1894189160382,41.0618085683455,20.5043217461036,32.8449030235065,26.6402996081142,18.410816047508,14.5367536118831,2.51228677248306,27.6118887075408,12.7238765761,-28.4937208617463,28.2461627456175,27.148298676667,17.5682672971756,22.3902557273398,41.6747903174116,23.5930160911738,18.436298490966,-9.59131628520791,14.7322562565687,17.9358923364726,43.939497458482,-1.95313973969971,22.9979527730768,32.498164025391,-58.9900176660841,21.5384891140405,-95.1645451020872,-169.291324073404,-265.099904360081,64.6863755065035,7.62419239778699,-366.697418589366,-387.938400822231,-39.2692173810455,-35.0766929881942,-224.817627993179,-316.090942239362,-52.899970348108,-96.5777402741668,-97.5268143116613,59.0575989722025,31.6660724381633,67.969624790688,29.0511193960338,48.9231315406752,58.381528419915,28.790580760374,53.882192980181,49.8295644800965,63.2282849251239,46.1589641936248,46.5197466473571,25.6009824223857,47.750589861297,24.4031123793776,67.4783599780748,59.7391144018628,89.616861938792,38.3441381050476,41.5415019511677
34.3912806005669,35.8087503520018,44.3193129075833,23.3223018173766,33.9915313475719,21.0180766550561,33.2551161904627,20.1500234127311,8.92985172957481,10.7088017265894,-1.61334119090346,22.3942681570542,-0.0684875246129248,-37.8693980490878,18.9451031043751,22.2366472499683,20.8813458543929,26.1343835729845,35.4587575554163,22.5849043888341,19.0361441568348,-5.18761311732121,22.0391881898102,45.2464534256431,51.7572906611434,48.5966225268319,37.8097902961881,81.7318230144014,77.9074274132143,66.9177663098661,26.9129666504973,-1.01204442907092,-130.785434084827,106.943884447348,78.9830226427868,-137.618923139256,-197.625241008434,-10.7006376239168,29.7914604658809,-113.164112988043,-142.810287713822,-1.32590310397716,-14.1237461793645,-24.6941236186101,79.16003509487,31.1881237817604,66.1443551303117,26.5127778355362,49.313438412061,57.6364369287619,23.1528238688635,45.3137901844751,44.6884917095679,61.7342383582486,41.0499531553123,36.6954590302806,20.4054052188183,44.5119912031777,23.8844659210537,62.758473616966,47.8087114607599,84.5632015567761,39.1132566785257,31.2573289735404
57.5575262538407,56.0539856048432,71.6283600065505,45.2900934227862,56.1232408272036,53.1549977353523,63.5774302770764,38.678151736226,35.5304881636184,36.2714772754662,26.2754802209317,50.105286119971,21.0705854496097,-15.7558051501757,46.2936219940309,54.7638274097726,54.0645592962262,64.1670344483142,61.2283355002173,55.2533631429927,59.9347486923277,30.1463123074669,63.993389190136,105.670392940762,82.1321518203242,138.788427212608,60.071242747422,155.199206244087,225.949532731478,124.200399707519,169.287884150471,175.236178672828,47.00468434578,149.527703140516,173.284470443704,48.6653208234264,20.6886866358207,55.4789595438173,119.832251859716,5.98106871612818,25.2099494136054,95.8431443258665,70.7480967648024,77.3446785575359,149.238691359978,60.4845040171344,83.6837474432778,52.4306961516331,78.2761443801706,78.8341466799945,47.8370644640207,65.8298359892005,67.973652185797,85.79849608762,64.210605267025,56.37650439476,43.6474205568534,65.5593860847412,56.033769737669,82.2457401821993,69.5388242309703,105.146731621527,68.6389935702272,54.4927907564107
88.0978056758247,84.7536288077853,99.0916270206936,75.8422349354322,85.2362064319156,89.742628079764,99.278806987641,65.1211462439251,71.9312441918284,59.5445841516647,58.4609808666094,85.0785401063553,54.2980748945663,15.0737481567751,87.2085743350216,93.9605639240489,91.5605663520189,103.088108282324,102.130028257377,100.094656129056,110.408441504711,72.8601230262795,112.487283228,158.839439800549,119.438480361204,208.757743342618,84.8064753746145,214.4959534548,316.292252729287,183.953499817334,264.723301531055,272.865634313556,191.729131463833,200.882045563923,252.996070129509,134.433323596435,171.742081599994,140.552596782023,216.484175897452,74.5352773089764,120.252646549787,188.91904708468,116.304449771023,172.10295368158,220.816853420178,93.1137550413244,106.734163311084,79.6495788801029,104.559640976198,102.108303749464,83.5283153113467,93.1405971324571,98.6140214489847,116.477523082377,90.3944772706225,82.6877159502632,73.9253232296912,86.88781513662,90.2536774435405,106.510172026564,99.9842702065746,131.942501392666,97.549873151504,91.3679747937196
103.915241527524,99.4235877397455,109.41995583567,89.2122146863948,96.8193771582558,108.907519672752,115.303087275796,83.7867925272138,87.5047326200115,68.0149658287376,76.3798417872346,101.304409348349,75.8585385208602,34.9549105886815,109.25793792263,113.818485028014,111.029518892139,121.601478057546,132.954128153909,127.80689803069,139.615344143344,99.7444409821788,144.6175427689,182.849150575917,148.14333697876,243.596021559368,107.43316532418,257.52009113084,350.896573050972,233.454005369804,303.438798132988,285.859981179349,262.051374115625,252.520553021103,310.778246294234,168.725494510549,234.769887682156,208.251896406711,300.107646280224,100.472808153207,142.357973073678,236.584023346297,122.984193705503,225.006640361493,241.142508251093,104.578418289539,112.141863385958,88.444294411043,104.805013904366,106.712043487117,101.325163769586,100.735453549406,108.043352124002,129.153101983581,95.930084700063,86.4886223911498,84.4937749153612,91.2182856889423,101.888368621779,114.134140441424,110.362852165128,139.51151484759,102.046535394708,107.198295459071
96.1984862626976,93.226626122719,102.969429160118,83.3335424195874,90.0635682688445,105.498507932625,107.454536420591,85.1531626790687,81.4442482614968,67.8850709538391,80.1517924682028,94.0592092038592,75.6058932214592,41.756131803269,102.01970305302,109.161270016429,110.497759092207,120.434996899397,135.045536560828,125.970320803824,135.169689531717,100.023468782956,153.338049153749,177.483059588273,160.280634222835,251.828778760879,122.477731756663,282.900954024252,346.900083837933,263.346967347552,295.717789585662,258.873605319568,271.551404085292,287.427640086446,338.403618769702,181.568447571018,255.563055575375,242.421618689017,358.042576145737,110.934572557046,110.756424317708,245.223521332429,107.416458826483,243.423367700038,220.256330265989,95.7020422351983,93.2462847342132,79.2113365781717,84.8418967067285,87.7191819044606,91.4731690993596,85.2204615658977,90.2655059728771,118.415299249318,78.093160433558,66.3590553930596,70.4779703638321,80.8685330943141,88.5755484302854,101.531081666182,100.756389179026,121.772344339393,87.0210044208618,91.5498480824668
65.6346185046953,69.7739013962988,75.8309379698791,61.9131030628077,74.0456842077783,75.2513124675704,78.0801613314945,62.2635228596576,59.8781778977669,49.4581822727884,67.1408548510584,66.466821584383,49.4459795410966,28.824152855427,69.0704844512952,77.3945990275053,86.0687326139054,92.6376598509012,98.1450637359333,95.4144177699373,94.7263602219897,72.9065492212192,128.670184644732,138.385721323808,143.426698123002,219.868202868126,118.135139978929,254.801384926247,292.567853880583,257.248311745497,238.695328414679,204.064722996631,239.624567150061,293.609086962339,305.130735785399,152.494202021705,251.885992435475,234.12754341157,373.74785163438,101.838362017879,28.4312237385445,225.672267998135,65.4860472884359,228.008759792513,194.587416038426,69.8031400762057,60.1014108965589,50.5832080058988,55.6836123276442,51.3656489544808,58.5219886576844,56.4845209910753,51.8920220080863,89.353211209256,43.3816538791417,34.3295134731932,38.3809785995051,56.7128338499783,57.2829772044347,70.6351738923151,78.264598208921,89.5277834036205,59.976689254713,54.0547835605285
25.992764524543,42.5832132750788,32.2461355921555,33.1636999826971,62.8454571477484,28.189659985007,36.9683440060169,28.5308637683108,26.0297174465694,10.6403317523943,38.5029606394279,26.4194488239681,8.48887941558025,-6.91788360926292,24.6175169020861,28.5667022787784,40.7344532481227,38.8139645201348,36.5582223067566,49.985255100149,32.3257747842558,33.8121620249199,71.4651533742904,68.9654638673576,93.2574077949104,137.753328037078,95.9180032640103,153.982373058301,177.744535433076,196.551315712079,132.47270247712,97.7837309343524,164.249346864545,278.899850957537,202.757440070848,63.5782765016113,187.81489293058,164.620746006938,346.739648600717,60.5673393970928,-104.244193566873,151.93514975949,-0.716504914443555,139.511737597197,148.508730925315,29.7251675374397,23.2927134468058,7.90739991470591,24.4106820769701,10.502255521154,16.381562708603,22.2729254566067,5.75979603770967,50.5502240244156,5.91190328189626,0.391279895582195,-0.828120163268556,22.7223282866391,20.9211976630841,27.7192373305121,44.1218907526595,57.4142680569342,24.3857645793819,13.210616158907
-0.499429171568774,29.3714928973242,-1.46359030184931,17.2195314839229,68.0127830448542,-6.79644611525497,5.88327528346822,11.4695523655459,-5.09447674780533,-21.2319763377828,10.3393286917706,-11.1046154092711,-24.2559525599248,-45.6244008401644,-7.32132847849933,-11.1139464246069,0.80941271711305,-12.4047463360575,-18.3206253759902,8.31994758565662,-24.0666212418826,4.39045904789898,9.87691222833514,-4.03716049172796,30.5478276450132,33.9655183304877,77.3124592154813,21.9267282682942,28.3413291890586,103.165182647502,2.86570746777882,-54.3344812118854,36.2638830158525,265.799432234862,81.4121559565767,-63.456118685434,37.8678235343261,25.122252120464,307.717159888247,11.6579050724613,-259.175943818404,-1.06294211505157,-56.3219080952484,-45.1612275209486,42.0800498134507,-9.08191535224532,-8.03291296843368,-25.9437401300437,-1.16663655379612,-18.7537940087658,-17.3876751707556,-9.6860398442703,-26.7766081019002,17.378591015244,-18.8298061028761,-25.8216937332754,-31.0297937637903,-4.21745047874357,-6.75950491691663,-9.50511806839866,10.4748592791333,33.9113073312429,-5.23187549473846,-15.1598048468962
-9.13807370173182,27.2072721709229,-12.3567138528873,16.0066964547458,71.8960277716201,-18.7851485743544,-5.86342070801823,11.6575602700267,-22.7565710727165,-31.7493304233193,-10.5974026642207,-35.4825041140493,-43.2344117686538,-70.7135813333551,-20.104918148995,-33.6124549863431,-15.469439115306,-41.9496448305104,-57.1372769647493,-24.4064795713206,-62.464169722678,-13.7509307926678,-33.8211697115906,-63.0772846655602,-22.0619176195965,-54.9998268263066,68.4844721694523,-82.0000604121928,-109.633222044927,30.9785703920984,-113.857200122839,-209.458541559666,-149.05338806352,256.079121861009,3.53143036539262,-185.87752631186,-172.719311827561,-165.334197683793,274.466202667747,-6.42211653746803,-373.574819713468,-208.121949365495,-73.0030626160115,-274.933891569471,-113.065997096774,-32.6894741532836,-29.8093229974526,-39.6907797049567,-20.1499777591107,-32.1245302208786,-37.1883241424171,-28.7018361176801,-40.1346903263601,-1.62246182153936,-32.3359789922454,-43.7585218986715,-44.8832480444232,-15.8480299543132,-25.0619402538648,-28.7731139267405,-7.78627043641497,18.2976666977525,-19.2920626202057,-32.967607205495
-12.6192362827515,16.4569369265982,-16.8873442947517,8.47441053974084,47.5198443963592,-21.0396470768685,-11.6729698576356,4.23275259642226,-31.5836217988637,-38.1842509726082,-30.7688280896021,-44.7870858764044,-57.7442669954792,-84.9709407872514,-27.8573052693177,-51.8537590805068,-19.3926909534798,-59.283101252941,-88.6876343143886,-48.2896540703094,-89.0593112997901,-27.7806696604124,-63.1447434586779,-110.108293489031,-60.5445865351987,-114.569390923782,55.9673705196089,-133.164692045397,-198.175907267862,-1.79981391618306,-195.554912557224,-320.719096553366,-354.960571760262,232.651999228462,-16.8898474360776,-273.736808056404,-367.999963022228,-347.924060390094,234.10511951043,-0.604532470807805,-388.468989301475,-389.088641316761,-63.5037643060808,-447.324402539815,-258.823838686154,-39.907587798298,-41.8149866257733,-42.4806636138233,-32.9539323555227,-37.3529304311812,-43.7832871036399,-28.5984828258263,-44.9650414031343,-8.24135749416781,-40.6449384445162,-54.0431263353177,-46.8279193998921,-17.3903827196059,-34.9227325404132,-32.2191407091997,-10.138748741509,9.28505339111695,-23.4274360156926,-42.392457728085
-12.7831203995742,-4.44343116871122,-21.129362805055,-7.62210930200582,7.06221124780512,-18.0545714754503,-18.6192633418098,-15.937686609586,-30.0322821089579,-47.6619236247987,-42.5544545444611,-39.4615351088929,-64.5472001377061,-86.6854079006726,-31.594012919701,-62.3891606584822,-21.3542190014963,-66.7043862462242,-105.03316786826,-52.7311929984116,-99.8932754157097,-29.1543375210797,-76.4993553583336,-133.296431060589,-78.226897973356,-134.056599211387,43.1433838878095,-135.073243665851,-221.307473856876,-11.5900740813678,-229.111116230193,-356.438612551244,-481.652276613328,206.32801140529,2.02026088072,-318.6511248266,-458.624989226991,-442.170886034462,201.66187784438,-11.884040306203,-311.614011199531,-458.056343232019,-55.1033129359075,-494.24020250357,-351.11462135522,-29.9684029338501,-35.7399673329395,-36.102634217681,-31.0288118380745,-34.9995878326125,-31.8889523667986,-13.0079799792571,-36.6376478633862,2.0241571907286,-34.9609149649322,-46.8173618912099,-38.0038048310428,-8.82085796578435,-24.1709789500462,-22.1519804917827,0.369525398316499,12.4703069276863,-17.8297965671522,-31.1956645766638
0.146498406390864,-12.5583745151785,-6.03741328924619,-10.5291061381518,-12.5166349650235,-1.48736180917379,-12.4059120660865,-25.6409097692398,-10.575576950966,-41.8011302718868,-30.8283722877445,-19.8879539641372,-52.1344789883336,-67.2612160988549,-16.9894244833581,-47.3491276621434,-10.1911109042675,-49.1954943830202,-89.9336742161435,-30.1826409933377,-82.9110685669377,-7.67989238366823,-58.3023722026419,-114.078435867192,-56.6856765527574,-105.226247084438,50.7320016397409,-92.7350093871334,-195.735331958908,18.5884620104003,-205.6648860278,-323.924478352557,-458.397394608784,216.133160402065,77.9053190691181,-336.047425441136,-423.772052698511,-422.529694379303,235.022619124064,-53.8181143634522,-216.076386235367,-408.088706676038,-54.5856687054115,-437.421334675138,-394.812955214311,1.90733000844512,-5.13187032450257,-11.2958086894293,-8.37901877255496,-17.6905939819531,0.749820780268528,11.472657944035,-3.96299506926899,32.9108890400915,-8.65931572590475,-18.8831875705299,-12.1734490205256,14.3684293306052,12.5812582254503,3.45713439627284,23.7582920717651,33.3904757601567,5.76860641706056,-0.355831594321491
23.459035231948,5.61399779189369,31.4141696973353,8.34217132403486,-2.12080735843419,27.8372875775524,14.2179947508065,-10.7636054983199,19.9151327113126,-13.4683828900957,-0.79732992804138,9.81067571042874,-22.4142484193443,-33.6275130276023,14.0134558342506,-10.6475412336599,20.1330478483814,-9.86259470330126,-50.1858313778812,8.14118506745654,-44.9522216446405,31.463764392456,-13.6257549808072,-67.0830181412564,4.96346470877161,-48.4771282508642,85.7901412078284,-15.4362451487093,-162.249881708017,121.39933552275,-142.821548961903,-271.046084016808,-335.011480915142,278.353798670592,246.862041518709,-357.869152904809,-332.689762494879,-350.096072106915,342.991878942396,-118.959289167087,-160.281611051893,-318.618522035264,-57.0253505867758,-343.11786215083,-422.935405477197,48.168314967536,33.3311647988838,26.6770667048665,23.8336300763942,9.89213259689648,41.9122983109192,36.5698600511573,39.4848367177775,68.8730176200175,25.232241952458,14.6104741083878,26.9621253887151,45.4266585746068,55.0141430699878,38.6555997816652,53.0907283215933,63.8713549132898,42.6485076503379,25.9111877898284
42.4915610393015,33.6562448771757,62.6696153785125,34.7246094694686,14.145751231135,55.8026309213283,43.1809721792842,13.3511594031303,46.3103323398024,16.2817945998642,26.2359654010245,37.7495109642586,10.6484109568835,-5.76613446380991,43.2382808736397,22.7926104891447,51.308677049121,25.7877856210118,-12.1310551162479,45.2023105908944,-9.68129025069822,77.0845568389561,29.2645127596311,-29.7667478450212,81.3602275259637,-0.294699600814739,136.698874411572,73.9929669529163,-151.027084424654,264.475536989772,-81.0114361656328,-244.184429584688,-217.770861804865,376.688435743338,462.5208402432,-387.558462418677,-261.230652479859,-293.403645356596,441.461151950363,-201.449136376027,-151.025762412929,-254.526374543938,-62.338145281494,-242.630290645739,-429.660568537644,84.0847764626011,52.3997347372493,53.3410649207795,44.660259484467,29.0568158622227,71.1331811430403,49.9073417295928,67.8783954297621,90.2169729301686,47.8831337687826,33.3065554484844,57.4218961611984,65.4635971445114,77.9270115193159,66.7090878334737,73.022167405077,84.8610873405988,72.0775641761408,34.0696370136154
49.8155297074698,47.1441805166181,69.7285161676996,51.7358781786872,15.4243595777352,69.3138538066149,56.1434131997535,24.3909221436739,59.046133154947,28.3216804829979,37.0314821134354,50.5779053695398,33.2046265497921,5.93358223685893,60.2857173531349,37.5556446753284,67.9224220846466,45.3076833060902,6.53068759796639,72.1031507701308,10.7775133126808,119.764171551182,57.7991184768291,-17.8685632557833,149.839886417325,26.0225432772046,191.354405633847,156.37139004902,-161.541704630884,380.248796242187,-35.9035990865753,-259.524940912854,-165.446440281936,483.541853657506,609.533417860654,-377.818441152045,-237.581269584197,-264.043775833912,462.824701579549,-244.630430416572,-184.116309627604,-216.683959068132,-62.3727698810062,-134.790256536185,-365.254675357629,92.6954691784272,47.0958840799444,55.151929178852,43.8373193339095,29.2556625756657,77.6933492180402,47.2370883006475,74.0258372882502,94.2480017380693,50.7627094525892,29.1544590949362,62.8956132952665,63.8092908952557,78.826563903552,74.9695546768316,72.094288000442,85.4425675510406,80.6727199872261,32.6581235724123
46.2506976971031,37.8361156217572,62.6157702642201,49.7702886829526,1.14752239761656,64.3056418727566,52.3914396116224,16.3743583217711,53.0308153926099,24.2585296572888,31.8823959766553,44.146120563908,37.0849955841683,3.79326068103775,63.0279751874354,35.9591320411239,74.8165005986414,51.2121670095415,7.71227427918175,83.4438179112428,19.8685595409056,146.296053617377,77.480790908955,-23.3601810759387,197.365550400039,36.2991383922929,237.840134872964,222.3478451219,-186.355300778284,447.362468351257,5.40023465064094,-315.505990864176,-180.410391895693,546.568468000022,621.527065092208,-304.174806622246,-264.085018226642,-244.307823241262,426.050334375489,-175.905300032398,-266.261632621306,-189.270326754227,-53.9103798878391,-42.4930374037667,-232.75834683951,80.3130812085545,31.7950446428413,41.8788838832243,27.4981363848746,16.2969986750282,66.566744755868,34.9558384433329,63.7163292494092,84.5911319662838,34.8576892859716,11.3436697423518,48.9219357089151,47.9490493378144,67.65149420398,63.2094365317299,54.5770621019586,68.2134814529536,72.7276362347497,24.958901764579
30.6632809922983,11.031486043973,46.3250570393534,26.7475612765423,-22.573093808858,42.2186872248809,33.7563508191124,-5.19281089892547,29.636819784027,6.24114892424313,11.6806543771145,23.5265622393207,22.2955151029135,-11.8678521230746,47.9647367867823,22.0059667167865,69.2428194557043,37.9760861294868,-3.34737234016831,71.7804617277792,14.1227390498625,137.335746331726,76.9737143790139,-44.3524515486143,200.17010212278,20.2052308124111,248.36662375526,247.798679612784,-238.06640448932,461.351217020107,33.0492731534409,-403.641368826541,-234.304566110919,494.215823350303,510.943705119726,-228.893055347347,-321.399111239418,-215.840010502,345.824985051975,-40.9575999840386,-386.030556597244,-161.241938002066,-56.3888143488065,-12.169353992135,-104.379126813465,57.3337897525623,10.0075252133676,21.5421452694337,5.24835507230924,-3.23616092128874,45.1495353061802,14.987316089595,36.0827737845243,58.7522316776777,6.77343489172311,-8.3945939411686,25.5066243236774,23.9639608015331,44.3374513732867,36.0696108353767,30.1412875683146,38.8751608751293,53.341895809537,3.64571957595657
5.59938782125487,-19.339745845651,17.3468915806623,-4.60792823027346,-47.3782586380279,12.0630681484594,5.68148457046296,-28.9925972983467,1.72423083610221,-23.0044439298773,-18.0200291831198,1.4206449680844,-1.41601193847609,-35.4290991414578,18.3065687937541,-1.3695779277205,39.8217390532145,7.84594935517661,-23.0142544248879,38.9077283171194,-8.8372262288122,88.4399337368331,42.1683166335386,-76.9988531839798,146.195933207986,-32.6758160049288,198.611604747409,207.478188983997,-316.668816523468,395.726012582968,24.6137364338818,-484.471813013065,-279.157652321297,311.121181233652,341.27219752606,-212.90774068458,-353.994665524842,-157.784189144596,206.563489657445,53.4296726787928,-477.356017652788,-111.822070658423,-52.7841260816159,-44.3155317160539,-16.1604435921716,29.0944669239892,-19.1960052062559,-1.88113768089377,-14.3826258181335,-24.9494923139055,21.4920801873102,-7.94957394249314,-2.30175706879283,22.9833445931419,-19.3849021198619,-23.8669249620717,1.80179238552,-5.28873511927363,11.7540569502412,3.06402117691311,2.62794076068423,6.87316121089035,26.575680642431,-21.8614602174501
-9.69747942093201,-29.633669474847,-5.26893738004413,-16.6015795231112,-52.8220610870101,-4.68362687146731,-7.15934175140271,-32.9240730601508,-9.12336863166204,-36.1004627243062,-31.50744179951,-3.75047017887057,-13.7617587049165,-41.2039724728456,-3.4373282546832,-16.8547371670781,8.00994568059925,-9.95590792880236,-30.8218327384077,11.4786561733198,-23.6768154478041,36.6620777978381,2.92546509428529,-94.0778316129805,79.6704106834961,-86.7630748832303,115.571655712025,130.164806659417,-367.84172357294,264.383163003813,6.79314283718518,-484.513647641057,-272.656612595035,82.3060505074995,210.688559632254,-207.170961100392,-303.067348862051,-64.2111041491539,63.3617262497693,108.252931764992,-441.291460472995,-24.9401560814064,27.5665202862444,-55.8428153622785,63.6666922613807,14.2071567251708,-33.4651831862751,-8.37536791703588,-15.6560163847548,-32.184156528135,15.3711759716935,-11.1067010252491,-20.9369294529378,2.81336593806393,-22.0067296195645,-22.4177818570694,-1.75574717367787,-17.591435382121,-4.40591244780969,-14.0219661991906,-12.4073513620441,-7.05629097300204,11.6459663613041,-23.7911598957532
6.98010286379932,-2.88485285325325,8.05827805629905,7.47116157048008,-21.7008010344418,10.7946872757184,14.5899967737083,-0.633050521862032,12.0194091740964,-7.59580956155817,-3.94920128767013,16.376415226978,3.82007785765455,-9.92191365709741,9.52381939932793,-1.23966371317314,15.4251611700819,7.53377504831624,-3.37955974729756,19.8369738088581,-2.65189194587856,30.9967769036936,5.28212794449,-73.4435512417234,64.2978500328052,-90.9231155843453,63.200574927114,84.9566568048442,-330.093670534613,149.053277732677,31.3890407111978,-366.850367416012,-202.1582401393,-81.061156063816,184.410362096235,-121.888771102022,-159.996527956459,45.9208338936321,16.8867797181245,186.580070923733,-241.767736929087,89.5392856478788,205.572762296063,49.939744013666,160.91881158262,35.8119352160541,-5.6396411807401,21.6704948954078,15.773854858251,-4.02820301547364,44.3509481198652,24.5990332250968,4.42882455854733,20.9451282119919,12.3972183092858,11.1825578865095,28.6086878117424,11.7336210700023,20.2674565592275,5.99331407879004,10.3749960194068,18.3034551779628,30.2998848216439,11.081577688564
51.2024992437742,50.1095428575079,54.3266165589732,53.892154629675,34.2669685541065,52.5213628492542,56.6085394615406,53.3155805843399,54.8126334521274,45.9631142320017,54.1111835274648,50.6643884741852,47.5917399020511,43.909334022327,55.3933696060117,44.7063753689848,62.8586143818961,48.9384204727542,50.3609616671304,59.9182799552842,44.5187320779146,71.2656362844231,47.7742424924074,-23.5852363625957,105.437350134254,-42.4593571876061,65.4569318139618,100.795259620451,-208.794842446293,111.158498680099,97.823880336732,-180.769674155949,-77.2837204342348,-140.03262555987,239.336758207261,42.6931119473148,34.0776808045328,152.371555056723,82.5983398682308,273.482010255401,47.9563275820144,205.829096550923,404.251283803587,275.413819327926,258.33978592765,88.4903591124534,58.9849557480643,78.6109753692865,73.6927398432252,57.2257153072491,98.2409833684272,88.2878439038919,59.0879775207571,70.8533186195455,71.8248757504863,73.053058019632,77.650571217458,73.0097326982945,74.1418632927174,58.0740952063108,68.4905762166896,81.4620556356112,76.551354341251,69.8702317007376
100.003596468377,105.481964989187,104.255310659844,102.900764084939,91.778053957297,99.399014381558,99.0752916577074,104.99673315154,99.263035223579,96.8149552949432,114.306340595895,86.9149615386667,97.6245647153108,99.7358463184424,108.386865553059,100.312872654005,114.777380761955,96.5684259885852,107.474967113659,108.369816770895,95.8334621607948,119.682789403222,101.238563149342,42.7390630268087,164.028443834029,30.1128337497102,87.2019343010355,153.293031435994,-55.0885588315144,131.760178730099,169.137924547576,3.01464795151625,86.6298127372038,-133.295182374319,313.739321478026,220.666510025158,244.135895342683,261.421156920351,192.104361786565,303.796299351669,328.495237633275,316.246261110904,542.919142538462,529.078321908322,342.229441561943,145.12307845357,133.324278059766,135.418885015215,138.282316925119,127.89804411173,151.169141048041,153.893589202178,110.760671983044,126.854665180371,133.310025821127,140.501049996321,122.776555402816,136.115918460861,125.191327013791,115.153161467316,132.433998976397,155.189632190425,123.286714647595,132.386260064074
152.70485497415,165.269434008155,153.827191232659,162.484514422829,154.861385474246,152.348318316086,153.481880314097,165.302636617391,153.087294253349,154.39028830641,179.253260110576,133.174770688453,153.255095332752,167.079753698274,161.122565703582,164.323212679729,163.913537259851,159.627668186274,175.453164666135,165.440495347086,160.32598729987,165.499656224948,167.905563967926,133.577888624699,229.963858909017,121.110393149402,102.995149403206,224.445659053018,107.797770729587,172.450074645796,248.151783353409,177.531197269489,279.136427219649,-118.390933561761,369.754620671953,400.881744009022,476.880444708633,413.868123264771,280.985590752708,274.530249122221,579.008630008278,453.939135071631,640.707167034394,751.596805902126,450.392843315971,197.075967929763,210.88246841641,187.900366868206,206.079327324137,201.413751415627,200.468031234356,217.747643485199,155.834874725444,183.534051797155,198.614436161679,206.227376617032,167.914896182021,197.813551460067,169.21048203433,171.385481628423,196.599594323785,224.058288097741,166.387009688586,195.024341265178
237.048836485993,257.401581585503,233.176970782325,257.817314801829,251.813229998629,236.682209487887,246.617535831027,266.993680216282,243.160291068414,249.485356916045,284.220508382932,210.422071462103,241.348559211505,271.409242946413,237.349825803587,260.804068486131,240.781133565729,259.514500300318,280.719108092881,249.65025658106,261.232536943087,233.391081771336,270.638172649707,260.710848236214,323.825823494827,242.765143541304,131.023983818434,316.382100620056,286.582467984197,230.821326614352,362.917532478148,375.837739233305,496.054287364983,-127.848360716221,381.956416001112,611.50397180802,740.306879186627,637.020404980044,311.935621689834,247.39620113935,839.004493759089,650.759297892765,764.573430059769,972.157018720545,629.552633618059,264.474126604548,315.76537174289,264.51710296332,298.941670007039,303.580990777871,271.886333520219,308.059371925845,222.461056430295,264.384231466425,295.056760376308,300.357993077308,240.30592147477,289.323285027973,236.427210289125,256.006529489325,290.805613550663,314.50814429766,236.416453179323,283.16150734858
361.101155184102,385.731607055257,349.093560766065,386.6063480253,387.604218816052,350.01651532311,374.471100898608,404.566969258753,367.315114626638,382.451685281804,435.672964756177,319.804535523926,366.211875255946,409.521587868697,349.622475567508,389.597044292726,351.225939723418,385.4386920047,416.817899662154,357.493263171437,389.798372937499,332.963222277405,397.407512817586,406.528968075263,438.148125454328,383.927655720871,179.304311313348,416.962918637107,463.947004355428,302.507323685593,487.23717348326,594.265244229364,720.36908629574,-152.672908387269,336.271483728409,774.151459142434,988.638333465446,881.23259484192,276.638431299351,260.347443062556,1074.57507564246,871.832968414658,871.139511957673,1186.75507068097,848.54047864647,358.045888452434,455.648514644576,377.120372612981,424.953679006357,444.415794153125,377.182666405597,439.332782473234,322.272153021502,377.740533010719,427.333214251015,443.125225424224,349.394575243591,424.5924399663,339.96883702018,378.096322622072,423.000015927536,448.325118795328,346.408755242951,415.122370316908
479.568601423394,506.914726350954,456.875030158713,505.55132829157,517.989724356551,445.714440851865,490.610320066964,524.873677360724,481.280379432238,508.91378912815,576.554083571141,424.763535566557,481.064445143457,537.618264543008,461.28196635796,503.883183488021,449.495451832848,487.947517894189,534.552437420678,450.603204659737,499.343910341404,433.282638730012,497.33545351579,523.643871085052,529.500467971285,505.109587311324,220.316358060617,497.948414519353,592.012688448839,362.223402566216,553.188933015763,779.377932926712,911.790491032545,-151.19724444011,280.941603732567,724.403669940194,1139.65648648206,1059.3771813673,217.367463161001,295.013297021714,1127.85770776108,1042.8635692637,817.09996706044,1284.35184270432,1016.48256190292,450.657303607078,582.435371632722,486.573426966178,543.873642673183,577.032140340731,482.962698399658,569.569886156956,424.886318299287,488.453036093206,550.582154005118,587.377911408255,459.502530333824,560.433555747109,445.492851822355,494.000460501917,546.986275728469,585.699157998166,457.431187644023,551.526408419924
538.922633608067,573.679749357391,513.070135132604,570.223588589468,590.035589576301,489.125961646403,551.971082475268,587.301640251238,542.413758968438,579.687950656335,646.561821279441,482.86158398505,540.765499421715,611.553709830815,516.855370124811,558.00847972368,493.482020494957,529.111555986464,587.861068222854,490.602070021054,546.294705035749,496.050695999082,534.960318451287,569.161795007851,565.887738426742,567.355140672919,243.940105837992,534.48311969259,628.002705965048,403.843343567127,532.650263297863,855.114706601125,1012.00783066178,-101.915759017965,289.687443484235,449.320405531428,1115.27913709155,1135.06170459419,190.955797425104,310.478578318537,888.558096682672,1120.06355433442,557.515062351953,1174.58528214603,1082.22351703892,506.881048060502,635.592463840004,546.654683537704,602.214431443068,640.964444449602,541.326816978116,636.192954749627,491.135988504802,552.433499843514,613.850141663335,661.356119500491,522.514127007129,634.997594716041,509.122471109638,558.841581608317,609.794914881223,663.411080630918,521.48781713157,626.721447000124
538.767410988013,578.307073182639,518.009110888332,571.872816435654,592.049811611441,487.89848326799,556.166232765177,593.528184003069,547.520497923289,584.555246106643,645.465201598784,487.000203688148,545.198842029022,623.363096651931,504.781163398507,549.11498362621,489.909106695028,514.380192626794,570.06086959227,477.515919744122,526.627716211472,511.582486205457,515.587631151691,532.122604710273,546.964645242779,549.020821502422,275.125548479598,507.887282157351,559.671420827277,425.149659032999,447.156595055039,765.624256971862,949.529366057375,-33.2536204470671,333.275348847289,159.460254309433,873.966040799633,1106.88868258087,196.400515125558,272.177679652358,482.791465339862,1077.42649968668,237.125316526828,913.863818734327,1030.46763931347,517.144828064601,611.866568140472,551.800528639096,589.662304048612,626.717047763777,542.191186597856,624.449603459247,507.628536623446,559.900085683248,610.002174593753,651.892722385105,527.15608632207,633.761377226209,519.550303846091,569.828338722436,605.676693031862,662.848176126315,530.30366061832,624.596189671736
507.443011834965,539.560229002096,488.52919348812,529.201160372692,545.187751609016,458.783336146999,518.949278148561,555.495514467598,513.652562782547,546.125466810026,604.350154441749,455.135474198031,510.982626562849,591.393770641395,457.637714095884,500.656006584648,461.557314855781,465.472600340795,504.850353129003,436.750598586372,464.411266953514,489.05268721557,455.080879693153,434.918776606807,485.802949068853,450.948405319477,322.306522049674,408.444691197866,415.424529459371,386.724748228401,320.545519759868,541.694287586345,690.925691850198,25.4451016541964,288.887986186837,36.2983003429122,484.42029047653,944.899741073787,179.312902500798,164.244487360331,165.33423641645,876.689969510425,28.3491319141462,650.169894838187,816.233433005497,484.843444766134,552.001952525875,516.666306792881,533.059658613123,566.809714853473,508.759617118769,566.232126877219,480.906553207332,524.200815933601,561.921027165947,595.776744593126,491.972765752634,584.780528936142,489.056909994534,538.358821145259,561.69388034584,606.34174355241,499.783527123594,578.049830012629
447.552050901189,468.372750689305,427.783806597682,456.892959836441,465.630917477489,403.421025619939,446.80822175784,476.053330696165,447.956147352753,480.986635386481,533.353759778989,397.381289697629,444.180986495321,528.461318117083,396.960002438147,427.553665733462,408.232843418918,392.950473361126,416.651496741435,379.875892249483,379.032088622278,437.47271784971,362.921146719824,315.823055185682,398.243035758473,303.206852152047,360.43834325731,254.279272835565,249.360857254068,271.68256693085,171.472882344311,284.26587940835,310.761990943355,68.9344864408579,116.438182304999,45.5001009542213,116.536318605846,622.335430700179,101.264241209682,3.92671958588599,22.6406632265837,512.671141714493,-90.3879278748419,455.91003199789,433.571343568251,410.772308418452,473.015478165348,441.831870961737,450.518351688304,483.282977868612,450.144983037129,483.257413297229,416.903127587516,449.403568348666,483.202400439663,514.04483321935,425.897724384965,504.991056412295,425.995130818779,462.716203669369,488.47201737735,515.897062605656,435.076408671603,505.670254058104
352.092781875703,366.482359042,337.402104680552,357.596291807232,357.54897338436,322.535313199215,346.31696763054,364.245866919158,356.296358594019,391.001538919559,428.000473889954,316.952673782743,352.090264498658,435.225527657695,317.708277892454,332.782742080385,328.917503747427,304.935090025415,317.207961351896,303.664445862644,282.523363821472,367.557495613439,259.84387436921,211.436095874438,304.591236531444,161.728744992141,366.724473303496,99.9120810181831,121.383535161692,137.591396102757,47.0752527582205,72.7280784804537,-46.1363746487206,81.6489224130056,-76.9439063128982,86.9296318071318,-117.13330208144,196.362927952739,-26.4360906279634,-126.302416936044,-59.9532794318162,64.9604983881559,-257.564885778891,259.386076654344,9.02774548971138,303.980706724301,360.262167960185,326.967994424926,339.789185049698,372.580983533721,353.694864941409,370.125710494524,319.913930347719,338.527584100395,374.859087456335,400.667592343346,326.25065813134,392.384223249104,332.63463935308,347.143703495614,378.140353887527,398.99662162659,336.194847757199,397.260225859875
237.065948343407,245.6881556301,231.140559417756,241.170387610232,233.262318705291,229.678884648835,233.603106108119,242.80709235164,254.543508366125,282.972736336552,300.664570810787,224.094555605841,250.137893058607,321.713722673787,222.492788635726,228.084059507789,245.148499425847,216.100533921613,216.006285093017,217.017780669836,192.691589596145,291.469624068852,177.878660867054,145.674158484593,221.984007076898,78.4273652514327,339.408108905086,-3.42165145469875,84.7616445844179,34.089676518947,8.30585016045645,-41.3409453422421,-270.154750421296,51.6543016739223,-189.625096920565,167.109761830348,-226.017535220668,-207.419942455533,-168.214440683008,-120.334193171936,-127.518313664902,-323.648325464571,-441.795065956989,-12.9378541368105,-294.892872516021,182.987069148155,215.912630056309,194.0476495294,204.410514440614,232.535351222934,224.116394534385,228.746849121152,202.170007992009,211.833298867871,242.500925999428,258.826723801019,203.239236522788,254.897404109014,220.417035119663,213.968684309388,239.259760090761,260.559109142621,217.985827839694,255.911100063182
119.463756802026,121.449521798989,122.91178484186,122.944601201281,108.141523360287,136.855138107974,122.660249977979,128.172248690925,154.479385640082,168.577819532488,172.823598142309,127.318869507539,148.307876556598,208.643291961753,131.293405500081,129.408962542986,172.196019392138,134.266718099683,121.352821136295,138.824407802317,120.361231511778,217.205213965614,127.373817615966,111.138770194182,155.926979809327,54.6429862949483,296.261868885868,-48.3392791451402,137.045137321724,-41.527831954892,48.0703343981564,-21.3140393629768,-326.600554826328,16.8628542979246,-231.281057846529,303.763462988561,-242.648109714466,-491.687888695208,-285.960524887723,10.0729930945321,-83.0853858687987,-533.260165753833,-474.791637387089,-294.192962212718,-429.193102994005,59.4389597154561,64.2423111340523,67.4706948014896,60.5925689281769,76.6764464034286,89.9728686319066,79.1410946133894,79.5387758594254,85.6302048187014,97.032829164472,105.592770285838,77.2906313709487,106.689872323588,105.985940254559,80.2571312252249,93.9206273654687,108.245690736102,98.3986087594051,104.081950648482
-2.14466511906646,-7.58437490900073,13.5896070533289,3.07242462856306,-21.2771508457947,39.548760677884,14.7710994177174,12.8002129385748,52.5198035753148,51.0062247859993,46.3028865578743,25.9216741249073,43.2894188292152,101.892701372065,50.0257388834857,31.9643814520422,96.526231437151,49.9208446431671,25.3482597259756,68.3918475848717,51.0658310182783,143.90761965536,81.7158799285512,66.3124595481122,100.769461130841,37.9861844236759,259.200821630509,-56.8831299397275,190.98859533478,-81.9245106734496,83.5263206548744,79.7013150266688,-259.70425499622,26.9516596614465,-246.02034818078,412.570523049489,-182.683078167899,-617.705296009095,-345.427976359685,131.464669365671,73.847737456807,-543.953305485017,-358.056987323166,-449.151641240118,-439.197893437679,-63.4776122702601,-84.7821428175611,-54.240379193326,-84.9636874745967,-82.8309443834373,-35.3986056308892,-68.5157401388424,-38.7065513181006,-45.2655549389104,-53.6001068086409,-52.6473946438518,-44.1416621991151,-50.333312266363,-8.34359101671031,-53.2119785274937,-49.9275530925469,-53.9866561728785,-21.2517216542703,-47.8738449374874
-124.991433437921,-146.402997866118,-101.50647046053,-124.467688878669,-160.020266429722,-67.710825082551,-93.1912176214718,-113.426506212987,-60.5735157967323,-69.9075285679129,-85.8474302275823,-79.0662103832233,-69.6030387532082,-10.126407035729,-40.7503569172817,-78.6361319423308,1.45290338899953,-48.5982003299384,-84.5728569684508,-14.2758755845118,-36.2289768125782,52.2264392186738,13.1509882162408,-18.027448697416,38.0898248847197,-16.7737650757318,217.2778308021,-64.559672102386,156.908424185576,-85.346595569446,60.4643610863572,131.937349453249,-182.001560016345,65.2260792495187,-253.859118912311,410.269870909232,-98.0744544658736,-583.649695703999,-344.627449009665,163.955478879857,181.436639296088,-437.245834964323,-267.047063350531,-448.793226453732,-368.583458224856,-180.479659923641,-231.632753756282,-179.3067868658,-230.959358221346,-239.675566691647,-159.322210012501,-216.762679716949,-149.905323315478,-182.700227883649,-200.469033690379,-213.528636361376,-163.953965099353,-209.359002245349,-128.418098318852,-181.49841588849,-191.995760286322,-217.272662820767,-144.569084565221,-199.217539236208
-229.877652187896,-273.405427379374,-212.866148433207,-244.786299132004,-285.949110615755,-171.192972195712,-193.7834410135,-231.111030498388,-176.279307901433,-181.796891444359,-208.839035832383,-177.014926188144,-179.650965537443,-125.498473361388,-146.245085345131,-190.753500649981,-105.862973019886,-150.597989119722,-195.270256134656,-109.486244534307,-133.20561243182,-79.4061008254367,-70.7727272765575,-116.105119970747,-49.6046633542205,-99.2039886803926,136.632468359912,-113.382414904909,43.7649465545763,-104.901320116772,-3.1956495872173,85.5815265228684,-179.524624158682,70.1980604092435,-278.478579785446,321.323490648577,-56.7034928930174,-455.334761120525,-320.696983530509,138.932735924292,146.593226543179,-329.388637595686,-270.663176036419,-404.416873194039,-261.919869348341,-281.757436204344,-354.826642752029,-290.303597045203,-353.587632442279,-371.273635174624,-273.668002989511,-349.987434823313,-248.517836274514,-302.336470861648,-322.836741976873,-352.347642216245,-270.962473233179,-341.130623846211,-240.879875419179,-285.887805950873,-316.150818442207,-353.568035883692,-256.985443258658,-330.886371174119
-298.665289817052,-352.996087409179,-293.903948516062,-324.994251785153,-366.70683121921,-246.140770575046,-268.409501284357,-306.486743488311,-261.55297292359,-261.531270778979,-292.588048839133,-249.424839514719,-261.957355006488,-214.161872819465,-232.375678536438,-271.700697119192,-198.890349850476,-226.424316594943,-273.692421107386,-185.46583515087,-204.890495923458,-224.840709410045,-149.04544045802,-178.803681653209,-150.029528373726,-167.876562501455,23.1876704642349,-211.039146085462,-64.0959228854452,-178.296692986588,-76.3430047799564,18.1284760475439,-219.512067774112,28.4519912226931,-330.468937624237,208.728455843889,-54.1349299685779,-342.375394620729,-299.931618653853,96.4299050011718,56.2518755826201,-278.215084218787,-284.539566221546,-399.447498589262,-182.383468650338,-351.434326570125,-421.894679393054,-358.833043314645,-421.294432536619,-445.45988473318,-349.134413035057,-434.343481902047,-320.433544385066,-371.871517111964,-396.450049251491,-433.884336713652,-341.923796380688,-419.965460645318,-314.342025826334,-348.234328261138,-395.303453164662,-433.359444387764,-330.132003148512,-409.079841371578
-330.598388728309,-380.402482776444,-327.55084270434,-352.494035337178,-397.563574553918,-281.534210103835,-304.407627873654,-333.670241914322,-294.616576038711,-298.502553680438,-327.24185642508,-283.357201587615,-300.697967589271,-253.313701382304,-269.5363771344,-307.917905428701,-254.102307943501,-263.264227672765,-304.593572170708,-218.790254525973,-234.259458480921,-316.094606272042,-221.658647102049,-195.478995015817,-235.16458657458,-207.69675928243,-84.4416051182981,-317.726850406335,-116.328008238728,-274.157620657796,-146.134270192519,-0.263307241096504,-212.724010139691,-17.0288036081473,-377.971165136007,80.3916728439558,-37.8275107076244,-274.222678403337,-271.516565837373,50.532699650519,13.1938025911834,-252.107030019688,-255.635356898166,-390.472239765111,-145.654745015569,-376.411446762235,-432.941949428738,-381.541633771184,-435.889744251053,-460.03442028479,-372.890922445255,-459.261549115933,-355.612946984465,-388.813006213468,-418.995746339421,-454.987947356806,-370.401022615103,-450.99707673697,-337.618606899289,-368.973664924916,-421.860897569781,-457.27619828858,-352.837651208373,-426.185120830109
-339.978635585984,-382.620041694671,-327.696687657621,-352.828303228386,-400.537529643754,-288.899631997543,-311.294984389958,-336.915812126434,-293.144374090691,-306.0278286321,-333.453479971457,-290.042018111423,-307.854066216943,-260.333620230646,-275.045773502442,-316.584887466666,-271.798392967886,-279.453221302299,-306.982747991205,-223.622394300778,-245.16056424522,-325.828686001478,-290.386755992769,-198.875181852334,-301.057687356586,-239.177286307345,-180.185716866887,-396.004018842791,-136.476189613238,-362.509155665454,-201.682753044275,12.3774943105461,-143.787292315318,-51.1523064396022,-399.425234060842,-68.9370226472045,-12.5588042431003,-195.891211858689,-238.357872796737,29.6558774349112,17.2238835083624,-204.309931429233,-194.775481382056,-329.745257806379,-111.132877179996,-367.874863889775,-421.843470479896,-378.079597345262,-427.464509785207,-444.717308280933,-366.9439997126,-452.457764432471,-360.922320883606,-383.457475698928,-413.418887946436,-448.45398916467,-372.188234050596,-456.107260645467,-334.839257675945,-371.404442094976,-418.116191055951,-453.140381336461,-346.065146441722,-417.181146873577
-339.458116687694,-375.307661574858,-320.721670018348,-350.3107199349,-386.407817418413,-284.419356172075,-310.035616768857,-333.425246230287,-286.908645553492,-302.912009901198,-330.538183762585,-290.840465191892,-305.443164129412,-263.006711227321,-280.706951081205,-318.347969928471,-272.16536139051,-292.010592607035,-308.63307311182,-228.938003703094,-264.723642670958,-297.461762997747,-332.261108032075,-217.112258172754,-355.030814325152,-274.912749014495,-278.277417111961,-436.089648130753,-155.480862623068,-450.447812217797,-228.125719539666,23.9275023262202,-68.9809561431991,-108.533555708938,-426.56135195784,-169.552415706536,-14.0437879342549,-97.3731623731804,-246.687176298025,55.1539151922814,55.1636804180119,-134.094874190976,-101.840798473401,-239.758967103031,-70.6158572884578,-350.711763359005,-409.93937798982,-363.683217246267,-415.003916552925,-423.947401859215,-355.02111659902,-441.692922237754,-350.25680013026,-377.522802068595,-402.45737234785,-437.22431093452,-360.822032062581,-447.962501098698,-328.295733722509,-374.476777656831,-407.187743761962,-442.402697381437,-335.921337128756,-413.438343449247
-329.334183030401,-352.610866699889,-313.713887842101,-337.170555062543,-347.26867673424,-271.551517660226,-305.230665058519,-315.750514570317,-282.485259361209,-293.871333849881,-316.071046404674,-285.533149608964,-295.18097643395,-259.48152017198,-286.961012317314,-315.686736645207,-269.54558527027,-295.286229303586,-314.06713528987,-245.35050378137,-282.35274546233,-281.161816993541,-327.296101361374,-241.401755126916,-388.148882214502,-294.658964586156,-362.068157742288,-439.098319134973,-164.676165183638,-528.538073412426,-221.477453795779,44.9431405710867,-14.8782943125656,-209.206344785998,-485.399602325217,-138.265548058383,-16.1688506786967,-28.7173158844813,-319.183530436522,92.1394822027387,138.849753363978,-63.0108178160687,-2.56148758937982,-155.099547826663,-56.97913807324,-331.414218221208,-388.59526905097,-343.072548377635,-394.452459623198,-400.319134177533,-334.99477026903,-424.96608595611,-330.727663739821,-363.5211255236,-389.390675711171,-415.477945831557,-339.347892974449,-426.115576758209,-313.667420420441,-367.37537408153,-390.463127438731,-421.865619854535,-323.867780536039,-403.783675321531
-304.424429025755,-314.154572040911,-298.335512213786,-302.74220846237,-290.701804828532,-252.741646224391,-286.365418360836,-277.003906653237,-268.72707876655,-272.706278375325,-285.068368915988,-265.909103613291,-270.522047700113,-236.974210807783,-281.314136416501,-301.286367462338,-266.591326843786,-283.292052025357,-309.27871591114,-263.231851731638,-275.840359549135,-289.726323982429,-296.597242666668,-249.912138747312,-396.946263222146,-279.18425918933,-412.9236925602,-417.199845351493,-157.558222767407,-567.226032187808,-206.608060725827,69.1940928789006,39.1315637270184,-339.167835567075,-541.201015713328,-21.4729517315601,15.4561918699304,-3.74471749028621,-408.098096759157,77.2064434507989,210.527993162302,-5.67968162237208,34.1047831362139,-105.785381800885,-68.8199604449322,-305.467021097123,-350.512832471542,-319.399177866464,-360.786245551425,-367.562031287598,-302.329542782793,-389.84218078836,-304.481250464135,-332.861871250963,-364.158047300496,-376.156901561164,-312.404617670169,-388.573695086562,-286.594191067406,-337.644389805141,-360.518168151447,-382.563658490115,-299.899832734273,-366.83531850759
-270.219095464302,-274.707678953231,-277.292616339821,-261.774299673889,-246.191013563183,-243.096618822733,-258.266685536018,-235.850563571371,-246.358264387574,-239.831421012262,-248.481364695104,-244.364483425642,-244.533902348822,-205.094385408205,-270.688104709816,-275.664400429467,-267.824614564864,-265.076744954649,-286.771606635795,-272.905415653972,-251.95163227357,-315.644137030265,-278.770468219306,-239.513031183928,-400.603200202412,-247.248671787071,-448.5534738775,-392.236735865157,-160.422477240254,-568.13749420709,-219.116227428921,45.165647718213,90.8685449052139,-474.99612332276,-547.070830948574,51.3686956258116,30.8060616365157,3.47646324448164,-458.557794461322,-6.47838924165651,176.121290382081,22.6077019794068,-7.46634327796324,-115.717868404778,-76.1556741652415,-279.092721158743,-309.708344807436,-295.472558182366,-322.115403168616,-325.983132861302,-271.876817388436,-341.434226240245,-276.580091562747,-297.182653427066,-323.229983712993,-325.196778706479,-285.01564679115,-342.715886193306,-260.986616800943,-302.796334295741,-320.827356537225,-333.186919096952,-271.245985500081,-314.082323027991
-248.221342805714,-251.584281051528,-265.279844853573,-238.04057664158,-235.226688008103,-250.508263478995,-244.06570042206,-220.450685906123,-234.604200236069,-211.842468884212,-225.100842317201,-236.608622477938,-233.555212302632,-183.852522666161,-266.940421252982,-249.424827697998,-277.212904431238,-248.958836478325,-251.013089819498,-276.935586203688,-227.06477331435,-345.976848806297,-277.307479395087,-215.706099460647,-416.891074978073,-230.515999041585,-485.09477968613,-377.094065751776,-193.371791488328,-564.595236250935,-268.707556340063,-44.7372009468294,91.98736588004,-579.745903254583,-513.020835833849,28.7128104924144,-43.0520057655947,-10.6572484061767,-472.7096161811,-124.01012788678,32.1857931521878,-1.38969346465874,-75.286705368353,-179.190613426974,-86.2190647090438,-260.535107917705,-284.871652391043,-275.487492144159,-291.029297244732,-285.742008913513,-258.20430235009,-299.492034751811,-258.482542423218,-272.83331496801,-282.182228232086,-277.127612854248,-259.819264769191,-304.531440530221,-248.30494995594,-284.642428416714,-288.643668677879,-294.28927989498,-255.912664775584,-274.630930646596
-254.159846457361,-252.87670379488,-271.2144239216,-241.378947653254,-255.072828251113,-264.23834571922,-255.263450898623,-236.250251921919,-244.705577108661,-208.056477216404,-224.516483637678,-243.434287517892,-235.625030833123,-180.821195876425,-272.273485611835,-238.53913873411,-295.208344428864,-242.111298350372,-218.25692471899,-285.802648323541,-211.489157134024,-369.367740972285,-277.507082918933,-191.016854512227,-443.103432681066,-242.976948546974,-508.22778496778,-378.055394857905,-251.600993547109,-573.580419089524,-345.308922493159,-158.426706745533,2.24646349432184,-610.002358010595,-478.723510047222,-68.1083555701185,-200.425329025496,-73.2165493288032,-474.966220181336,-246.561130982241,-161.289332854043,-92.0091670217404,-146.636009460423,-279.808205999605,-132.666396032294,-255.552325464532,-281.05745465369,-269.234736032235,-277.229436502734,-262.516660549522,-261.769195416874,-279.693741340455,-262.748908688804,-266.134031085671,-265.390489412748,-253.442342091292,-246.708162438982,-287.720611758341,-249.076749039267,-283.102430268181,-281.111799335718,-279.98533340294,-260.500234982987,-260.58239193664
-278.131368670079,-273.731321282927,-293.618770901672,-266.101147611569,-285.985677856107,-280.645207488951,-282.525588723884,-265.946915635099,-269.625367206753,-230.45228874055,-242.676086207764,-265.493315468906,-248.51814372413,-197.408555538592,-291.401810152384,-256.369962125504,-325.058992488219,-261.795507690817,-217.060918337,-310.929456472334,-229.289217002139,-391.127271652346,-297.332486622693,-201.301448366075,-469.039067160049,-297.22769115503,-503.124501498859,-405.652375654419,-325.552597479625,-568.315793505059,-434.416840648716,-263.826959135345,-157.101239329978,-547.40454666995,-430.751205368789,-226.973432615321,-378.333650651011,-182.238011991624,-445.108164201622,-357.53060452189,-368.099535478098,-228.407956380961,-240.205431348776,-411.797636454262,-219.647541969932,-272.431069270235,-294.816747902866,-284.809859218743,-287.598579656314,-268.255733040103,-281.299827979576,-287.002047973668,-289.245584700055,-279.04235327941,-280.83488848293,-264.812764965231,-256.969018076078,-295.33446460086,-265.945478345256,-293.049124410492,-297.935473029453,-291.43386931707,-280.834442318821,-267.183144731542
-302.191217060229,-302.112114201312,-323.493936658347,-299.353453046175,-310.763834036585,-308.313216271078,-311.864207671229,-295.457280719153,-299.805601315064,-265.164854380497,-270.51966130226,-303.112517437997,-277.612895452556,-232.718028922411,-327.268617485435,-296.095189301428,-365.285027204936,-312.122894050429,-259.947018419184,-354.034638083919,-292.757418485441,-419.196920482871,-356.772031469336,-267.984450503705,-492.752032728568,-391.573679471855,-477.601356975398,-456.880166465272,-394.223978169411,-511.65758227982,-507.878809958309,-357.727784038321,-309.777914032755,-410.319823797627,-318.945552841205,-426.613377784995,-527.176009896443,-304.118398913617,-336.409406495345,-436.25072574944,-559.130883914649,-361.460322156973,-347.336287359203,-559.175031657534,-323.115965362999,-305.141192811691,-321.4514109552,-314.735924421663,-317.985979557142,-296.206042399642,-314.990219745883,-316.183607855931,-320.622906653408,-307.759701127446,-312.424715404776,-294.987231862608,-285.538853534316,-318.378702858005,-297.663421082771,-314.161411836569,-322.674080938152,-317.932344390237,-309.416648507865,-287.242863610848
-318.525637356843,-323.084595832888,-344.258834221753,-325.154014675815,-324.231689214932,-336.04248804713,-330.408668288554,-317.514789325152,-323.899895060662,-293.86747865495,-296.769708834387,-335.344955138203,-311.499816374747,-269.188728191704,-360.670187683803,-328.979016400189,-396.65778882742,-360.097153541093,-313.668016009634,-391.573743074266,-359.616290205013,-434.679255353255,-419.866377111788,-343.643015358321,-502.352286139737,-468.392730397008,-443.331031016067,-492.29476987306,-419.626626969102,-407.553793587628,-532.802378782888,-424.179100170143,-377.974238720638,-245.570063088767,-165.230868207605,-599.73448681817,-611.013239196225,-393.001430063537,-162.219155969091,-487.668255250257,-679.831814390443,-446.127454405934,-420.839987892841,-666.606287628709,-415.776650580818,-326.514042492741,-343.454360487652,-335.87977801335,-343.158836254949,-320.737523834426,-345.187273005214,-343.752863204743,-335.17257880852,-330.710284677873,-334.329917501523,-316.302807434315,-309.3832617437,-337.77947579083,-324.119344057619,-332.868734908137,-337.001390514853,-337.205738967929,-330.179436208413,-306.469653925688
-315.444912178983,-318.183229704083,-337.49295797088,-323.95973967199,-317.594307945806,-331.054563392143,-323.795736844071,-315.499589356099,-321.913456017732,-295.408119815637,-301.498582088432,-329.758823899758,-317.784903129361,-276.550984283367,-358.616555942374,-329.842378633177,-389.465859885652,-363.124331302715,-326.130093719177,-390.138611162162,-372.676027212907,-410.204706894853,-429.054647174263,-353.820413340316,-467.394898030008,-458.289637685452,-396.193286831244,-467.164846240606,-383.425167820853,-289.273590796213,-501.499873042841,-438.010469387429,-335.772929287871,-103.473982532394,-68.3089619910758,-663.841881855842,-590.826268511965,-403.533815765564,-7.85593527320058,-534.023953363839,-674.413611837042,-452.306900388533,-413.073364567275,-652.721689969961,-462.016365904527,-314.018739691273,-332.025039973398,-324.864497590721,-332.329338135818,-316.119265204809,-340.710667953767,-334.791735120774,-320.819819248006,-319.143468859679,-324.496410025925,-307.562638277597,-302.565256886471,-329.247897600142,-317.78697096182,-321.683012933638,-326.3825333183,-323.836203537093,-321.831303160589,-298.943782009352
-278.447790298905,-278.33009634721,-296.605658141481,-282.774731717769,-277.389978666721,-282.023008788293,-285.739681745511,-274.369380532051,-281.552045601299,-257.550579661821,-267.625810353974,-281.490086874236,-278.837625970333,-241.070162687361,-312.348899919028,-295.847719778073,-336.634659798069,-315.886176453778,-283.146014234797,-347.058687757478,-328.673486585698,-351.512137644699,-376.100826132506,-289.556859191853,-383.169060119486,-368.253141432032,-332.059710409209,-388.383776518242,-309.546680840991,-171.908957296128,-436.732240744711,-405.247735164706,-223.556752918226,-10.5786455649185,-83.0070469556905,-593.601576684303,-469.817028403622,-328.689413647929,53.1554389905399,-558.463388018607,-535.448601567534,-377.558144109803,-311.305545616053,-497.438186280595,-430.549389378387,-270.222550646756,-279.531836477896,-275.780390441526,-280.527347952828,-271.781375766199,-290.603000212706,-278.940870788677,-280.862702964178,-269.00206730576,-276.146464375146,-259.871919660016,-258.234880123699,-278.813133106262,-273.988121025837,-271.656050420057,-283.482779581025,-271.813046408348,-279.995710640955,-250.484878322591
-217.616792958152,-214.440564847478,-234.013055797543,-213.585649274425,-209.436353930636,-214.801840008568,-227.364684623945,-204.452137810859,-218.236105073792,-194.154540780158,-204.278336965341,-217.595816341003,-214.671360125158,-179.713262163514,-248.320567281453,-241.010922698094,-268.232747508368,-250.137213585639,-212.868022079174,-288.200816920337,-262.751219429256,-289.906741411571,-293.97856199657,-203.146336027978,-285.817059883296,-259.452458539613,-262.875515427917,-295.156109094006,-224.62116057076,-58.2690019730001,-353.734455838195,-350.791423045021,-100.528227679706,32.56048352254,-167.400017310314,-442.94923915415,-308.805243997748,-213.034075226443,5.9735791155148,-502.276620356878,-326.715496482131,-258.430008738345,-159.643103107,-297.683774937649,-328.87262473019,-215.911353707127,-209.804754542998,-206.792005678024,-209.240719618307,-197.186211020816,-222.765448652932,-202.289930819258,-229.573208554644,-204.968960382327,-204.51649988884,-184.988682098899,-194.047386719973,-199.957940859633,-216.225779815298,-205.324226943084,-215.775115464827,-203.615830270078,-222.956688726253,-178.532133622581
-158.615578555308,-144.772754445076,-170.667579110822,-146.632445587859,-138.051000625613,-156.759125916748,-166.131986873191,-133.575822188053,-160.928528921606,-131.494803865861,-137.195449091245,-160.338486686405,-153.94771372633,-119.999297302146,-192.088646780217,-181.109741233514,-213.506132886103,-191.463745532648,-143.51367404857,-232.388371628233,-192.339350978031,-239.469640023969,-208.276108406234,-132.997916968623,-205.538973979615,-164.652087354453,-202.339870923343,-205.994183213582,-134.052751252909,18.0160813740885,-248.486507580717,-291.348141587519,10.8723208522601,47.9773817593455,-250.850396406491,-287.602628736221,-167.013595783588,-103.209659549577,-117.37492271648,-336.993098344004,-142.998023050355,-137.196788782627,-39.8126350425725,-169.364070302424,-205.061858651579,-166.586637180221,-145.421901481677,-143.265242928156,-138.382055545917,-115.699756873424,-168.10333350351,-130.755151929077,-178.855513809514,-148.782456924706,-133.750376919855,-110.216685495447,-130.096941830766,-122.245803061131,-164.282459681551,-146.809422837808,-142.858690235257,-143.039467548738,-167.270337881349,-109.603026298003
-108.81950482321,-85.8058102232654,-118.089824082734,-98.7152663896286,-81.4643414292108,-112.174479418312,-112.657095136823,-82.0037203575521,-120.756988648227,-83.4719856881932,-82.1727219830593,-113.097952329528,-104.75983557705,-76.063586796051,-145.951834421544,-126.717263515929,-171.678997962395,-142.655042397981,-89.2173133572555,-186.369487263445,-124.430042580551,-190.850209035385,-137.264461560491,-89.4511334256098,-150.849795778795,-97.4330685469352,-154.045224967142,-138.029153531822,-73.0218685452747,8.55424339448084,-156.073402755355,-259.075717437874,94.8502763389351,65.4701660513353,-304.688765537056,-191.737814787808,-83.0446415930396,-25.0265494506984,-244.468937322686,-147.100355869231,-58.1690755494009,-45.2214540407407,-16.7390901802842,-134.698473933253,-125.089926032005,-121.651312300818,-90.5638661018546,-95.8983115796381,-77.8742542803998,-50.1428180727342,-127.592843795732,-70.2634505569264,-131.126796388777,-103.674424153487,-78.4496638220726,-54.8884698573927,-76.0061099268387,-62.1571168940233,-119.162499132336,-101.810083845031,-83.7244490675746,-92.5643309488796,-115.717713818524,-52.8544207093105
-63.6955096649421,-47.4493395583966,-75.408246153862,-62.5469677645522,-41.8751509655872,-75.942467225556,-71.9244591099701,-50.3272796424076,-89.1549368583865,-50.1107785036615,-45.6144290292699,-74.8878203657369,-66.090565685528,-46.6280681008095,-105.785364156803,-84.2497204546192,-132.815130227503,-103.044012564163,-59.0661478145853,-152.24369998245,-80.1862621050225,-142.443172328654,-100.372474532578,-78.6170788768114,-124.496924527143,-82.9547775739283,-114.506146179524,-119.441056881236,-98.0823022774994,-74.0757753533956,-140.742900670326,-276.162734716014,100.152866293942,83.990347206633,-340.908681370895,-187.024683202939,-82.9785042206634,-3.0271547115283,-298.087576848547,-66.6245317966746,-88.3655425487834,-22.0519501214255,-84.1795836626335,-157.739497526086,-128.346293483171,-80.8890307625904,-46.0070066807379,-61.7018033117549,-36.0545579822111,-9.12747007811388,-90.6540664832174,-23.636282128996,-85.0483201378802,-66.3233335276414,-38.9880828844085,-18.5852944474177,-37.3055369438339,-17.7453584100656,-80.7592882051217,-65.0182456841925,-47.0692445246041,-48.9662523946199,-69.4735081915842,-7.22398739781174
-27.1395836156263,-21.6339357126622,-40.5724816841355,-28.1610063267258,-10.9973052699887,-44.9093871151398,-43.488895934832,-24.0010392432277,-58.2890076283451,-24.6644953832588,-27.4503383046883,-44.1837619065831,-37.6242669408208,-25.0803734061341,-70.728223919669,-52.2005244898393,-95.3598161241241,-72.1377941488279,-47.6301553283444,-119.017626108509,-64.2604102676248,-101.495809323835,-88.8516099065688,-88.3722912168048,-112.910802433118,-108.305430411898,-68.9612773119625,-136.39417799395,-178.889387067846,-143.081236593854,-181.92618588721,-295.87247815684,9.85103647707056,90.3120484146865,-361.155736815221,-216.016312985921,-142.640115854036,-50.7829063980579,-262.848228985407,-77.3160767023163,-166.830193475547,-91.7858057205712,-150.689115863057,-223.906526152809,-187.097071840193,-49.8746460790008,-12.2030755428842,-33.9840500614678,-11.0519896070134,17.7456030231322,-55.4364145370606,8.6291540525004,-40.8272990269512,-34.1581460115204,-6.15708624184226,9.35128492005986,-10.0936222470562,16.9444664082025,-49.1072920017156,-28.8966101498607,-24.6013927572463,-14.4743718216718,-29.1728266577456,28.4151532689223
-6.82450061348893,0.344213351306908,-16.7863188502562,-3.46641312280369,12.1580647717981,-19.6432444419857,-25.4263645290282,1.54923906708013,-33.0720109271839,-4.76830878392341,-19.9739636143567,-21.6856885961121,-19.2289156455659,-12.4887972613192,-43.6251717835403,-27.8172293644355,-63.671897436845,-49.065652666881,-41.1492737298371,-79.5700282388482,-56.229117499888,-66.5787599429634,-73.8839894800033,-91.3647228194781,-95.4052536915006,-119.494710275592,-4.80655388299809,-141.951633002216,-213.320016881379,-132.51568761406,-183.124748374313,-265.45290830903,-109.782768388882,109.783071375307,-343.190196573605,-183.446121958342,-202.669099424868,-161.552806054149,-183.790732674151,-16.7928223510398,-207.617153817661,-228.424362145979,-127.961987775014,-340.245455056744,-255.594427782982,-27.2009930143878,9.6417283252026,-10.5902558039481,7.5322638652916,38.8062840807412,-27.2392390129728,28.4858747909152,-4.0725835090421,-8.59843302834378,21.1289401278211,31.0818796544955,14.0787452857847,39.4897444210014,-21.7206124828126,-0.486513955322363,-3.5686720153507,8.44160973814114,3.6472878779155,51.6305931698617
-11.4858923575614,-1.48923039309486,-14.6104946593499,-10.7864614899252,5.23354594523299,-15.5057757614974,-29.1968651051179,1.24597386794512,-31.3723767791126,-6.93389042470241,-30.9531154149101,-20.3818067058774,-22.4006041073457,-24.9010393851451,-41.3733382848959,-27.4389960488782,-53.0306308683167,-49.1457555108402,-50.9604778483141,-58.4066742843162,-58.3380696216479,-43.1754854893968,-63.4059902277762,-92.9972625345363,-84.1805101838972,-110.285246172658,53.8675661798456,-134.066045783692,-183.373064082476,-77.5679688845208,-124.668271060825,-213.670642479061,-208.688988286128,157.610718526791,-287.970162611122,-95.388493644143,-254.18526997033,-318.865457679586,-103.232816674554,159.14128650224,-214.046461185435,-375.139812345812,-51.6312296986927,-495.923426336941,-331.697256221489,-17.197483816599,0.794844064652868,-6.02306220054266,9.00857101166759,33.219583471532,-20.3780613458946,19.4035263377235,9.00413882048351,-4.02212638987072,20.682970631486,26.8096002682801,19.8343470348567,31.1237609800863,-13.3682770073488,-7.83646068937801,0.350217350213579,5.87967735970424,9.98835696262631,47.3905963816712
