1.44992875838588,0.217489313757881,1.08744656878941,1.30493588254729,0.724964379192938,1.30493588254729,0.869957255031525,0.289985751677175,1.08744656878941,0.362482189596469,-0.144992875838587,0.57997150335435,1.66741807214376,1.23243944462799,1.59492163422446,1.23243944462799,2.10239669965952,1.23243944462799,-0.434978627515762,1.52242519630517,0.57997150335435,2.24738957549811,-0.217489313757881,0.652467941273644,1.37743232046658,-0.434978627515762,0.217489313757881,1.08744656878941,-0.362482189596469,1.01495013087011,0.289985751677175,-1.95740382382093,-0.724964379192938,2.17489313757881,1.30493588254729,1.37743232046658,-1.01495013087011,-1.30493588254729,0.507475065435056,-1.01495013087011,-0.362482189596469,-0.942453692950819,-0.942453692950819,-1.52242519630517,-0.942453692950819,1.37743232046658,0,0.507475065435056,-0.434978627515762,0.724964379192938,0.652467941273644,1.59492163422446,1.37743232046658,1.73991451006305,-0.797460817112231,0.144992875838587,0.217489313757881,3.11734683052963,2.3198860134174,1.59492163422446,2.60987176509458,0.724964379192938,1.30493588254729,1.95740382382093
11.5196509085085,5.81674673492445,9.94467406392869,10.6141737065833,9.09466159854179,10.6866701445026,8.47771360416187,6.5232228686046,10.3796526914445,6.794720374769,4.2417698903446,8.40667371037441,13.3490935578718,11.357626331289,12.7876103000303,11.0676405796118,15.1230714706968,10.9226477037732,3.15577986568703,12.5886092317852,8.26168083453582,15.7385629209449,5.13021539088891,8.38818546486163,11.3931462781827,3.73575136904138,7.84664699666467,10.9596241947988,3.42727737185142,10.5431338127958,7.17569080987825,-3.99559652215111,1.05483971015934,16.7720012973278,11.2666416478569,11.9006213436178,0.403828313017532,-0.899651025397925,8.93263702132225,1.12879269221047,3.7172631235286,0.820318695020514,0.892815132939808,-1.85913641972969,0.385340067504751,11.6831320298599,4.92975777851198,7.55520470085567,2.3583190485748,7.93471859183309,8.09819971318445,11.7001637312409,11.9006213436178,13.0406195606819,1.00083151775283,6.41520648379158,6.10673248660162,19.4315116224333,15.7200746754321,11.8451566070794,17.1685468896861,7.42724352639803,10.541677268664,13.8551120791751
39.9220816042634,29.6849846336776,37.8914908162468,38.0056583277128,38.285889338197,39.0746166509894,34.428368547376,31.7746786383266,40.3179366703454,32.6703662335049,27.2919116560645,37.1839585801395,46.4101094760999,42.5058574530605,44.3559354183447,41.4198674284029,48.4849188497762,40.8768724160741,26.0290472887686,45.0366812118781,36.71346000573,49.9678200429429,31.9001271662252,36.4861810852252,41.0918142177191,28.4185166518417,39.4618079438594,43.7223561642886,27.1422241977048,43.0811343738937,36.3930493313849,13.3890877338228,20.6027356455747,57.0764343892532,42.4790361449326,42.8473038850313,21.1138491911037,19.0364923053146,43.0445583245728,25.3512494490528,29.3156607911518,23.1325033019652,23.4040008081296,16.4589024487245,20.1985823824316,42.4677899940538,28.1763531003641,34.2612838114846,22.1001210280095,32.2745111674229,35.2551981847291,39.7035013225245,42.7023110091927,42.9589238843843,21.0290156343246,33.4971958708579,31.3509461616895,54.8779231163819,48.5450781688356,39.0140568902253,51.3104229427922,30.7365108138687,38.6766145144992,44.0510650356949
82.1751785543174,73.5403858912632,81.7755212681862,81.1530670632917,86.0569066407321,84.9627307883589,79.3800218801776,76.1251774752483,87.4537512040506,79.2421183623882,72.7981912051802,84.8220004184692,94.7860834945637,90.9664719244794,90.7872486752376,88.4711681125557,93.5675959511976,88.4197074322619,73.2956376911201,93.7429362459122,84.2445764272276,97.4377387025511,80.5265966442404,84.5581050814044,86.8410462386639,76.345873192528,93.0627369744417,97.3498021843706,76.7920924692371,97.5303553743417,89.7939156896098,64.1042178217017,67.0731176677513,114.94041993968,94.206313827405,89.7405033137311,69.8628628411253,68.6157002344808,104.515550392131,80.3888894609612,83.4323553115462,75.0582515820353,75.9539391772137,62.5268517032791,67.5520355409394,90.2773471994068,71.551186836806,80.3747937503399,65.4958322838069,72.8036027059465,81.8822884467482,83.8795272485626,87.892572418855,85.9999310175517,67.6012684163465,81.1644134256042,77.7001946870674,95.8667168146053,92.4289680421018,78.5180695069493,94.705564968885,72.6035455352742,84.8017971791204,85.1730151440357
115.324828901315,112.37796927758,115.191200144479,117.995175449963,125.11611388731,123.806020775566,119.1634250746,114.123042490201,122.245564094949,120.878834828171,114.829207337522,121.13013575853,130.195899276036,130.62250739288,126.210307763502,124.982071077721,124.03826510062,126.206583144337,117.624624121597,129.267839552243,121.061323669627,132.401181264497,119.464894165038,124.996387231581,120.851528218444,116.853371590129,132.509511373308,139.907103873016,123.263601070535,140.511124025096,134.459958093979,116.959321618785,115.276892838181,154.601044090615,138.661600808557,127.027996791287,118.248286100738,118.122205320302,154.644269070095,132.525270440027,134.056269145058,124.747349963483,126.849340719753,108.29610210393,115.246995810975,128.444273333199,109.303708535632,118.516642569487,111.158731707739,108.599189405038,121.024459956546,124.95190773835,121.654602372519,122.119729716307,114.377575086684,119.697932405768,117.991183842908,121.403470756744,124.783377267511,112.546388464065,124.422938005662,113.401158222633,123.36348034619,115.707193266991
120.899790498278,121.660932375539,119.099145570678,127.785916270644,132.807079556626,130.250691867587,128.521042578611,123.48269091616,123.682917395,132.091446249233,125.697760977847,121.96591494704,131.678753732713,139.278699405566,129.754822943026,129.990544868312,121.966959775775,128.96304629675,127.658901723256,128.793362540946,124.366413637471,131.532689019549,122.541703406163,131.627872747128,117.973834092241,121.51774481198,128.781721893602,141.263314531762,131.229471706708,138.047678352903,136.194147076108,128.615160041381,129.614169305723,147.96725234061,144.647106777978,131.455332932603,129.841740083048,130.487017340396,153.129333713662,140.693196974479,142.573887527933,135.500632504234,136.425559494164,121.366192515949,127.574629704407,133.503432205637,118.189631392264,123.950857190349,129.837315255484,119.368450228239,129.255162907363,140.279486202397,127.397870571145,133.702525265003,126.068752667344,125.736931886869,125.808178808105,124.336809777668,130.339514117369,124.303226043851,126.702109329071,127.916857165678,127.364736399203,121.879951636999
103.141757970057,105.754754955801,103.385683520094,112.421356568427,112.525088901934,106.616311996113,109.563474824568,106.478312141965,103.405914373424,113.541768967837,107.860707403278,96.6543125095141,106.241103852915,117.7594630288,104.805081727863,108.014539852115,94.9066720799505,102.294855611354,105.551095118996,100.56828815226,102.744759270503,95.5304382621021,96.4724245710191,106.870345355545,87.0606085747671,98.2159039952079,92.4774669062764,106.599272819553,103.045752441445,96.0721501917185,101.77600972672,101.178018012516,110.148448728069,104.45053087549,112.154483641384,102.737676783233,106.417205022048,109.862230219471,108.465082472235,108.258224099981,114.213206437545,114.83191238228,108.663847616292,103.81270698262,107.0562751919,111.066611793351,103.742138196718,102.456537652751,115.5013501511,104.672513930573,113.008199241464,123.752554949436,110.200044304465,116.773236454967,102.232994547469,106.985952130337,107.355410632735,109.931486131596,111.132490912283,109.368463023068,106.001422104098,111.904797475922,102.215786705188,106.294982574885
77.2007516627582,81.447460549138,83.319512286187,85.2120304838472,80.3452887020664,74.6993551134969,79.2612951175965,76.8640213440954,78.6849312001931,80.6463625866497,79.1782015303383,68.5189192301713,73.1553284297945,82.5992203058469,70.4921780506079,74.3706017809831,64.3190245962334,69.5576815620911,73.9471340433751,67.1070154777385,71.7947665013611,51.3416679252274,61.0395423019523,68.7806919126728,57.0957898243137,68.4324204601619,52.0969056296744,64.0160487333328,68.2474717753092,50.0026805386087,63.0194971506611,66.1745869336511,82.8254335686807,54.820883773974,67.1576762474795,61.9563770815627,76.1626962575749,83.1264392324819,57.202504773933,66.1635117786775,78.7043671121557,86.0932198809368,71.7897277357121,76.9299300844651,81.1039081976156,81.8427293295687,79.333125102785,73.4886397594582,83.4896995115517,78.4970419182658,88.280983585169,88.966015658235,82.4684202271197,82.2584287305919,69.1532077636634,79.6960460270595,82.0663828402195,85.3287542027515,80.0694702098995,81.1499605691978,76.5231638205169,81.0518410053381,73.0833795194666,78.797037881816
51.7477017753928,55.9928803775614,60.9481106067907,53.6895450887156,49.0766315290828,47.7602184568317,49.2737913714267,49.1246681715971,53.8200338132055,48.5454923959165,51.9380517344846,48.3260952208222,43.6179786180709,50.97497488699,42.1917420382205,44.8690695391581,41.994110081606,43.6657372003238,46.6048015785043,41.3181768390022,41.3110874145021,24.5811723674195,31.8651042784953,35.5220812976709,39.1463816374869,41.1119580705319,24.4984552300715,34.2661931739993,46.1940203225825,22.1179922804665,38.0136518053418,42.1660635052371,60.7846666845559,16.7160653365849,31.0574355812035,31.3732679172879,55.0133081244309,61.65345064094,15.8724169042624,32.1742044026229,48.1464608863549,55.7096428795033,39.9832865643597,55.1786715714691,61.1679204811104,54.1731513596378,50.6067591637839,46.4767450708206,52.8681409265213,52.9467582058563,61.7367676028402,54.3541453281309,54.4758684872171,46.829422971277,44.0994256024902,52.0361026273446,57.0662492354245,56.4343370527212,52.4701375638917,57.6910801223077,48.865805102269,50.3490264074693,50.6930192903446,50.0182511939959
31.5190191953974,34.320286578904,36.9189567532837,27.2052776944894,27.0370564718052,27.7480940114269,28.5310802660133,33.3582549469791,33.5531418777851,28.6303478225512,34.1043990506655,34.397967079216,22.2733052456935,31.3287292395462,24.2289697025798,30.0797227396046,26.8196663994297,26.1603797896744,28.9928448860636,25.3415000518696,24.1386323068758,15.9408411097183,18.527418350113,21.305768927974,25.9998235552672,21.5524800803781,10.8908852411908,20.5031731840867,36.2988241965164,7.03635756224861,25.3384460796101,31.3074567649189,43.0164986269859,-10.8744378606434,10.0093918388099,16.9063103451184,41.5918981505268,43.5012802050283,-18.0543633833773,9.92141608565707,24.5990880208587,32.659984579065,18.3411492863017,40.2391244274727,43.7296426852994,28.7174080822954,27.2225675895106,24.8854239397979,34.6409282608035,33.0485456609124,38.5276002769476,29.3673481547042,32.0446834029147,22.6155910833925,27.0445848441467,29.2802741849334,35.3629710364524,31.1373100042595,36.412176044906,42.3661699342243,27.052046220213,26.8928252781614,33.3392929206849,29.2594188982027
17.9612950716536,21.4884610446892,15.9739221480608,13.7852336710173,15.4187184619201,15.0787893697928,20.294775086801,23.3839868570566,21.5695040461616,18.9963609869178,24.6615343462527,22.7040672509818,10.5373440742505,20.0025775376227,12.3388572379267,21.7274311320783,15.7801757032216,13.7075702289552,20.503414440637,15.4006900182289,20.7048630436911,11.4831405237526,15.8442810427282,20.8629142371516,15.1557783293348,13.0880078926898,3.30875640889951,13.8428903355153,30.9520585675467,-4.65627995075948,17.0375863594613,27.5594241751835,28.7330924761644,-29.1822391384807,-0.201548172598715,11.0516692492133,31.0887644429883,27.3142016749239,-40.0639683718145,0.322225029793915,11.7991243469895,24.1342200549259,8.39569254097107,26.8383687709727,29.4907907280975,10.0972789803271,14.2188397914725,11.3679671015562,25.4791075768994,19.4348735801611,20.7502986809318,11.6882564315731,14.5764999162571,10.3638575985951,13.2569265153285,13.5151330719571,19.0101080586813,14.4123709714327,23.6620578844719,27.6162684566401,10.7541164301339,12.480984361172,19.8361267158724,16.8047096825519
2.59713542201882,8.72118024803889,-1.90163563633775,2.69827618007223,3.40285770145949,2.74019950659912,12.5232100202248,4.37026406961442,7.90177057200977,3.7425620076324,9.22641816230059,6.72456417298254,0.0988798661776934,3.59615733312963,-2.51305473514683,3.15808156415346,3.54477477655486,-1.92912416652279,7.34195708877953,2.50850732037646,10.990266017937,-0.0435749414769719,5.76229314290379,11.864535613082,5.75081276770751,5.77595020095112,-7.58503780500757,2.24297335801718,21.6853895557757,-13.6915371288829,5.43948525797146,19.0186451032168,13.77580219132,-35.379157423178,-8.34084031973666,4.36410797104538,15.9254359012503,11.2616148058773,-42.3872303368456,-4.90047976824859,0.999633157628288,12.8247274889136,0.837562851345651,9.43267175368319,15.6335358619968,-6.01545602793768,-4.39677628418513,-2.56161638455443,9.73168856713219,3.59723453655107,0.541601113893308,-7.96002196663855,-4.3657560923254,-4.84595420348067,-3.25456514664156,-2.29540659215873,-0.00753727213168964,-3.10410503717482,-0.0116847174596986,6.4589513510174,-6.50359838506342,-0.424079765449187,4.38505572176824,0.449362486737472
-21.0432116764924,-15.3394437115927,-19.9101341827907,-18.8663784335088,-17.8444218939705,-18.7443459609356,-8.28716707314277,-21.015101942694,-16.8524846820274,-22.7624073179815,-18.4110232398761,-17.3639264683813,-18.6548504218283,-23.0868791046599,-22.5327122678465,-22.3192880788098,-14.7912093760085,-22.7294754740963,-17.0398361259282,-18.7005448104808,-13.1875127877686,-20.4102503430247,-16.6301018326251,-11.2810434305236,-7.79695405976936,-8.06315040798243,-22.2774802355566,-18.0307587785612,2.35586695318363,-21.9289234432319,-12.7331531825567,0.0399128131035032,-5.26630798144613,-34.6288262530097,-19.6659779608753,-7.6091967583901,-7.43606610514437,-6.93053695706142,-35.1080446349087,-17.7428786941889,-18.7450542965797,-13.2968443708964,-12.3948029639326,-12.7983668327573,-6.00685233402903,-29.7376224457225,-38.9199833676462,-26.9804519186417,-21.1174063429598,-22.8324178066795,-25.0767427741967,-34.2724821753527,-29.2867242566696,-34.0915568584866,-26.9074157713154,-24.2945587568388,-26.4426125684521,-30.2864218746364,-32.963667586472,-20.2493470071315,-29.001488411263,-21.9309638296217,-18.9580995277476,-25.9296477948098
-47.9531036820288,-45.8107774112432,-40.7659674019027,-47.6216145401688,-43.9276014630061,-48.7640915633163,-41.1266721969542,-42.9835562305927,-47.8290521453682,-51.0770115211312,-47.959291377345,-44.3161829043303,-45.7454762155469,-51.758048965032,-43.4714053231615,-43.2250965335839,-39.7030732527517,-44.520915590435,-42.7426777637959,-46.1333903360891,-40.0451857028867,-45.9299305154069,-41.1626868444298,-36.7513342425278,-29.4066759173517,-26.845421522386,-40.1093139422096,-43.7384246677647,-25.7688009741562,-37.8462807853309,-39.0400100368355,-26.5096358161277,-27.7353104645294,-44.1099756482567,-38.9006882156668,-28.752741942101,-34.678261686052,-30.9943988887448,-43.3206296758685,-39.5262946520466,-45.0634873394285,-42.257930387178,-31.5241467782914,-35.9585773740629,-34.5236835937291,-59.2524324243141,-73.2274279995814,-56.778044523354,-57.2391764727424,-52.0740678554932,-51.4887999574193,-63.6099818397141,-57.7399689124638,-67.1059333587424,-55.297579058982,-49.4683001965252,-54.2089204572634,-59.169996107976,-64.8019636584977,-46.9460117245608,-53.8726910660382,-50.4846903872665,-47.9106949384269,-53.534747896274
-78.5488041430133,-80.028138324553,-72.6639958090205,-82.3863531838964,-76.2610287239374,-86.3991225570121,-81.6456307632677,-74.4027919888251,-83.1647902125388,-84.0758999457373,-81.1380661838584,-74.7186769904777,-82.7490448025579,-86.5103461425321,-72.3429225709605,-71.424765539113,-75.7842343928432,-75.001475741619,-73.6751421754318,-82.1768551750356,-72.9417780060806,-79.6969085163923,-72.1704879539612,-70.5120688028766,-64.344291633554,-61.619711814028,-71.8558542422112,-79.9516114521747,-63.7952662910694,-73.3165531402371,-79.5245915043359,-64.4233284161145,-65.1134328225432,-78.9707147669022,-77.0619643545305,-69.5798993810617,-73.4065836011538,-71.8566807123174,-80.2479894467782,-73.3431215414633,-81.7382778746759,-76.6293966171469,-63.3075944374318,-63.846828525549,-70.3438984425094,-92.0623444859052,-96.5710405110625,-86.4722078109026,-90.8359387215107,-78.1890724855027,-83.6459282110901,-95.1061092814089,-88.7164326158521,-96.773889087137,-86.1434443835814,-80.2778255191323,-85.0281520237291,-86.7770622235216,-98.0896606006768,-79.4219672090378,-84.8402533627604,-82.5091369331521,-81.719303108926,-82.4865769813726
-121.049882330581,-124.732321593046,-119.434086590504,-126.47572193671,-124.716099621121,-130.760130201401,-127.72282892457,-125.757360221754,-126.225851391566,-130.848617179587,-130.074612697623,-116.697316151366,-130.561088871882,-137.951644089192,-118.230300603761,-120.591183950375,-123.677499494654,-123.325637046588,-122.413059796015,-129.319800223774,-126.13623026821,-124.419682880164,-121.41405546853,-126.049400822995,-111.72775524483,-120.527076558464,-120.57140510191,-131.078433456524,-118.012933604721,-126.613049265262,-134.31661362746,-117.524830265584,-127.4974972606,-132.253971506309,-135.349795346157,-130.573512203295,-132.783035684847,-132.448690267185,-130.27947577001,-124.814539716736,-135.260939819958,-132.696764533019,-113.602086281402,-107.218888890739,-122.629964912226,-130.619953812523,-117.879077689953,-118.058321340616,-123.474856000058,-108.959698802038,-123.567061139781,-127.403499081128,-123.023865863546,-130.949843665539,-118.497762124398,-120.585608827939,-122.606505253875,-122.331037141291,-137.610288720942,-123.968852932339,-126.157770681086,-121.161390051974,-121.460545408593,-121.173168990433
-165.191000744324,-168.716097508925,-163.558333891011,-167.905374858471,-175.683482905096,-168.559659449171,-167.117297563663,-171.095232245632,-164.783926051164,-176.136521945367,-179.288997039453,-160.233847937783,-171.499795130789,-188.449933010611,-165.607232555445,-170.567138522147,-165.326177143716,-172.045344029599,-172.172352772723,-170.812184228236,-180.851072355421,-164.867504786844,-172.834553023412,-182.820817441204,-150.245186962191,-175.713296740894,-163.354802852609,-178.668731452216,-174.988245120634,-171.302341386942,-183.795384843898,-167.603045196667,-188.790996809102,-176.428001945098,-186.881419065849,-184.989345447079,-189.399538827547,-187.722635718124,-165.487332888378,-174.953395656632,-184.264464167034,-192.680553065336,-164.287135113488,-156.463609927724,-180.531813505596,-165.077438706952,-140.385583712663,-146.903276917285,-149.875644832702,-143.044963824855,-156.291867099557,-149.844546954978,-153.737449806531,-164.5220614769,-145.026881134385,-156.12137352845,-154.90669951763,-160.951631544053,-172.39461851786,-164.605300147974,-163.615395068081,-158.784458306815,-157.760716443482,-158.947362271086
-183.941127568847,-187.342246185949,-180.659470729626,-186.722959825565,-197.483891474047,-185.209163795226,-182.569713610875,-182.063383130611,-179.598242114499,-193.990041417696,-196.937238378094,-179.903966692541,-183.328671658125,-207.062724708687,-185.668204300387,-190.565973801589,-180.683111276213,-190.535057204541,-190.526771644339,-183.533208788195,-198.434864437839,-179.548739383383,-193.078462144504,-203.072544723043,-158.825084228615,-190.676263764544,-174.652124489755,-196.461572285295,-201.358334371836,-182.238186769328,-201.822662173035,-185.594327609166,-209.930177919819,-189.276097069523,-199.304693547543,-203.489406039638,-208.386959813934,-206.635520140078,-173.430156941562,-191.536549697403,-198.95560572516,-215.757373163189,-185.587420854451,-180.39052235173,-208.715388988603,-178.517362491877,-155.589446032765,-162.787111575327,-161.883720848604,-165.659086962959,-170.86572083061,-159.132234760348,-170.302015743039,-177.850341202042,-156.675730367592,-170.237117943629,-170.411257081278,-183.893276311493,-187.817919120109,-182.683410775647,-180.031229256187,-175.126602158771,-176.346961176008,-177.212759573233
-169.620903491905,-174.979904222951,-168.49175880122,-178.775678416355,-184.085593187946,-178.095328735824,-171.153113833462,-166.995229497063,-169.378138689653,-181.314626512982,-180.39565325624,-168.889450674034,-167.63693522145,-191.459426826142,-171.639524742293,-178.242224697575,-169.369308929413,-175.096247924936,-175.760073970666,-169.552317659624,-178.526838033139,-167.301170035681,-176.965235487888,-185.332615719288,-145.982186892454,-168.759801497795,-157.086744610525,-182.624969228181,-187.477170312073,-164.445924480514,-185.459373744299,-168.049094877986,-189.424663327111,-170.775454322784,-174.551297063947,-186.210691593901,-188.264253627504,-188.319608943518,-159.772475555588,-171.603777040708,-181.892510912164,-194.576000530907,-170.875744089803,-167.373163912098,-192.22991603241,-168.557161194435,-156.168266199498,-159.894617685219,-158.61617285228,-166.262384170423,-168.603095026819,-161.082167333555,-168.064517574847,-165.954261071407,-151.093304552765,-164.882845628592,-168.773749886814,-181.948076110203,-181.093425616569,-178.435003896054,-176.164207020909,-163.486829568023,-171.325557268114,-173.603871945504
-143.150472685389,-148.21356606564,-147.873568693633,-158.939338101838,-157.188315790035,-154.325162027555,-148.548062181048,-149.227159602783,-150.445283629647,-158.083239231002,-154.549376372101,-146.454612897878,-146.202893510674,-167.061535945302,-145.440617427927,-156.407113810965,-148.733334427623,-152.71957395298,-156.143289344941,-152.896187896011,-157.865249828388,-148.802080573676,-154.384873354249,-164.020448993019,-137.552607161473,-147.164375374766,-136.502153900928,-161.092079849743,-161.686361581267,-143.054065616657,-160.706774290851,-142.569970352117,-157.281926776667,-139.40233540103,-143.903714265697,-157.347688936799,-155.393903620472,-156.245217426747,-137.662952270325,-143.237453338689,-156.871553111469,-159.947520519697,-142.125160050114,-139.765491443011,-155.700275712149,-148.368939732109,-140.87773491756,-141.088229017985,-142.699149113549,-146.042302534097,-151.512580887018,-150.489450825923,-151.198461274821,-143.796515929114,-134.354699805624,-149.356989287802,-152.376176530844,-160.362646394414,-158.866532281408,-158.9183618849,-161.306895215039,-138.761377864363,-149.580611057041,-154.418926574159
-124.095756906645,-126.054876062693,-133.683150206028,-140.600782107075,-134.21192743327,-127.582130621354,-132.141388190588,-134.904980487227,-135.530130823219,-140.193307424333,-136.049928184165,-129.14510100961,-133.520303764268,-152.30513260128,-129.103854064554,-143.097827831215,-135.199522737859,-142.994216171057,-146.832941072612,-146.485290846837,-153.28571336341,-138.262047337683,-145.74018664236,-156.853318176193,-139.933149681816,-145.803305673263,-128.734652428768,-151.448953729753,-147.18414880054,-131.25139935048,-147.546642553845,-128.838743606222,-134.038265731467,-116.180575314573,-125.409396828582,-136.52126920509,-129.901583328637,-128.4188055313,-119.683973622577,-125.142046270793,-135.211426507458,-134.831385914722,-119.987724441864,-118.28801716525,-125.731325724818,-128.521317798582,-115.113875620145,-116.900509666073,-121.942198258421,-118.090971043962,-125.013091012023,-125.361932186984,-130.973572143418,-126.45629802109,-115.886258864421,-128.243891060105,-129.720429162532,-133.016580303672,-131.840834576123,-133.191965633061,-141.175154430493,-116.924487091798,-125.540675948052,-127.124650082752
-111.600499763248,-114.050517011927,-119.835184240804,-122.224898257661,-118.72956841415,-108.006922140563,-122.112524981724,-119.236190300058,-120.950268571999,-123.069948617607,-120.071723642922,-113.3974449879,-123.62500840059,-140.383175285774,-119.568193854686,-132.464428112229,-125.461580976455,-134.060756598971,-133.071758767966,-137.161525838668,-143.234983909375,-126.546973213103,-135.283792571284,-143.868691345275,-133.880581681345,-141.118462636843,-121.915235016539,-143.701933545206,-132.735634106541,-118.199151580809,-132.577492922387,-115.730581202925,-116.198007749761,-103.920121971292,-108.591510001359,-120.479452652578,-111.51023820608,-106.250635355489,-104.558779303364,-108.3055732657,-112.894148409787,-113.659992831011,-102.797667076806,-99.9870374293404,-104.448475515747,-110.325085845576,-90.7142745302527,-97.9713651838329,-108.608662881779,-100.619010942855,-101.460700591412,-104.133817149346,-116.720639132368,-115.77616154395,-101.167258399497,-108.001511990743,-112.605307124319,-116.167187752315,-110.613576174006,-114.658058088813,-121.227905138486,-104.290096684421,-108.159350097527,-105.683607872654
-98.3920716127311,-102.419927711412,-99.6658535634297,-101.134838445439,-107.304411343597,-92.1307757457414,-107.418233037109,-102.68271806629,-100.606253169973,-98.4110807064862,-97.515803981559,-92.8187106341445,-105.633622545109,-116.870144226716,-101.634329642079,-109.054962563347,-106.300974062142,-107.172228512658,-100.809297837832,-109.828211056117,-108.448389393027,-103.657260164625,-102.320332903932,-106.821214565392,-107.125988969057,-107.594064090606,-99.9133010068015,-115.821135462825,-100.951389013566,-91.6886941246146,-98.3795479288623,-88.9004686035793,-93.9265707390898,-89.824234748108,-81.9098228777666,-96.4087420303453,-90.6479120593756,-84.1332401431165,-81.4516693211676,-83.416371867226,-88.3994370778421,-88.1529975037707,-83.449335172248,-80.2428297115561,-87.6252832953936,-94.7239177136565,-78.4442573138449,-87.9715537439439,-103.896633275549,-99.526639377155,-89.6086405475134,-97.9532525060905,-107.242244236481,-105.365346189382,-90.8270142051077,-96.5066385202929,-101.446124263135,-112.169830906693,-96.4201459596613,-105.443443641778,-106.533837866402,-101.259208673256,-95.8577088163533,-99.3549514085155
-81.853722183122,-81.1424052679453,-78.2105493762901,-80.8600935125133,-91.8305325076625,-73.2850605147368,-84.663166501711,-83.9367711344241,-78.7496372772626,-69.6287231670523,-70.3031690303283,-70.2248772754153,-79.6673752744986,-83.9559098930563,-74.9750501441182,-74.5213282533569,-77.7922922481664,-67.51958521001,-59.9028404196913,-71.505402858059,-60.9857486183283,-75.8078783300268,-54.5007403161747,-57.9435152728165,-71.3737326309789,-59.1145810943015,-67.9078673776457,-70.3013371472662,-59.9856638593566,-58.8580302742031,-56.2305606279651,-55.0405775782701,-65.066161867233,-67.4949189146529,-52.0507021315506,-64.8361394393023,-63.6359977902838,-60.8555543315228,-51.6434041875749,-56.4806626859813,-65.2722712410168,-62.8772140645033,-64.8602014952329,-66.5088269949124,-73.8596551726113,-79.8879639648414,-73.3130839772827,-79.7661640341311,-93.9872193441593,-99.0516728977017,-85.0335167836368,-91.8981988617408,-94.5896858307764,-90.010745035967,-79.6527703209247,-88.2435476627848,-85.159545148974,-103.474468765415,-79.993043172484,-90.7454378360699,-92.5995240896262,-96.5022062271803,-82.9791500142573,-94.510918493446
-60.9398217166051,-54.3627530997278,-59.7895283426559,-61.1755897722724,-66.9782553697056,-54.1425992204124,-60.3537902984383,-57.9777522070985,-58.759950790312,-44.0523292577929,-46.0992746252067,-48.1136274169874,-54.1204433360989,-55.6876484141565,-50.5423497241656,-44.4399458869861,-50.15294259353,-34.3217694727021,-27.1429971867035,-39.3501175533306,-23.7530615445475,-48.7992607019997,-15.4182938895865,-20.0726997814677,-41.8013253903511,-21.6353806464579,-40.0623177277563,-29.3679731425712,-29.1940051126486,-32.1196425694248,-23.9843683138704,-28.1316164915746,-33.7509376110002,-39.2587122284695,-29.8808175111106,-35.3234921609015,-35.525341945151,-39.9464132023328,-24.9498127816496,-31.9150144720413,-43.2988637246406,-40.4234139842922,-47.6232932614385,-58.0975062055697,-56.2825676673161,-61.2564603622985,-59.8075930583815,-63.1416571455709,-71.7907290194957,-83.0529943089441,-76.0883844147075,-73.2746542683132,-75.7567951442043,-68.0510818270829,-61.3599088934738,-71.1874364874941,-60.1342593993935,-80.3087090725471,-58.7108258304917,-63.9000089492097,-71.7837586684704,-76.7191500613483,-67.3465263554257,-73.5528943054258
-41.2559278703834,-35.1393321870675,-44.1525528770006,-43.0941137855716,-40.684030457351,-40.9456348144295,-42.6710872282951,-32.9666867038581,-39.9722264277746,-26.613692440404,-29.5313903604367,-29.9407477250729,-37.9422282339375,-37.533279974345,-33.9953094059702,-26.5889477151555,-30.0574482781995,-16.1669958572472,-8.36218836806545,-20.7756490253918,-4.9609004346738,-22.0378730382632,3.80639057174754,-3.16715398027826,-22.7377990829135,-0.106174180185938,-20.5830258274255,-4.8317873479764,-12.9286219694301,-11.9365769348196,-3.26030435487058,-13.9833128214845,-11.7254724260446,-11.2463555011968,-16.4316153991114,-12.6338731785634,-15.3449763555708,-25.4530499962908,-5.30842898738172,-11.0047338064541,-24.6185842051661,-20.872467368372,-29.7762783128271,-45.3549618428197,-34.5286458567772,-45.0583987602279,-39.0630899506706,-43.0329183320006,-49.5504093305645,-60.4159165582197,-60.8367889009211,-53.5518633545609,-57.0008443031178,-44.8678671509189,-42.1182364192998,-50.013559375715,-41.2459847733403,-58.9465329105745,-43.7777143643993,-41.8360757032463,-50.7266180089547,-51.9419091665896,-52.8528690942156,-47.3534513014638
-29.4740906793138,-26.4620877420758,-31.5697990538272,-31.9190787148109,-24.4048377604656,-32.8603946609316,-32.4760357638011,-20.6291152450911,-26.1440812396792,-16.321386223358,-19.3979605235063,-20.3276476802069,-31.0417234962553,-23.6993572013446,-24.0833549478503,-16.6888654729198,-18.032034568637,-8.3833057828935,-1.19933961487567,-11.2977141929896,0.869748359289231,-0.745504076581234,10.2588849369381,0.455302200729103,-13.1845302932756,9.72768834651252,-7.65562642529081,6.01614131679444,-3.5384858951576,3.80653110263353,7.44365442196457,-10.4535732167137,-7.43289254097066,5.04816919701065,-7.98634111343927,1.55366323515175,-6.97644672040505,-17.6976892144465,4.5342876299789,0.345139041411683,-15.3391559723216,-8.86499036924838,-17.4361779212666,-30.7570926112271,-18.6382125316958,-38.3140560415136,-25.3359226404979,-33.0480919787981,-38.8205987541085,-47.0300248786176,-46.7596757343347,-44.4038590344644,-44.4716947786681,-29.4359675286936,-31.9515033134705,-36.0579955123586,-37.7116449827957,-50.2617535272502,-39.8440710718939,-37.1674667292072,-40.8799505307882,-37.752056432779,-42.1168889740391,-34.1715454516895
-20.3362055923709,-17.9778771659774,-20.3400845860697,-24.2103216348819,-15.5880954774672,-21.5306053931088,-21.7691871682274,-14.1070171005056,-16.7485639046018,-6.56278641881275,-10.1014245275409,-12.4013445625614,-22.5304831174307,-8.87285194232035,-15.3045564993325,-8.2005152433499,-9.59557395945873,-3.42504715278571,0.519082771464153,-2.06595321274054,3.069584847524,10.3945604421832,13.7008035021865,6.44967772922809,-7.69954788533196,11.3606880098328,0.970851848137489,11.0757209040994,1.83784051882836,12.2784127521045,9.74917878684756,-8.7806140567908,-8.54375732905964,8.27944337061021,-0.302331372716702,8.21732315657347,-2.84242127267591,-9.17717097338359,5.66266560838783,4.13684361681977,-10.2204637964505,-2.80233064804644,-13.1756852823578,-20.6879800856216,-9.51827856495879,-31.2263717509238,-17.5746437607442,-30.5950384627386,-34.5021074506267,-38.7407862829737,-35.039738465309,-37.3428361958349,-36.4698948025385,-20.577490887805,-24.5918797980911,-26.7669434745674,-34.4818760482008,-39.4144922755916,-36.5891820867166,-34.5452746199342,-35.9417385796357,-26.9570790672968,-31.4758235028423,-26.2299398699391
-9.918351860874,-6.37427190143691,-7.44020813523868,-13.6852925989068,-5.8384100718372,-2.0338479560359,-8.44023599613152,-4.69561578952141,-4.49369455206056,4.10428612986979,0.122201607806189,1.83165566418349,-9.67104872057677,3.45961037699754,-4.13677922083012,0.353340512089951,-0.46924427633715,1.76763744434629,1.65440591515113,8.18918582776359,5.29853603530737,14.960754749266,15.4796478603984,15.9089049878441,-1.11514760082633,9.70634109438308,7.8762242187027,17.0121983738833,0.943494521978401,13.1842318701028,12.588293290508,-2.35310741513548,-0.498095061983738,12.758122282058,8.97599663304523,13.4476684388069,4.41218317210852,4.19419240998481,10.7466259112496,11.2053817040125,0.351066742104856,5.27956858826481,-8.2208522274176,-10.6434099259753,0.841898915679911,-14.0662815804357,-6.36718762501341,-23.0420269892391,-26.6922824336522,-26.1361283829262,-22.9494088948724,-24.6210258577158,-27.7792576069106,-10.343377796372,-9.57070713507976,-16.3677916866924,-19.6172475258358,-18.7212889331998,-27.0033125813035,-18.429416505816,-21.7244392942397,-11.7764972511707,-19.2012322831801,-11.3562513495826
-1.44501369996251,3.26565001056681,5.35260287841039,-3.01477509800794,5.19672900475462,18.9401265590881,1.42414493936987,2.66009505314705,10.0815198609551,11.9737964937483,7.20977434379228,14.8445655291042,-1.81708785386342,7.33361109885472,4.92060804051173,5.69980288092109,6.5377320118177,4.65887283602465,2.40525993828614,11.4068180566527,3.3631549300392,14.3426783104319,13.4040215569972,14.7853841945994,1.94303679219865,5.56425185333585,12.0014918178973,19.5183049716726,-3.56703072945191,10.4098087712105,17.5456582999707,2.4292837359165,8.25518672597091,21.2997957431339,13.4583303764656,18.1411567969632,9.62994336814296,12.4367237791833,22.6640371042307,20.1635979403458,9.50236116733782,14.9684749426463,1.76362464537536,0.424801749520636,12.0238905473354,7.61637267162736,9.46344109407249,-6.9861965886598,-8.50744227463253,-7.41249395389556,-9.4819259823814,-8.77532157795278,-13.2690738244146,4.95067285778232,11.8421289263259,-2.50946633892951,-0.632292244431314,2.34898627660011,-10.7116458002937,4.98683685739721,0.98057389677124,2.82178171650523,-6.70338726106526,5.94094767093284
9.4354256322862,14.8334557338604,15.3451937051526,6.62702819389796,17.3946428944236,32.469310952814,9.72252656269288,9.00384043290861,23.2992984505641,19.0067854112431,11.8988626367908,19.0704996742342,2.73523248473426,9.38219720363936,8.99582027943351,7.16096612639934,7.94211127738495,4.55062645142974,4.75639224770437,6.90666883414364,-1.03526896417443,8.91508176714732,9.3425516218469,2.30861795983594,-3.32224198126744,-0.390067873215163,9.66498004736915,10.5197480209021,-7.27574603753701,7.24828780598752,13.1346760023396,-2.33279244908853,4.61409708198713,19.917870922288,7.13351891875311,13.8929349893493,5.54001426563234,9.17730620857365,23.0171917105131,17.2155742977884,6.9749929102284,17.4951216672651,8.32137209064457,2.57349677829206,17.0470859399455,28.0045568736888,32.6626216143813,14.7710485213283,22.6995324003564,21.9871629099025,9.9585030514205,15.3437667545668,10.0567427994857,26.8954402880289,37.0163332631743,21.4269961026747,17.5985269206096,25.165699664161,12.8664154671665,28.9835472970162,24.0085270872856,21.9816553482555,9.60805563162658,24.8057568910274
27.7266367017231,32.9176186970706,24.2602934506632,20.5865481498018,33.7189010842193,39.6999769848607,23.4412436720769,24.5227917669236,38.8775122284494,31.2026438424868,22.0952316255627,22.3462094205236,16.1573170460217,22.2511041341295,15.9437908185209,12.3782379866829,11.6998587380689,8.94673694312939,13.9791901963796,7.64549015351386,5.21476428561606,8.10386110104355,11.5726833660107,-1.82525867999695,-7.57107485092468,0.502817602843146,4.02076575063462,0.184710948453906,-6.84171619792915,7.40043808511371,2.24987415424364,-6.12076538099036,1.00518174624617,9.45456487355207,1.38120795221451,3.51793159108639,1.77417360499856,8.62575728056902,9.32616137039537,4.08681309250668,4.17144210685898,15.3645366407735,7.77928338761909,-0.667412531523318,20.3007752074759,47.021914222583,61.07337333968,35.5345093959177,54.3090673359035,58.2953092641576,34.3617969207043,49.4872942114389,35.3691804040344,50.2510979541032,62.0593714172377,53.2627944775307,37.3265806159351,51.8787387099991,36.6158850006018,52.2377291992732,46.074916787677,51.2360629854445,31.5234402159867,50.8652170557773
47.0583653761385,52.2484237099024,35.3855600478883,40.3120188801779,51.2454133838419,48.5093869438915,41.5547316674043,48.7637496076262,58.5687694727004,48.9850397090238,42.0390704142569,35.5194364281487,39.1886176721666,45.7106159463972,33.1671676676033,30.5987441717823,28.6406822581444,25.9687604645701,33.6206054268139,23.4060893054084,30.4053290281814,22.1188334480917,30.039495835629,18.5762906643146,5.86853858823089,18.0056405427318,8.31574300978055,11.3885694297294,7.03506390272703,18.739161801746,11.1798237927182,12.4210742516849,22.2789473502252,12.2077737536514,14.0836850285814,12.0679499859872,19.9102596495264,29.2253939698044,9.89550578420742,6.95274522021137,21.8725182367469,29.0040695575717,16.9456962113388,13.1738391081431,37.7320825128821,60.1493069397554,76.5209014836739,46.1792330883337,68.3493028594109,81.1933308488381,51.5252285051838,73.0062251720719,50.2157417534654,61.7785127749217,75.3998446158984,73.686195231394,53.9570321213254,67.4916841566685,50.488599222778,66.6510024971778,64.1559126162454,75.083517323568,51.8868387127946,74.4637309087722
58.93818246612,67.6636950617798,51.9202643041997,59.4093542177704,65.0883345328896,62.7236652550645,57.9402800415649,71.1716016288494,76.0282250536185,67.0749594699851,66.7854344126653,56.6956439063907,61.9157509202502,70.831991679202,55.0855972301832,58.4181945170773,53.2752148107785,52.9716156219344,63.1892732353966,49.8510934960088,65.883797139365,47.3604893515199,62.4860480036681,57.1036260878087,38.6226692401082,50.8406894558349,31.0920929417671,46.1391204435849,39.3190547403171,44.1674439537126,50.1175175994972,54.0709682852018,64.51639553308,34.36474478791,41.9925088537308,50.7451037233915,61.6078038259858,66.1615642389861,35.6854856489267,39.2903445854907,57.6535445058275,65.2164763439184,48.9515643200977,47.6354834583238,70.8800017490114,63.4234662462217,71.0283747993649,47.673509865636,66.7426023223398,82.7135188775867,55.3131885308462,71.0273589225608,54.3484896008663,57.9919844902028,73.6316204293699,71.9486571450387,62.29460940581,64.7600246727592,55.6498659053449,67.6573246855207,70.2951321851195,80.7915170707443,64.790721515176,80.1531444278271
60.1494659387684,74.374348546332,68.6700003106359,68.234410265169,73.6333099695499,74.9714045288454,66.2297961769667,81.1791821046574,81.8608853872516,78.3599930269068,82.7860113206086,70.733522919927,73.9427321793761,87.2355690760704,67.8521491036369,77.9592870273724,66.6504427752279,74.85161116781,89.5147434800175,71.2416457637954,89.7490098712955,65.6092502578715,87.3801986654168,87.6739827131322,66.7109230331869,80.4379125959926,57.9466557922006,75.5275060231246,73.0412927868087,67.5124904107471,87.1576912223897,89.29673142006,93.8416008885493,51.1561038267583,60.8232140400263,85.4188802482626,96.7405275527062,91.2371955009586,57.5376451063688,73.5980000394206,83.7627849366221,95.6006714745421,79.4241655017782,76.0945588009977,94.2650136249047,59.1624561934293,60.1549808408839,46.6449319862908,62.9370338951823,75.9553512739029,51.1341043709467,57.3685384500712,57.0557352434735,47.5617047896183,66.7121650528897,59.5784704182689,63.1736908426491,54.1275013101681,56.3374644949649,61.0670599922995,64.0456846691162,74.4731354849583,67.9206083101266,69.5370458832592
49.49138087147,63.5314404238715,66.7695651830185,59.7449664838435,67.4699889371538,67.9673520551249,59.8705983188598,69.6581521205146,67.8672855047315,72.5290158349295,73.1492469314697,62.0002448984428,64.3783899434039,78.5654602901498,59.626254258295,70.3540357531731,55.780373838621,70.7754627848334,85.6554630477696,66.7217952717363,81.9939404699878,57.9372042957734,79.6369006137194,82.5917383573545,62.9419328973699,81.1631676836016,62.1727340090615,69.4302786144309,77.4086822822754,63.8318117696369,82.728157154598,86.3562957456359,84.3438068148212,42.0645447840376,52.6261435313082,76.0942001941722,92.0017828192362,78.3689553383982,48.951622945013,73.0356877449596,74.7520938865497,85.8974314552646,71.2077981206037,74.2790216561255,79.7314620172216,46.7205303740544,52.1153109154397,40.0061926985941,58.1479540322951,64.7831963827779,42.6047436350138,44.5429859468075,56.3784240334996,35.1552545207805,57.3280322400928,46.1638478982807,53.89293599609,40.8599209576577,49.0166265859964,50.5592197186912,51.6225082225276,59.5042185451829,56.4890685929301,51.4930066866377
28.0608337760127,33.7832921380659,36.6469357423111,35.7763240969767,37.7172241349991,30.8187254582422,37.3834063309338,38.7344908172894,33.4308285197375,44.2141762882141,36.8031952465746,29.6743111636109,31.5594905623655,40.062219106496,29.8153761392977,33.3796599647728,24.5572491937154,34.0913313337766,42.83964184708,30.8493715736792,45.2118137604244,22.5944592738978,38.3344403676948,37.5890330909999,26.7593290979853,45.5710110653671,36.5558775997566,26.965425404795,38.3974307906429,27.9460396652939,36.2718657054237,40.7813852937432,35.7124620142306,11.9055583222839,20.6294900491924,27.2182045919532,43.1222060964397,27.5015363152566,15.8506146141741,34.0199305963785,29.6043996129685,34.3582229280506,25.9239994689427,38.6980994861924,28.7557925433035,25.1859640548029,35.21820065405,21.9721080121391,44.0335122575814,40.2911176652479,26.699965828507,24.334197255323,42.4662688717256,19.2795079645059,38.512963641619,26.9280493282553,31.4922464137438,22.9760805365728,30.2585049442813,35.7803888986147,35.5742767482384,30.8554977758278,31.5307726796843,27.8553802465078
5.78399876285773,3.30632046369943,-2.04908903137805,11.686082373199,3.59312747304826,-20.8938202693275,9.5816917360041,10.9761833668192,-9.8827451518365,11.2569165284647,1.30649472655588,-8.96190060552632,-2.57679468507555,2.09906996167695,-2.98035510512438,-7.94648256348548,-6.66610322731281,-7.99343085384634,-6.17154233082878,-9.21159775695212,6.22117420786465,-16.7452876583682,-4.08045808804014,-14.2715627876436,-12.459209969386,-1.55846109142148,2.77106291125914,-20.1783620179821,-15.5265651861808,-13.2351575507958,-13.6289315961446,-15.7947600417056,-24.5168001508998,-19.0815433122955,-15.605689539164,-21.9150604145934,-15.0043993282499,-26.9281009520226,-16.7014885697845,-11.7157952170723,-20.8727365177179,-21.5842437469999,-18.4706712202676,-8.14071982019173,-22.1709747300507,5.08056737902907,7.97602031528509,-0.28056388028798,21.0586142867353,7.78300543327559,5.4663178087057,-4.25918972526499,20.1691384144638,2.80511645020564,15.7154500853304,3.25508624443402,8.6521376096275,9.34870889708664,9.54918214677748,23.5696204345875,21.0816734270919,-3.98557552742135,8.93016493895818,3.85082114653451
-1.41977266507418,-3.03204617829121,-19.8969216852367,7.01286174906937,-4.73784154883345,-52.6792964813631,-4.96658924953971,8.85465166226042,-44.1582897126674,3.16802730536314,-2.80524381754227,-30.9341005252401,-11.8408052895923,-0.0275667487048873,-14.2487295996429,-21.1541506864286,-15.3902012501281,-19.4147337832485,-22.4835153856504,-20.5380325932403,-10.0494535125898,-27.9301866028091,-14.8245832367511,-31.9590180895213,-21.9788600152285,-22.4702304861892,-9.56881610406846,-35.0608416417747,-36.3973494398058,-25.098901436196,-28.7573790820508,-38.3687737293004,-51.1618782374892,-27.3216217363027,-31.6438434897772,-36.3536912954176,-36.2533948318685,-43.4850723438006,-24.8126443169807,-28.3350288954329,-36.6027341457627,-39.4472150754207,-32.4922427542633,-28.7785159113126,-35.7687393051027,0.0353316774542088,-10.7479112705331,-10.1241421104679,3.11185038249339,-14.2094576989441,-6.85807147602885,-21.5878735694143,8.38438988502885,-4.82675009740058,8.00999489096677,-11.581961325633,5.90844949409772,13.2335071042587,3.81020531970699,25.6248543941092,19.9472810241793,-22.4523241787426,6.15719183155925,-7.52556412269385
10.5066626376734,14.9823495360682,-6.55902449104628,23.290939980239,13.0996645925553,-44.445225225691,3.17405067258607,27.7296612019352,-52.7848041111315,21.2610278355978,21.0236784443796,-25.6004371636219,2.26108330742986,26.0646666602169,-1.12227857334098,-3.83683277493937,0.0929485090725306,-0.257311978962993,-3.71468484674255,-2.8886889146012,-1.27978944079245,-6.06334107982823,2.54777606062921,-12.2406734351187,-1.10228386363945,-6.33766047494778,7.62223019463595,-12.5922966477398,-15.882751321932,-3.54622130809164,-6.97801378467554,-17.5051732390126,-29.0377258953697,-6.55290806133968,-17.5170978982587,-15.4862690514365,-14.8219894925745,-21.6555028567291,-4.95898996104918,-11.7884659643332,-13.4229054304985,-18.1231903342323,-19.6257258268326,-13.0667264613979,-14.5473734609407,10.1200150874469,-10.4333800234891,0.528249377723364,2.31421742485921,-17.2354007809002,-1.26651339824922,-15.3127756485467,16.0751360422594,4.51201685975473,22.4272168308607,-10.3314164465525,24.3352320394484,30.1485421851494,15.3106095042393,42.4319104500732,32.8675110619591,-14.9424826110534,22.1426857235514,-1.6429555584768
30.9806173270656,35.5428026093256,25.8313969480589,44.4773708222037,37.0524896935969,-6.52557209129182,26.7693672561353,47.0379632210721,-28.5636663757947,39.8049883243285,47.4447907335432,-1.34161852182941,23.1503244291924,49.5377939002153,19.8496793893011,20.039900942277,23.4046807813153,26.0932501740907,26.7863373134158,22.1572289169043,20.1212887586329,26.0280874296612,25.9267520630398,18.7848472860967,22.8603407854787,23.6980873462849,34.3639204829921,21.7577846221468,13.2960924109405,26.5213042540989,22.9180999684599,13.9220347557795,8.76702476688678,24.2659748700901,12.0830203938923,13.52769427668,16.2452401068265,5.82811696176952,23.3092038280331,15.1393024966303,18.4327876399783,10.7531054012762,3.2139670758561,14.5660786759936,11.1938556176977,26.9145951795716,2.55042927950204,23.6507793727326,18.1815615649725,-2.60199758582614,15.3144388978554,5.46301464518482,34.9568384614383,29.1167085937446,45.8923349996688,4.62077348045646,45.8121069796545,46.5657221000749,33.6474855404377,62.9398077151046,49.1425562764933,5.24228842312858,43.5323013461745,14.5574541590452
55.5698410460894,56.584647068439,59.4313207047249,65.2113739123734,62.3209043103251,40.0421395313522,56.8038218584027,61.2716859484673,17.8561598258241,52.1795967209456,69.8567104108065,29.4840034802958,49.4413688706416,67.2753477447885,42.469781752721,43.0023965247508,48.288858097932,55.9030713149202,54.2603113866959,47.3779444279149,47.1598135132146,57.9642744902002,51.366642678718,50.2287399646674,39.1597823547024,51.9963672854604,57.3932137048626,52.1660711402726,37.1637682786994,51.5198680487134,45.4372418225813,35.8019398123989,35.8315659166105,52.8674948171426,40.9855289898043,39.608558579317,41.5631797041494,29.6061853425996,49.614548266245,43.8231024295499,45.4785018893601,36.5880439704983,33.6257233408638,38.8879202834288,32.1340885729027,51.799199248435,28.3005839557617,52.5730832067418,46.8714587228701,31.9426972701353,40.1957412250798,33.6229580464286,60.8963761109036,62.3782602587984,70.9375997958198,33.1212336429562,66.7033241369525,66.0156493016628,59.5694308998921,82.9732274909883,70.6597412462545,30.8001020545609,67.9179232243081,40.3037536961035
91.7730577231901,96.8709477666664,93.0327140264711,97.9790787794124,101.421881218655,88.6805245615463,95.1887391473,85.5397655523665,69.4636665003662,78.4800995078439,102.258682053178,69.3917998788589,88.6403324902223,98.3604540571349,78.9804973686304,81.4677018978897,85.3250076090065,99.9529983248097,84.6201615541962,83.9908951505848,84.9495702448238,99.1607191402854,89.6624472419736,91.5076380334163,66.9475251196174,90.3784617566108,90.6259961327924,88.5764752846723,73.7125358601053,86.1356785713375,79.655214569706,66.7428671996571,67.4025615363706,94.2850741791569,79.4788490369721,80.0238904990164,78.0052691015686,71.332363376005,92.3699183665142,86.7645347815904,85.6657809863084,77.4301942828154,79.9017423656854,69.9891544128517,67.8342085347443,94.0409418360967,75.2720153402298,95.04899299722,89.4713371620323,85.3642638957993,83.1710135521771,77.2930103785104,102.157971763337,106.284163173983,109.942608304107,80.9221495272703,104.483961302165,102.906991153056,101.517544242421,108.826720384806,109.025954411664,71.8074320613035,103.142097077751,82.9868480371663
138.593515546833,149.326132301941,134.482195645335,143.466660068408,152.307687120548,137.730627142414,137.379425169566,127.833983834025,117.127000368539,120.821363558141,147.749386649127,120.841060724114,133.100726647183,142.11169452546,131.016010760596,134.435188177848,134.353911279385,150.345403481765,124.463598333367,131.993991143338,131.878278741366,146.943369606292,138.604988289098,139.586626661147,114.023273998487,141.079144703423,139.705720134929,135.260923121993,125.320900965536,138.459942496472,135.485989525557,118.193216324357,119.442517153444,153.863609021737,137.047083304351,136.726709902116,130.912337990497,131.534735132674,157.315475815533,141.647753233091,143.578572110043,132.585555357596,135.591268876385,113.798201592825,122.238768383666,146.203626251503,132.658277865653,148.684184987644,139.991279569272,141.892577919229,138.593457952303,134.501203458366,151.818221044249,155.343167566059,161.412237919232,141.880226666315,152.9072553032,150.12912138573,150.837359594843,132.18990991823,154.094687515845,126.292832368371,142.18976665645,135.118179363912
173.926936737578,178.608173566013,167.280295056567,175.606066937402,185.186588781664,168.901554217959,161.833018802436,165.088379240022,149.384355693396,150.470697761017,183.6738865599,159.80819706506,161.002539164853,173.273442490924,170.68348904589,171.373093151701,169.219462524342,179.709738145972,158.377040976739,166.381294404268,164.927038628455,179.787918456943,173.074175615631,170.817625976776,152.722737731452,174.967869529229,178.013176595808,169.168354586465,163.024636431693,180.218002550219,178.486307887756,161.263728823493,167.102915803466,198.23656097245,179.852266489125,177.100290194113,171.477451635178,172.664169388576,204.045085681357,179.024326412258,185.799421140778,169.775916383524,173.104977570097,152.514115563693,164.673904033278,179.477294602664,170.526041595019,184.349297757985,177.066486813342,180.505522514085,173.777373635589,178.412305051511,179.693928553815,178.671653096627,184.241815088007,188.81230153411,169.920408476556,177.862483288726,180.581266339225,124.66646777363,172.420153886395,171.766775655052,158.775628507434,171.210377563244
175.731779807317,171.092692282159,167.732107125488,173.855724947896,178.684180615114,167.277553609033,159.226283441901,168.641823408052,154.713765611918,150.791342092407,186.130805526138,161.943345842385,161.809953987331,174.951513371153,172.342276055822,172.968248969178,167.77391293481,173.656677688674,164.822550669754,167.232677342528,164.898406150184,182.136425733291,171.28656859907,170.488448201354,156.266184659207,169.597386085917,179.824993362288,169.272380740736,165.457876306522,180.918297369256,175.960944614482,167.658682511437,175.503609204199,197.27766337269,173.723907615953,177.075775142878,172.517162606903,171.220751335667,197.257217649154,176.144961973965,186.021273287927,170.446346886305,174.939389614176,165.511019422037,170.585118009739,176.90003272205,177.391620573641,183.500281081611,184.327697069401,191.885177543381,168.834896387073,186.073792147211,172.389687853604,159.557170326397,146.235291627965,201.916939837459,141.802446419159,169.595592732027,176.199768777308,85.0998492317372,153.604996228266,194.675519606272,140.274780099075,177.21775522468
151.428765466228,147.616969200488,146.585282830478,151.769108696075,150.294575189554,147.828916528466,145.436681762229,145.147409255883,141.697972614422,137.225207549563,162.305960946008,140.540413913335,148.056063596331,156.153263329448,147.076120523256,152.818748451063,143.624463502037,148.956720908536,147.007250097015,146.244493382886,142.811862178306,160.717198437498,144.974233458393,149.766320403935,135.259775424174,140.239194365108,154.5188348444,147.503687186839,145.610902608174,153.273267931497,147.134981983867,149.497711215696,151.679056662146,166.493134230664,142.287946327669,153.154649524921,147.37612069306,148.822439928997,158.641222125336,148.625502196931,162.682199263445,152.483108649262,155.452879834499,154.569679216847,151.084215586721,153.064584354412,167.742127367084,164.782486594206,168.494558394083,181.148417552655,144.227996868159,163.431603887178,150.258479856379,126.902100684764,80.5512823962208,187.023008006557,110.075076498144,136.086971642007,156.28345909856,60.361094777995,129.495729920884,196.962672625449,111.67935583038,164.239437760168
125.768732665977,126.453430160701,126.832682118459,133.081258020656,128.831555851234,133.704475475447,132.817224729884,122.336837331223,127.374310127341,125.346946232519,137.287497284676,121.144752423225,134.570915150956,135.332470692502,122.366002765457,131.08756454166,125.465965272538,128.800638561078,125.282060238941,126.071053137846,120.970477896441,134.861056309705,122.320791606525,127.439988849275,117.029775522885,114.775202739543,130.371792170779,127.769796159453,129.253664409014,130.968529379456,128.904269142082,131.019732467052,128.990385266262,139.273667587991,122.514834585654,133.145915440003,128.299220014397,132.851327071387,130.098548867772,129.698764059838,144.160015118223,135.873453615191,135.43625392944,136.192195728006,130.600351146185,130.600637582115,149.787060104796,148.724371055573,144.428558031816,157.652297621919,126.664634158998,133.26615406723,131.317268626074,110.860258866208,48.7328369772607,158.433928305844,105.041784380917,100.825908305115,145.587603582862,79.8842571289426,124.678600475005,180.288525945901,105.805354387896,148.372987791277
109.998813241474,110.889304051679,112.38744358959,122.490024028553,120.130531497141,129.854706295831,120.832723341931,111.969396980308,116.893947689238,115.214046407139,121.680409773935,109.688866761871,122.50541950642,121.674927621689,109.69297110958,115.775356862572,119.967880614727,118.204405397775,111.405041861028,115.173134057302,107.901244567273,117.63342455075,113.235107725696,113.910650207803,109.520762183841,103.96887145319,120.677492852494,116.679529355428,125.140228137784,123.927890388492,125.719810379647,118.145323858811,121.406441227818,127.8799689899,115.705731690655,124.597941314848,125.576904831682,126.284024246833,122.016782807778,127.370568411774,134.951147121148,123.720539398443,121.530072413955,124.868526336215,123.172966388019,117.722003658136,124.035613348767,133.767793873568,120.122994475175,131.494732239561,118.461019429366,112.381349197685,115.640728252432,108.095795866049,63.2691889499012,129.341164439061,110.707324957847,87.1991086532006,143.948562894817,112.349912131749,128.678139822846,153.397225158313,119.351247334826,134.359735704849
104.682329038265,105.985774161532,106.252526659223,118.306914318749,120.204959639196,132.775409488281,114.949977874453,111.879278629722,113.019279118544,110.424660862619,115.414025928046,108.443341617935,114.125868097415,118.733707538639,109.136161377114,112.224955813911,119.480862934576,116.196736622525,109.859155153666,116.256861550368,106.368763593422,113.314342903226,115.302402905279,114.722571808152,108.206550825612,107.598148521776,122.998279800058,115.425908857192,129.781280841382,125.988744124115,126.620043888492,113.590096954257,124.972493663171,130.379540161171,117.316952952403,126.763206338087,133.600695556968,127.80475187835,123.0952341059,130.596302674095,132.252275846511,123.268601170662,119.078780110699,128.057305105748,131.184125636847,113.333916673526,106.04215360008,122.429422731073,106.343877732729,117.647052442634,116.312279080026,106.688729711311,107.688585572562,113.179710519858,89.9864739782666,113.948607135984,113.795093191663,101.645209977613,143.656181080864,124.528470623226,131.032987810563,135.52193927435,128.201227912995,124.544629929588
103.443925071061,108.617183128879,108.347144918521,118.01967073217,122.071091402838,134.321398787912,113.092990680425,111.803671529002,112.973895318086,110.552695537811,112.668526795638,115.943861214615,111.232312029084,120.166493881056,112.763300295416,115.527808684388,119.11624996392,117.270429705434,116.607275812315,123.257409479789,111.683207153768,116.044778176899,121.224205768305,122.119398041478,109.300004946638,115.559022329116,126.407106114225,122.291884232165,134.85619901726,129.850576648098,128.144861257215,116.47600274896,130.473887780326,137.009325520197,124.736794856434,133.204420093633,139.96180709854,133.701493466701,122.65586530052,129.636285934689,131.992406618159,132.969207172154,125.364265143865,136.665070773732,138.161263064093,109.862274435794,102.963721576928,120.886906767916,106.281115966213,117.056070807082,117.9630102095,109.444080346456,109.390283227395,123.981203385189,100.768356191171,111.090561787702,119.423908834711,120.240305045465,140.78535445262,121.409928476654,129.00349201361,127.21308038093,123.12923967308,118.79736858406
87.2760652511034,97.7065160022693,97.5315563693533,105.891899594113,105.626553294959,118.738296081555,91.7427563655054,92.3575802662923,100.084475565146,96.5664458279777,96.8821853753794,110.533767180395,98.3322721535197,104.519048121992,101.151879397359,104.465240360098,108.40246095899,103.146939304585,109.510948774416,113.973353708936,103.02985390495,108.06601552359,110.704011487205,113.400246847755,102.019868377738,105.487567711503,113.355814868438,117.4574702213,123.81690136112,119.022113286054,120.012890914181,108.702492375175,120.286025149758,126.9087815602,116.462156252665,122.335858089845,122.761467436161,123.071798380812,109.898533433909,112.274316499581,121.010185013772,124.180276584057,118.600195725693,128.681847930137,119.729253593173,94.4081759647581,91.1022858796404,113.583115676458,96.3672099974567,103.762930274248,108.159440972489,99.8063343506366,102.30922211496,117.261421883558,88.2174096379365,98.1033422616175,115.651927869128,112.080625773582,121.919488885824,106.673726571511,108.709487704052,106.940946350263,103.480313006276,103.500269845352
54.0275062387996,69.321530063613,66.4370831360978,76.3639022636805,69.4475849080135,88.0422518321672,50.3574738399646,56.8905041273294,73.876174478124,65.0642680240669,66.9345729253777,81.8673742185327,69.8687615630221,71.2133436810987,72.0676659348803,76.8471232607422,83.2819229695482,74.5195448589828,82.2880324982918,86.5188622061446,78.8441538122885,84.6788712226365,80.7035840015765,87.7589884407038,85.0131332090917,77.0008249474495,85.2909239588928,92.776145408514,96.0805688152984,89.7101757582954,96.0316598730329,85.4966817601867,91.3733029037119,96.4411156995996,85.9118829366077,89.4395044689165,82.9511721616608,89.7137713692082,84.9164266404967,81.6179147804472,97.0719083296505,89.5007986636586,92.8150729094589,102.334009694247,83.5138805263671,67.5842644503711,59.3844414429537,86.6878330133673,63.8147851191994,66.6253211940318,81.3498274465092,71.6925128069907,76.7857193593776,84.7504613985,61.0839616815131,67.2823096961104,89.2378013531699,80.7379848639558,86.8561957966918,75.8128648137355,71.5830998538592,72.2198283987776,73.6771062326275,73.4443024350589
25.4335382606002,42.8385162604064,36.6599172378361,44.7802612191996,37.8383382529817,59.8515441854428,19.5891937168086,30.9909110878321,51.1358346552517,35.4096027566216,39.4990288618669,49.0567639004684,43.2217501233303,44.7543706939992,44.843795588955,51.8484760835082,55.8965567682415,54.6274795754698,57.0201333637624,62.6404209743815,60.7978243390118,57.0222897307633,53.8292743034738,65.925150004866,71.0093984580773,54.259494063116,59.1647651224616,66.7759231984192,71.1192280381565,58.8634376138931,66.4968133473055,63.3576892364245,61.9433487013499,62.184887420915,56.5225197532947,55.8567583340806,48.3812256810773,55.0417519881432,57.8319729365939,55.1330716791379,69.1885872263528,56.195643030182,63.7301962399105,74.7716917933325,53.8976598280855,38.4132401478743,24.407126439309,48.5477289354982,28.3812061799247,26.0471650601256,49.8860767709208,41.7831957889004,46.5277331773091,50.4997663995749,32.2020839533967,35.1284423681072,52.4247315556182,48.9092640845687,52.4664000621709,39.8095065380538,39.245568760852,39.4654290983952,43.0954280920084,42.365105357817
0.90624224146132,15.0301942381571,9.98941338115917,10.7326789484169,10.1730845913633,28.7510142450503,1.18516723356015,9.3343260951169,24.3067996361743,4.15631106750225,8.77446840867653,18.1933838628681,16.7972877783733,21.1426180792085,17.0468239626842,24.9963943726935,25.0232935542404,35.0586292920292,30.0991827682244,36.5447722050369,38.1988267998139,18.8009089121381,27.645668342829,41.1773139959408,51.5529964221026,33.1573822710477,27.0629221562779,38.6939916369196,45.8599637797629,22.6728459681095,28.961931673233,35.7471172771861,31.3849952467086,21.2558014071898,28.9806693831735,22.7453550767803,21.6482188889803,21.5434757886238,21.4347395871305,24.6649844823057,29.9893183988912,25.9738351402731,26.924152026895,41.9487977764592,21.9267168416909,-2.02104634291865,-15.0631637305235,2.77098951135937,-4.85616899910089,-11.4977939590496,9.98968503483617,9.18993840662287,13.711920064486,16.7566325091598,-2.82051109603057,2.14710235722709,11.8842780314842,13.1772244612203,12.0871356341175,2.64860833279756,6.43496579276614,4.52932839040634,4.9199330181931,8.63243696063326
-38.1742028447383,-30.8093845074124,-33.7596731048296,-36.9445478021789,-33.0433165458827,-19.3637385009615,-31.0321862723012,-32.8898141376631,-23.1177916013422,-44.0763516842466,-42.1827977948904,-25.5403348345824,-27.2850571939641,-24.1252739222044,-29.4693313367728,-20.8098754399716,-21.4230854895836,-14.744730412534,-22.5780009257877,-12.6119728854044,-15.8147821916359,-38.4838318313618,-19.6293409113189,-8.80044429904119,7.65823846818741,-13.0190535563686,-25.5442638795112,-9.81343753016005,-1.31403182451836,-34.4851408096381,-28.178697049126,-17.3173125346779,-16.6582864209889,-37.0806395728413,-21.1743979933079,-26.4956763607677,-21.3726561583494,-27.3788414960451,-35.5736911941988,-27.3840436396175,-28.488080282986,-23.0833698127153,-28.1920182634877,-8.22811360173596,-29.5045994086137,-58.9020116470242,-67.458664820491,-50.2782808839958,-47.2561065144145,-54.1033232799185,-44.7433651667625,-37.7185944136757,-30.2325781761952,-30.67465924115,-47.9614318489755,-41.2847280681367,-39.4501771768995,-34.128908899792,-44.7991276159288,-43.5642043652467,-44.1764763647165,-43.1796887355934,-47.4039875579864,-39.1291949828759
-83.8192345873204,-81.7073895736772,-85.8456687274944,-84.8529520516795,-84.2541208011034,-70.4264002574,-78.2753047425645,-86.6422082497079,-76.2210213676902,-95.6365787313464,-100.889825867064,-78.8896705126194,-80.1155061109135,-83.335851137706,-85.3445341723264,-75.3399563054568,-73.5814423442575,-83.3565518670081,-87.3958094341529,-72.3540525624778,-84.4169515948468,-92.8598795867747,-80.5759036633753,-76.1981803209868,-50.5083067068663,-79.8243877919218,-81.6836789075293,-69.522388330467,-64.9662776579283,-96.8774441379082,-93.1021448064018,-85.4538742080231,-76.103048482818,-99.2058027773824,-88.6420208887746,-85.6993731673434,-82.9781828870669,-86.6140073563448,-99.9353815637778,-88.039079802365,-89.9020618400887,-85.9019117074288,-85.0347335746214,-61.751957351239,-84.8450314616192,-106.74295701752,-110.020212129589,-92.1298702001953,-85.9771484157287,-90.4597261269025,-91.4079224091686,-83.1712082293365,-72.9983321679193,-75.3198842550396,-86.2810028080617,-81.5977842716751,-89.1586864111077,-74.0655172984309,-96.1621792588322,-87.1248489255607,-93.8304148275661,-88.6738416831754,-93.6413782757103,-85.2935562963746
-111.23405709599,-112.270715506948,-114.32289680032,-111.009996824014,-119.217422867946,-100.453688166843,-115.135459810084,-122.987371887167,-108.230373315595,-124.731393854319,-137.879966532754,-117.655537356475,-112.350278438567,-125.049000818595,-122.190406265869,-113.747487768767,-108.583721876342,-129.586778459834,-128.883015535098,-114.173341623893,-129.234307536469,-120.482858241353,-127.820035805337,-130.301766311727,-95.5463478187689,-133.384948350753,-116.674775487229,-115.449846538926,-115.942102607054,-137.079330310615,-141.007279821702,-138.263393424834,-124.993724107547,-145.126370096586,-136.790925297858,-131.289911455777,-136.620087349332,-132.888507960126,-147.996898347539,-132.166202221823,-131.295712733608,-135.132022773131,-121.025591334311,-97.905550203439,-121.113780316226,-122.415908892549,-119.077987103318,-106.185170436684,-101.109634445416,-104.960450791467,-106.034897425344,-102.691027012598,-93.3720424526807,-94.7311425457575,-104.294195339727,-101.091041824566,-111.917588105373,-90.7188705088763,-119.627736023353,-107.176208744514,-115.642139422609,-111.013890713302,-113.805703522985,-106.350414936629
-107.861705788863,-113.669288089893,-107.700263648399,-109.152392868394,-124.21136074082,-104.563701878302,-118.080949421926,-128.48661453966,-109.29820793329,-121.139172581153,-137.301562082653,-123.188254951186,-107.392244204733,-130.368890916128,-123.199619129835,-121.383258971544,-113.944632378242,-136.409662009531,-134.126887813558,-123.5770223247,-134.164913743695,-122.358815909341,-141.483616140164,-144.682905042029,-108.799371564116,-147.401991021801,-122.046504457116,-132.056188895171,-134.122201364704,-144.743550604125,-155.435713746155,-152.18296305588,-144.07118801677,-159.798317421389,-140.638335217411,-144.217271911922,-154.830975497322,-145.829992959683,-160.492630360238,-144.623342315545,-137.882830886771,-148.405406543889,-125.987735695847,-107.521025643695,-129.93667073469,-109.041343014245,-100.342767998284,-95.6469527928296,-92.2669833728982,-96.374043058271,-91.0261000043158,-91.7444203800014,-85.3919374242182,-90.9070389793403,-101.67069918763,-98.771578536644,-100.940843413203,-86.7047820062198,-113.605444972328,-101.039287678123,-110.245822733931,-105.646660251363,-108.221313739682,-101.943485096645
-81.5617418836602,-93.4071934974838,-83.1831485895346,-86.3786027200985,-104.140196108152,-99.633111532524,-86.4431490285756,-108.824281607841,-87.9505555673108,-94.5158750719956,-109.619073994149,-104.706137312239,-78.8546530111045,-107.14743778918,-97.7458203011894,-104.560579387239,-96.8920079082978,-117.517203923291,-114.70259848567,-104.004745582573,-110.325655995402,-110.786853280222,-124.416607077907,-121.874609419027,-93.1913529858856,-127.473263008909,-104.784180230265,-118.024128516757,-122.31369669166,-125.353808610148,-137.976594179087,-128.631060151581,-128.401403684,-138.857822853991,-113.582943523418,-126.047166739544,-135.828727668682,-125.136056601577,-135.823262616285,-125.375950170979,-113.872865015361,-127.669097439436,-105.417404017442,-94.2507946019781,-114.404205928533,-81.8480723091514,-73.7188323881794,-74.7688546578636,-71.8589347440305,-73.1418944252938,-65.286939172259,-64.5183274059197,-62.1621640228127,-75.0744145433415,-83.375356954615,-82.532617230504,-73.6639377833908,-70.8759513422058,-86.973764078054,-82.7876692879908,-89.4113823936907,-84.1615133269437,-87.0574565273939,-86.6652658105572
-57.2858916460178,-70.7190245863917,-65.4454109918311,-60.275612410788,-82.5109383238912,-108.067663125954,-47.5628513688577,-82.3430935407305,-65.621218883114,-67.1583521046746,-84.2511248172528,-93.9184419377405,-56.8294995932765,-81.6682077131778,-75.6311482003504,-85.9912773423528,-82.1060427899272,-95.2994155499336,-91.8570550013273,-80.8133918950719,-87.476848375886,-98.8136838518691,-104.882779781572,-96.6336436444046,-74.815124180011,-104.756496320444,-88.4990683223232,-95.4236528122287,-99.9519217670433,-100.483752627779,-113.891640467349,-97.7821090515006,-100.129931692586,-108.59964228841,-90.8699868548031,-103.174683563025,-107.690453128945,-96.8225869407842,-103.318078512388,-98.2177344476706,-89.1245208703095,-102.001880427628,-83.5094225063219,-79.7087948149931,-91.7712312740445,-60.8287893997534,-58.1990153933724,-60.4366847769133,-57.6378186861402,-53.6344861872135,-49.0758299504575,-45.0137343108084,-46.9517883103662,-59.4587614189949,-66.0813898097448,-66.5668153737161,-56.6639106219889,-57.3140709646351,-60.6859818081906,-68.977912839764,-66.2071210476451,-68.6149360995174,-67.3404868346611,-74.2686050512599
-49.2418916308669,-60.5902403481254,-59.6252492877655,-45.7311397463829,-76.3772601020729,-122.786933956865,-27.1625717868346,-64.3860644269607,-52.580685715894,-52.3021046899213,-76.3757168339745,-96.4885500232615,-47.6773033937749,-68.2691652460619,-69.0311554625021,-74.6607693159458,-80.2580947452562,-79.4041453815192,-76.730913230174,-74.1985939288537,-80.2127425429664,-90.2787596379881,-97.3326582633841,-87.8133001968939,-68.9111319213764,-93.3996528447275,-86.1159681797772,-83.8474260089977,-81.1872465618762,-88.1831613547738,-102.57081920325,-80.5375834854363,-83.1532295370243,-94.6280509694695,-82.5328395364888,-92.8494406299719,-92.2061181216353,-79.939014382945,-88.8571175277153,-86.6672620996494,-81.6312206444096,-88.6017270586776,-76.6357367210069,-77.4404947701768,-77.8152278289759,-57.1461313734302,-58.9838755606792,-58.649934510147,-57.0106783561406,-51.9170262187299,-48.4919027660475,-44.5377942186097,-46.7082547212892,-53.2441408560067,-63.8291249371856,-60.0577310257508,-59.4969935012696,-55.2649737496161,-52.2048836602001,-64.4272890262244,-56.4350591952048,-70.0389831272412,-62.3221073550128,-69.7588764707004
-47.0703314540732,-61.7258247711338,-51.4905821308281,-41.929589931658,-78.4383123835425,-109.406476828159,-23.0005496907307,-56.9758943610563,-36.6809696989071,-46.7880464964313,-74.1687475719507,-82.4528662857329,-35.7258144621119,-59.6297761872154,-60.5866364824084,-63.5918229581761,-73.3101259501565,-65.6263582021807,-64.8127410632431,-69.9148246874706,-72.4688277677562,-76.8530756337266,-86.2237465195282,-78.7049367027886,-63.0458048819911,-78.6709442077702,-82.0013477623989,-73.0064749015755,-65.7838587327664,-82.6670822261667,-94.120308834594,-67.976282531617,-74.3092934306936,-87.3999443710821,-72.2965898943185,-85.634140020313,-82.5041748932483,-68.4724685549924,-85.0142752004503,-84.6759559639429,-76.6114702335345,-76.7470197751292,-76.293439026993,-74.761037363748,-72.3972028357651,-62.911915987349,-66.987719594092,-61.7624717513629,-61.9563903402606,-63.436793923329,-54.6527902828651,-52.2739079079167,-50.5606153015939,-55.2669799189498,-72.2475957314901,-58.8510907177712,-67.2286651973775,-60.9955378587259,-57.3999678570694,-65.9317679972964,-64.1013742251603,-78.0425862396518,-68.4538276534171,-72.1273024885417
-40.5161417133785,-65.0037313769937,-34.5982466827721,-39.6812032824826,-76.8868350180338,-62.6021174682579,-19.2112682377753,-54.4055903435381,-12.6976149791979,-43.4997459303526,-64.6805310204346,-44.7820657885162,-20.4309824294572,-49.8108816331437,-41.3759800087272,-51.9316293888713,-52.3504128753897,-52.5858374539281,-52.9890945184545,-52.7755987167156,-56.2171941647313,-56.2905867818948,-66.403001370277,-59.2182714479888,-49.1324789609008,-54.6962799668059,-65.3412261399847,-52.8078414832627,-51.2315822306323,-72.764527400903,-76.6311228977825,-50.6824137844344,-60.8569189588471,-74.3768043185109,-56.7661302592326,-70.5729887585825,-67.3709538225969,-56.4005512271972,-75.8875740919942,-75.0168067993466,-61.9859627357453,-58.663192285271,-69.369278499721,-61.4571503332244,-69.37830055946,-68.4518817233841,-75.0538703144595,-65.0004751030074,-67.3732083053466,-75.4741438096793,-58.414906691224,-58.634608440529,-55.1512178236679,-60.2394632023493,-80.6435135485658,-61.6335719018602,-66.287928214858,-66.3702503386538,-63.5662968062276,-70.0777439256357,-73.8214874500685,-80.0401965379117,-73.0719879701944,-78.2925559340724
-32.9186775757958,-63.0262301326381,-18.6782326569869,-33.173473490409,-69.7184940672838,-20.0965111861707,-12.094925566205,-50.5806546109397,3.76491967632438,-38.0222426882503,-49.3108055122609,-14.3637108473797,-13.4979982694922,-42.6551096969317,-24.6653748707523,-41.6964000755478,-35.7508226375039,-42.9597731837659,-44.6202937170905,-37.1648396382813,-44.760807721182,-39.0407698186862,-52.6560505164846,-41.0035627902604,-36.9433547165442,-36.1111185212843,-47.3522923206562,-35.5318985507128,-38.5628158103272,-60.0815127378145,-55.4298002904377,-33.7647974296321,-42.871647082969,-59.9869163886312,-43.7183804069403,-47.585789258136,-48.6690823752522,-43.9167984689415,-58.5149600330544,-56.1007934130714,-44.6131901806375,-39.2860254074757,-52.3156034433576,-43.9312330563759,-60.4044350736144,-69.7645599300562,-76.4952892409174,-67.6669442765041,-71.4329775459234,-76.6279349752039,-57.0240770781815,-61.891064649536,-58.6057581179634,-61.3647594688209,-79.8271271297421,-69.0405336733072,-57.850634522235,-63.7415530181119,-62.3372874492608,-67.551718813815,-69.3746094587488,-73.8748282616893,-67.099053673686,-79.8987955823518
-31.0787292348564,-57.0596886676708,-14.744973381552,-26.7372039232044,-58.6833895259546,-8.08219898876236,-11.7165174435478,-47.0303929112232,-0.0460790134949233,-32.7426733213474,-37.1714259007772,-9.67751026911493,-16.9590015486561,-41.0732390744689,-20.6956171423161,-34.9617905171253,-34.6671164624051,-37.1131816035096,-40.5341200224179,-35.6651739180327,-44.0574628476921,-32.7416733260159,-50.6745816015385,-34.3605797955128,-34.558554792023,-33.2332288109079,-38.0971767691923,-32.4396184765804,-30.2027624241921,-49.9875202629158,-40.8251530852835,-24.288500269849,-31.2663371895546,-46.6043007468953,-32.9626541977778,-26.2661195672221,-35.772296551555,-31.4258991054911,-38.4828017622016,-37.9363630723176,-34.3169615766224,-27.0809371969629,-33.079395432841,-31.1262750100191,-43.8671651345461,-60.1111854919008,-62.3398413691223,-61.7596589623265,-66.1429178808213,-63.9211338315682,-49.396364342871,-55.3633510242439,-49.3620570237462,-49.1756731400245,-65.2069559410347,-68.2868592207411,-45.1304331813354,-50.2272084927396,-49.7937635379958,-51.3600680620448,-52.5503854649283,-62.1190756692656,-51.5667039458915,-70.2946829510518
-35.1779520018025,-57.0517637635924,-22.8685937751335,-30.4943017134092,-50.4160639738669,-15.7609751855875,-23.3595132125067,-50.6800002870183,-17.5426164828655,-36.4982550224947,-38.1222212409726,-19.0252865473775,-26.7021092738241,-46.3736899335652,-26.8456698601249,-37.9672253474474,-39.4911008283267,-38.0502388082034,-41.5665882017017,-39.7512079039424,-49.33467556929,-35.7491518836038,-54.8495491357186,-40.0543934248177,-39.3522922435556,-41.3762571411371,-34.4441503110934,-40.2101792224683,-30.5082398723923,-45.791293535035,-40.9855488259179,-26.996165312329,-36.3209789951214,-36.5762160105198,-26.6638039259115,-24.3703633770842,-39.6622889687686,-30.4179686779054,-26.5413053911787,-31.1026998037332,-38.3222966258486,-31.4681675252989,-28.740157502939,-31.3601706727274,-39.3044368461918,-39.8709440986712,-40.2880534087544,-41.8130469765259,-49.7486065016412,-51.6067181332183,-34.9362622757218,-39.7313185242049,-29.0413613067142,-26.6715612255641,-43.8782971506957,-53.471892885066,-31.0429727031076,-34.2763965853659,-33.1035043014271,-33.0990419047014,-37.8378158956698,-51.1189202552123,-37.4717077409524,-57.5096570429826
-40.2587521548514,-66.0183714237745,-36.7821511091543,-43.5733012653781,-54.1508652985751,-26.6513572921226,-40.6553320292607,-59.7161060608631,-34.3472511722133,-50.7621399049535,-51.9107156695356,-30.5568330271126,-40.47954262787,-59.1435065942678,-38.1456427589899,-49.9965048721958,-45.1001138504661,-49.2134203873023,-51.4253282195192,-45.1070631978589,-57.7001300342658,-44.5848455972047,-61.8738786438441,-52.896671684308,-46.2429131793336,-51.8965001725999,-33.3093938037328,-52.9088502314779,-41.9197250121682,-51.2911688510764,-56.9767674286067,-42.8376567961916,-53.8360337362529,-37.9388662560947,-31.6035394786799,-45.4506601859505,-59.910839926082,-47.802499701336,-29.8238566657664,-39.7331459500774,-54.2175166027988,-51.1624827559706,-43.0170914608844,-46.7152658018604,-58.5175418498454,-25.3450088271555,-30.8219405415936,-21.8155642764808,-35.9781200550143,-54.869353152109,-22.1326536534046,-31.7168559432274,-19.8478832855634,-14.3317599894557,-28.621674702122,-43.2005318305993,-23.9557119954638,-30.2163404935639,-28.8259841072684,-30.3051046774136,-35.2677942629707,-50.18798660746,-33.8642534451373,-56.1285372786355
-44.1962932262406,-72.1466730483935,-50.9608030337146,-52.9360316981153,-64.6506605008361,-35.0886878695468,-53.5201004954059,-63.9457880161347,-44.7066779866598,-63.2782336415519,-60.4390066751446,-41.813285662427,-53.8579679850699,-69.1238385023964,-47.5599640466709,-58.0850091096399,-53.8072359923165,-61.1608347934306,-62.6264678043042,-53.6551091602865,-63.6049303698774,-52.1674042094078,-66.5639524599997,-61.311070182916,-50.9578997297419,-58.0526792568221,-38.1300454152075,-63.7700512721198,-55.0357901174182,-61.0628181844766,-72.6077733356596,-60.0018622557229,-62.1915967147797,-47.4682961176183,-42.1243795021174,-64.5838433782611,-74.3866277218647,-61.1561947862217,-41.4381750278421,-51.8507362194642,-64.7599848714669,-66.4274641991744,-54.2720046316417,-61.7890695855028,-73.5117394959682,-28.104243032943,-36.6326490872733,-19.6929945654838,-36.4267363833582,-64.2645571192247,-22.8685159971256,-39.1093618003456,-32.1837191492508,-22.3750801568264,-24.1336829216855,-48.6099691349284,-29.3159650812771,-40.1524686800417,-40.5726884018996,-40.9453499768419,-42.6120575366769,-56.3270821580226,-37.7520579937498,-64.3031085722325
-49.3796846156231,-69.6168022972065,-59.4947514436834,-56.9196065543301,-69.0564726851721,-40.4887097436616,-58.5159143027589,-62.3998195135081,-51.7900153767658,-67.4679934421441,-54.0290025385775,-49.1324803995283,-63.4095328158046,-68.2352179424069,-49.8662629287355,-56.6276480942877,-62.8193354416629,-62.4127967016872,-61.2044203242555,-58.1084418271139,-63.6494708600591,-52.462521973209,-63.86932006305,-58.3070163841417,-50.841661671919,-56.4360682348285,-49.1480542920065,-64.0278853319383,-58.4412124360436,-63.5134983009191,-70.7255658596718,-63.8867150790895,-50.6705523054888,-55.1905963339872,-48.3597047126438,-63.1319191923502,-66.2739686675595,-52.8003077338314,-52.4591000714909,-54.8215225847109,-62.4013878895185,-63.2513386981779,-51.637034272424,-62.4138127598902,-61.1762054024019,-42.961819129002,-47.9372062706594,-34.9932487370051,-49.7710553257851,-64.0873973466071,-37.1633296356435,-53.5813328694831,-52.7672223833931,-38.8710232946542,-28.8192591478292,-59.6348339468192,-44.8360159321092,-51.0314124873272,-56.2672741357725,-54.8392251857712,-55.0812519564332,-58.2203052145197,-45.091829483896,-70.101314986294
-58.659833303271,-70.8089164575678,-61.2939963544303,-66.6938526245818,-71.3942593799193,-47.2725673452681,-64.339450146637,-67.0780230824131,-56.6929176347219,-72.6269814386269,-52.138903440641,-51.7249415268278,-72.0851354475883,-69.8727258903784,-52.813691302505,-58.2524510910567,-69.0897480285505,-62.0803819989523,-54.3346080140226,-57.4228654585419,-65.9674639714837,-53.4416939470831,-61.1563333319124,-54.5885604828194,-50.9585506183667,-54.0118060147943,-60.8727842731557,-57.7062626603058,-60.0137919460481,-62.7504174018279,-61.0673545369944,-58.8127959912609,-40.1278233276435,-64.3204248218491,-54.2483405257557,-56.8255770227624,-53.1787611491773,-43.6516829442304,-63.6289214340021,-57.6965927348137,-62.5048737117775,-55.0687934111689,-54.4494623506751,-57.209954174977,-46.4452996143909,-61.8658930557316,-62.4551316612902,-54.8235504505915,-69.9964203323221,-62.383868971647,-55.7376479820638,-68.3833529566309,-69.0916444715167,-53.3197964199284,-43.4320627311504,-71.0013256921519,-65.3939916999443,-57.748916977912,-70.2452110114393,-74.0135463551464,-71.5907426516742,-60.5594787433324,-58.0225325211574,-75.7327606112619
-68.9571158364008,-81.5579062941749,-63.1951657721435,-80.8112567149453,-80.2488528677633,-55.6021020927552,-76.537348122114,-82.8119785250044,-54.8484300690864,-84.1642368567728,-68.4629377251467,-51.6194820476652,-79.077109512779,-82.4065698319924,-63.386472735685,-68.9217813601017,-71.9308254530503,-71.7047952230037,-60.510673022905,-61.274761574977,-73.1917534617203,-61.3044131904308,-67.6247942860556,-61.0966226141234,-55.5838854321309,-60.6083373123703,-67.7127743447457,-58.6059052320179,-71.4159617008312,-69.2838977716253,-61.6024746772923,-59.7678762175965,-47.60608528368,-75.2624540767337,-63.9632743119545,-62.0723591980031,-56.9728562154694,-53.228710827967,-73.8058958650375,-68.2775553801626,-73.1082704725329,-59.5240405750823,-68.7568077101042,-60.1018817467138,-53.5469103538113,-78.1232325200352,-73.1127710065151,-67.9695601944606,-87.3112698719046,-68.4766904738946,-68.2226242548692,-78.0400987196451,-78.9137094815683,-64.4483516719126,-63.4271484780752,-80.3455105870419,-82.8584146954724,-67.1974020882324,-83.3507269988103,-93.8862179441843,-84.9818029453489,-71.2133125705175,-71.1561499371142,-85.2760360094874
-72.0804554667828,-88.3833583368022,-69.5268971445476,-87.9475353659377,-86.700939811804,-56.6795255096568,-84.8524275971961,-94.9261684741638,-46.8603407222563,-92.9684821129043,-86.5618980893743,-47.3632495031898,-78.7468556804971,-91.2651840018225,-70.995669325034,-74.6402989894834,-68.7441880953049,-79.3903759058371,-74.7068698535919,-66.2666258822741,-73.5736759471506,-64.6193043569873,-76.6384618491814,-67.7619629548407,-56.8639664440692,-70.8653591181435,-65.4089266451017,-64.5464493255602,-81.0230626031436,-74.6320430083915,-65.0100639500797,-65.4990118353026,-57.1779334916293,-70.9620382246152,-66.4391662416894,-66.2152344417981,-65.7541993351389,-64.9444048835059,-72.7179795725217,-71.3586635241615,-79.2199860562119,-70.5138151665331,-70.9830852538309,-68.2582305699079,-65.7064946920529,-84.3802608308149,-68.5765543425199,-70.9499163349271,-91.24994905317,-70.3213440587991,-69.8605375080203,-76.5665188738757,-81.0493809482352,-68.8683589084328,-74.714535576654,-76.4265699022173,-89.7933793691123,-76.1948764667416,-88.5302317673271,-97.8246193325744,-84.7720647047809,-77.2486248925885,-74.390529961166,-86.5332512960181
-64.2603388278658,-80.5497105691257,-74.3486337915759,-83.0042702912709,-78.1710206147341,-46.7489860048492,-78.317048175639,-85.7311941436996,-41.0324183287549,-85.3501057443123,-86.5895186034201,-38.6762711300342,-70.0236140032438,-84.6171168539888,-62.6111000464393,-64.2679311404093,-56.7870540827322,-69.2059210205988,-74.1739112004975,-58.5654821820122,-60.1291682263796,-52.2003649735507,-72.0099408288368,-59.7964804191008,-46.9014004389055,-68.0918965493694,-51.6582428221404,-58.9947707549443,-70.3089477362333,-63.1954671794456,-53.8857591376064,-58.1820771248285,-51.1545868560884,-44.4996445062818,-50.5844316322547,-52.8605263785602,-56.8867891513392,-58.5738962991244,-52.7376630175896,-55.0844671214242,-67.8724815595569,-68.3295321836856,-52.0769112136748,-67.1552225108781,-60.8089994313459,-77.3047182928877,-52.4360588181715,-63.9874580575874,-79.9632497472979,-59.4950235544515,-64.2701027941611,-64.9476472694494,-74.4782505841623,-63.2347126208091,-69.5046995562287,-56.4886212440473,-85.1104919872713,-73.0873341565168,-77.698030897812,-84.6299564036944,-72.5371188201547,-65.6664620581296,-68.7828459991061,-71.4019502314626
-49.6016240038134,-64.0649845759201,-71.029503146217,-66.3360844687864,-58.596443618744,-33.7396064564593,-60.6309672644329,-58.2154597529079,-39.9131438709329,-59.7048152991036,-68.446668212758,-30.3984337901648,-55.5279700428505,-65.9581735208087,-43.7855123463176,-45.4072500994604,-40.2769901709653,-48.609839128242,-54.2497244191936,-39.3871007052942,-39.5338393802681,-31.6857186231374,-50.1729150752563,-41.8605148821252,-32.1724071914953,-48.0545242528231,-31.6219197222216,-41.0317862759412,-45.3330924668937,-38.8167473807799,-31.6166652231929,-35.1733963362396,-36.8523842373462,-16.168672776633,-26.1006588971981,-30.1924780193463,-35.6608308904301,-41.2294673192131,-23.2817286738716,-32.0933716126802,-47.508104337627,-48.480551547313,-32.2860630373349,-52.731210048387,-41.7292754905833,-60.2224111282731,-36.9613111290372,-49.9080537814346,-61.1635346195649,-45.928559985877,-54.5298522337092,-47.552290020247,-64.2738369416823,-50.8782040528715,-56.5121126447128,-35.6132637412717,-72.8136278686585,-59.0455675319116,-57.9312112722203,-69.2113121113636,-60.8753913899026,-44.7878866191641,-59.5475981000314,-51.3540325637137
-40.7571417907923,-55.0401044402298,-66.6934159865929,-52.7092583082961,-48.2841752466633,-32.8531971951027,-49.5622062417784,-37.8973108045403,-42.3336115863515,-38.9706379546831,-53.2288372464745,-31.4163198106934,-46.0781989035364,-50.9413358546786,-36.5525455706744,-38.0905403305293,-35.9971507217469,-41.1283315023424,-38.6187400159583,-29.7376447826245,-29.1495449779165,-27.6827867543151,-34.9975960115537,-35.9656893075608,-30.0496178191576,-32.5316501732112,-24.9638904698071,-33.4204784693807,-35.0777073440825,-25.8710430066317,-21.9641331052531,-23.4180671834516,-32.5020624690893,-12.4872396066093,-18.4539010910625,-23.9334115018595,-30.4155990874466,-35.28783207533,-10.3878855335911,-25.8043358672551,-40.1565269610845,-34.6142671308945,-32.206602531734,-44.0320508825624,-30.5138472649176,-48.6049823612105,-32.8206538219172,-42.8679938024427,-51.624605385186,-42.3458138561715,-46.058167665221,-33.7144601866826,-62.701351603503,-44.2332597038018,-52.7244644954826,-32.7669496503869,-63.7296311945216,-51.1846312471532,-50.3328243971098,-62.3586900998013,-60.5025010721452,-34.3420871906265,-50.8193891523929,-43.8119738213117
-48.2979232967636,-62.5203886137154,-69.493037271805,-60.0650767887411,-59.015866799162,-50.9301009291682,-57.2078277051628,-43.4377701070778,-51.3073790179792,-42.8709958158479,-59.8093517260076,-44.6673572282795,-52.3178907251479,-54.2567929890711,-51.2355703829555,-51.4940719155196,-53.4576403981108,-53.7677412005347,-44.9140427513374,-43.0670864357026,-42.0902213564183,-52.28381252253,-49.4117208695995,-52.1146546199063,-47.0888491871474,-41.8003300046189,-46.1010563328087,-49.5368573690734,-53.8105001367189,-40.0686193246888,-38.667670375732,-39.6141814572917,-43.8897380536643,-35.2255463405719,-37.4218751430299,-44.2679074259913,-52.1493290406836,-49.5574251299529,-27.4908152620989,-44.6650881322001,-55.6965371774876,-45.764464354673,-50.3440942826864,-56.1754168510757,-43.7499075654193,-56.9295999080064,-44.1078567196139,-53.0880660579261,-62.0406093525348,-51.357495012701,-49.6962705304471,-36.8735798733774,-72.6113625097463,-53.3437923700433,-62.4376371177235,-50.6064352359351,-64.3309144974506,-58.9685112182095,-64.2916195238441,-59.9260013573016,-67.1800339245473,-45.1249009385047,-49.7046384394597,-53.1825905273466
-61.3512402726556,-73.2440448911158,-69.7724352249103,-73.7320795458995,-71.1380741088233,-69.4531101086539,-69.2601310903341,-59.3639403840196,-61.198059759557,-53.3264069357779,-73.2602832552906,-56.1281352420127,-62.296911307464,-64.1041578489767,-65.5734569109499,-66.8540892437698,-69.7719600921546,-63.717168486862,-55.9616124724731,-60.9726109880926,-60.8434270394297,-77.1704116329096,-71.6646292764993,-65.6029928331674,-64.3429173009183,-59.1588049822331,-72.4861652301033,-67.0651452090811,-75.6110127325179,-60.4929697338997,-59.7491493557524,-60.2104010787793,-56.0198331740811,-55.3800972022073,-58.2466129115085,-65.7406473674166,-73.5072963857919,-65.8127610189925,-51.5175613499378,-67.4447299057886,-73.8941199217367,-61.5297364778629,-63.3474648201711,-72.0797982709648,-64.5019734262936,-72.459436037939,-57.2125624760885,-65.9103129981515,-77.9847039835287,-63.1334025152951,-60.9960764553337,-52.3262792247973,-75.6983867663372,-63.6115008618507,-66.7665033296714,-70.9929458149503,-61.052058375935,-68.401378325911,-79.7249178867597,-44.8025676823155,-64.3784914698635,-64.658262001128,-52.5158114204189,-63.9259289199224
-59.0447062185215,-66.4971465218625,-58.0432655608368,-66.3549072247163,-60.4835174532187,-64.7171463420935,-64.391837807143,-57.5212778423908,-58.0964663860108,-44.9900745434363,-66.7972172055524,-50.5436087835367,-57.9827710054261,-56.1094063068927,-55.8526280553481,-61.7108403714365,-58.7313746407195,-51.0145844779268,-47.7423253186088,-56.8627762225624,-55.2847826875951,-68.2855427210017,-64.062127109381,-51.578083816202,-61.5821137925785,-56.5300668215309,-69.7507273216681,-58.7475522640133,-68.3104004245714,-55.5338504784816,-54.7785737672019,-57.7554230012044,-52.2285651024228,-50.2852854017084,-52.4197024535499,-61.1493547482662,-66.5313870478917,-62.9249437755987,-53.2119712358093,-65.6571578517968,-67.6847004787074,-55.5450381731441,-56.0553432248632,-68.8246584499962,-62.9418197934346,-70.7928267460669,-54.2184312091073,-64.3094405407066,-78.2196920103782,-65.9409761444202,-60.3201661043129,-57.1173666612849,-59.5055478416576,-51.1084325077684,-47.5483155483115,-78.2056858635615,-42.6179497543439,-62.6117945249038,-73.113186493902,-12.1464180397469,-47.8085147919358,-72.4273214005074,-42.4154780082829,-60.1665843999206
-36.2474659552111,-39.1663285971643,-38.6602459553597,-39.968559000007,-30.815850082147,-38.2220521696429,-41.5952009509807,-32.7960707346083,-38.9780876667948,-21.3984009145399,-39.9086829124954,-29.8506411892742,-38.6467719177827,-28.8811543175319,-29.1942979812373,-37.8718153147663,-28.2707657597899,-22.3049653684608,-22.7813461090178,-28.6995530008669,-25.0106270398129,-32.6755226168475,-30.269362032858,-21.2263898595487,-40.4074005618938,-32.878587753201,-39.3561661541676,-28.1558491369483,-34.1733017309443,-25.9390605784998,-25.3321538208372,-32.8888229120855,-32.6811551448959,-27.2973817149194,-23.2941329791657,-34.9606314991576,-36.4011282571244,-40.044812963795,-30.6003678746406,-37.1710080919148,-36.679650661603,-31.5668905235145,-38.0680155062831,-48.2077478779728,-38.6018647836563,-47.1822671341064,-35.8925466986236,-49.6896176534078,-57.898641654705,-56.6783718962325,-40.0209765181123,-38.3523099171857,-35.095587688745,-18.9597285175905,-8.78021523235914,-67.5906044038347,-17.8641450312744,-37.5938631287945,-46.1536084559474,17.7275927776965,-27.4142999759066,-61.2421882103479,-13.4915742125025,-42.023835399642
-4.62209800129612,-2.4025944699358,-13.5590615918669,-11.9244630264283,2.79720886190149,-7.73984895918445,-12.1567936923023,1.255185900043,-12.0382260843521,5.13099225148493,-5.51289946377978,-2.71166258871688,-9.59641891433859,2.65590908203283,-0.865671425733725,-9.13583778841975,2.19179834147947,7.96080051046165,4.96619746924122,8.46901501816702,9.68243937999964,4.10440184148242,3.1178893466681,7.75840165000655,-10.6367494260259,0.59794073293799,-5.8546505044698,7.95097540118854,3.48569361704842,8.19242543461298,10.2616455955638,1.56214191906017,-4.98331678102023,1.30449860552445,10.2385934201673,-0.641825684487787,1.93335590473603,-5.18355494737541,4.78218557940461,-0.993756483073739,0.845287291974824,-0.613538665934538,-16.3588488909139,-22.3153738937351,-8.02782849530332,-13.8002762120117,-13.8230889489853,-26.4839165708964,-24.4967898547437,-35.8575652994796,-10.4789460889701,-3.95072450243708,-11.5609430446392,11.4319938367316,31.2231687280106,-36.2786677185854,5.12344846135862,1.68066098908448,-15.63067550946,28.83586988687,-5.9699898880463,-33.1658086062781,18.8436602894844,-14.2722891704101
32.3688148777462,43.8279462837462,28.3657527866126,22.6123347447296,44.8348154933206,25.1916239085282,25.8083000399853,43.3802069340268,25.0352807938307,42.7349330151079,40.4350835054554,37.0789907188648,34.1050511182071,42.3269648389044,36.7303615300118,30.8725689687334,38.251330050087,43.6012183933058,41.8395679004675,49.4691903662932,49.4417201549296,44.5292393319391,40.5809912052332,47.111700576532,29.9907503996885,48.1546235414084,30.0170204395709,53.0191944409734,41.7606823830744,47.5563907804469,54.7013174925043,46.3967783662105,37.5726268841641,42.8636223284379,51.5755521418374,47.9931235239311,52.3977479593967,44.5759225132339,51.1512194680415,39.3595438962836,44.2637530473387,44.7275006370218,23.8183746175713,13.5151932164708,34.0990587413463,26.5710760938581,17.0327507517239,13.4585274269005,20.5951888497652,5.80600650534038,25.4906745956001,39.1173194798998,24.364597720401,42.8731375561072,64.4291325451224,16.9636975898047,35.2731127364273,48.8846870546139,18.3326143810535,42.0106126195066,28.0965857681106,14.515908787548,47.1055551951454,28.221418592419
94.4292555597186,115.827630177599,100.360323870564,87.9905564053968,115.670265843222,81.4348640541925,90.7860108574914,109.772251732434,89.2050660960495,110.794928236393,114.833695650086,104.528848776578,104.030228777859,112.717751838246,102.872322306793,104.037625358048,99.8466970905683,105.761750868726,107.322398797115,106.728714014091,116.461490698833,109.009584509717,107.992870784272,117.153609420081,90.0487404419091,120.456350733494,90.4817578081686,122.826300561422,102.808981361486,109.595356880805,123.114261136667,114.836910902865,111.370593093812,111.166372419308,118.671426857245,121.966708921984,125.676600316772,118.944264031143,115.898149884755,103.785620452964,113.550259954228,117.934765283292,97.1463717409689,75.9037427100922,107.283521734479,89.5947322343995,79.0993030959305,82.4333052757272,90.5547512246173,82.0502426191803,86.7214749230864,101.583347610436,92.157496264227,101.939902213807,110.134797164835,94.5021779681178,90.5693213538869,109.659627195311,79.711286582702,96.8815926514141,90.0108264083824,89.0674260872609,96.2073384430078,98.0222606403575
176.104360138576,198.399181839361,180.450538418831,171.316522555051,199.083004630465,154.482711223973,170.783862931258,185.178513336034,167.394150068425,190.330382162905,198.759520442922,178.399238308,180.792110699259,196.402527054962,180.765359651286,187.110801298423,172.078375363071,183.48731770153,180.224212955898,171.575264575456,195.506821258741,179.499321094612,186.670989906142,191.170152222721,149.993547482968,191.090734963754,160.532464674358,194.893546669952,174.835532180728,176.55899572059,192.45800179378,186.73753605255,193.072601238757,184.014379248331,189.998210014938,195.219426670976,198.502917704548,194.280708570464,182.263191936478,179.570174222645,191.989881831392,195.893295547804,175.766246277932,146.477472498926,189.847648582621,167.76178468181,160.393302041621,161.544109239951,173.446406421831,171.182257806168,168.128634206973,174.628680828227,173.401275174155,176.057201075787,173.646397373365,178.833964260572,161.433431142914,179.078767933775,162.668148775272,181.342201290098,164.629201625481,168.895717887413,171.353048725206,180.320171463142
219.721106543486,233.748350668581,214.421320288135,212.57874195969,234.374496219612,193.259445757101,211.848208909028,217.25005061605,206.051537787504,224.883251765184,233.469170668296,206.037738467934,211.406920215904,230.999474706985,215.84881779417,216.606182234914,204.311772469154,219.105030403089,204.548529414727,199.07737368641,227.098151164701,203.985877161661,216.853446700464,209.801355076731,168.552575770412,207.930710157638,185.509289840631,214.014066043683,202.731302087333,198.525458075599,212.600907911049,208.127593556188,221.635125338823,209.423847602454,211.802626393296,218.214341892474,221.560312356387,217.904948528054,204.60487120314,210.216928154769,219.157853402178,223.169509283327,203.400335862313,172.105222860059,221.762061063337,213.125380838138,204.214111554278,201.18006740575,218.021908270862,217.740949919708,217.058489483512,212.623217328359,213.095112966413,207.807469920004,211.713790733828,221.718727845679,200.290184676077,217.238514026417,209.462898963962,227.304704044428,204.61863607185,204.157552857261,218.902136198851,225.087904617044
197.480514662915,204.208294277288,191.924187644774,191.028341803773,203.851464891338,176.084601096145,195.757720807993,197.351974690825,185.784738056673,201.361365539902,204.130408505942,180.154272102009,185.707238737633,203.508671256684,192.259990530191,186.751543727733,183.35853529228,191.81226726361,177.559838289259,174.633793542211,197.416738536836,176.46476804709,189.232938915228,173.345207138572,145.057784831653,175.965499265734,158.053335268534,177.936335680996,175.549951972533,172.359787013355,184.915793005915,174.961881684438,186.229733305608,179.084396228289,180.148331447093,190.680814124833,190.30880843505,185.61312486036,173.789244282744,181.936442254843,181.28427947176,190.746086503343,174.60579285664,144.889462563409,190.918725917227,200.61223210022,189.046184147821,184.619829524647,204.604315807677,204.338134726515,204.918905249651,198.15467283663,194.484722203229,181.4686174285,194.917429334362,204.267335742138,184.255103949247,200.338760637735,192.144383112119,209.853853074887,193.204910222958,184.463100838719,203.984040406799,210.576935237616
156.115235720101,160.868893927116,158.849373611032,153.632437911707,160.318796715966,141.1233424909,163.663338372685,170.652429913999,147.842421997831,164.352015777384,161.950138813822,146.502323132609,152.910684121634,168.999650004004,156.12524033346,153.854627477581,151.748572876334,151.909917443156,151.446480413106,142.358322530893,159.423506309439,146.694050931439,156.43267744759,141.353163432227,120.840381908586,151.946969742322,128.787077543562,144.532310112128,143.35605080814,145.707483550856,157.160731906672,140.70466487551,142.876027908593,140.899885024033,144.853330275817,160.025175678435,151.645797228074,147.761123508003,134.518560146309,143.772746685415,134.258384180027,149.51123160715,140.257342731604,114.439192996713,148.898993588133,163.147737839623,156.754723057276,148.646677485122,171.317412536618,170.778752050046,166.128740442989,166.115848777391,158.351239861662,143.573970387509,154.091862813401,165.561979793661,147.902063521338,160.564958772225,152.496498469472,175.301979606939,162.379156282989,151.318353169596,164.355714973752,170.616463484595
136.387297112762,139.881715841754,139.872680123917,134.973392126619,141.755861184816,119.760783003489,143.071043060516,155.396300692146,125.097950629557,142.377299417964,139.986059202176,129.947949710141,139.10074041602,155.648105627905,139.105418306674,140.814746326729,136.637481407517,136.559003564715,143.695241752609,134.028201879622,145.025968539059,139.595696408005,142.889410712385,133.18572516891,112.846652222061,148.184407105211,118.708598358248,138.809371219471,131.377485693962,136.651235146619,144.607448498812,127.856565239386,125.54321672134,126.512055443873,128.989838384468,145.790892374253,131.699524694804,128.907415775678,115.334891134677,125.857858006898,116.388159435304,128.593837231161,126.099223447337,104.720739605576,128.014950053018,139.216663356362,140.668808880742,127.294632217344,149.781083348821,150.711543231961,137.282881518777,142.980170238512,133.388387570023,126.127723040758,128.882624860931,139.229887866499,128.774087197691,135.510503869051,129.644134315779,157.881451192496,139.561630181425,132.792784274542,142.321130898078,141.897118774827
123.546989775717,123.834487566419,120.496993269878,120.230871199498,131.84435100302,102.77080735974,122.214589051871,133.525780264698,109.811475096907,124.640966539732,121.043004737434,115.480692221329,122.116783430305,138.434273143287,124.657353866572,123.02983015509,122.295468537179,125.078370485745,128.063702897183,128.547929902152,132.228859361029,131.235151322622,124.310879309653,116.555333993704,101.967039257142,130.606517807848,103.920210991043,130.300739739153,115.182989897959,122.932155652733,126.015888675314,114.248243145543,113.042979912738,121.22027464519,113.617535518869,129.226487162577,115.646800020649,111.682441449821,103.089092005726,113.670811974771,110.085078496764,111.787770658743,113.412715416919,94.0839705862232,113.507613378964,128.217056084036,128.016977141563,116.289880119656,132.583694478783,138.577120182553,118.054686904237,124.048053014948,112.159805269664,113.9546876214,120.132256374138,116.88901382566,125.194571988156,124.472992236111,118.908227412043,146.509294337405,126.147139551755,121.874749529492,131.980270325736,129.382854786485
109.263546066649,108.624046377823,106.221302177379,104.931652663403,122.921545465454,89.534129597264,105.014877105918,116.238242574658,101.492463647034,110.433530813448,104.051419726323,103.405728421421,100.457166805595,116.334197087631,111.130705111802,101.898138324959,106.665243357455,107.18799514973,106.859615130773,112.767116745371,111.348834139801,114.949322737784,101.474455322115,93.6341030579482,89.784305794766,104.736414836706,88.1812441278088,110.619122493542,92.2116259360929,107.579367741359,106.911764735308,102.774102244303,100.076378400428,117.474829056495,101.759521342013,113.991531561393,102.605169836846,98.6790584856396,96.0103292573131,106.185796285977,104.18801094981,100.209713703306,103.134815320144,87.2321244402133,105.654558314416,123.647252482616,114.193290215464,109.085584739968,117.56626197645,130.414072768366,110.315742504553,115.636389412674,100.907282810564,99.7087692990149,116.021752118122,98.6798675321017,126.543404854924,122.93447508652,116.37947563199,137.72374147681,126.123096474947,120.007638790065,125.008326799018,131.294606249793
116.27009100945,118.866670836458,119.548711034991,112.705843317305,134.581788343082,99.8712115448614,114.340071550084,131.578557846947,113.242069933375,115.674366710879,115.211094665901,114.379644180332,104.288461551385,120.359660764433,121.559035568727,107.753738013659,113.271150529705,110.947626732537,109.188041643857,110.496554592072,108.448372474339,115.228141418455,104.171526919038,101.6594483222,100.046371058663,106.40786950367,98.9178550985901,109.353367365817,97.1397381834088,116.16781286167,114.463179245372,120.002739414844,114.010634092418,131.096280358361,118.519197178894,124.156626560699,113.375897939551,113.957808066971,110.681507267464,120.466304090464,115.894507525473,115.575987230337,118.811492047813,113.436989105708,125.228143461871,133.960046137241,119.665478190603,115.488982191473,121.181921932772,138.246629015692,126.086127196798,130.15566368303,116.070608907947,103.23186241712,118.67177339549,107.046054917038,132.888760746991,133.212740342203,126.573944543013,140.997475567033,140.121825916014,134.26320658931,131.12707079902,144.917091831775
124.563911515146,128.038947043476,128.619640416408,120.268480233417,140.694045659422,110.377574868564,122.322328775205,143.221943582457,114.790067467948,114.550750448104,126.478135738706,121.153092195378,113.525004721382,126.304993635439,128.021660172423,118.187345629625,121.46684257397,121.794530708859,111.505340713464,110.679752513586,112.777240406968,113.902949120962,109.233671409408,116.129865949964,108.774709252115,111.845189523599,106.123529509301,112.496579464748,114.306602467362,121.262592912357,122.386461853395,138.748568471425,130.435383548808,135.898664633017,132.737181078538,131.196067030987,123.899451772188,128.772230257074,120.49652992583,126.174227220524,123.52010793576,128.287276056335,131.007287097718,136.925085289606,138.986196865341,134.284100519961,120.542901670164,112.949012232697,120.28883750881,135.459946688186,132.044867652228,131.255365209381,120.69337617654,106.037199784817,111.240863193239,117.005393187171,121.022918307593,121.409291647543,117.788601385211,127.63775278812,131.259643837503,128.57330511636,124.377485916299,134.519802346366
82.5247522488305,82.6190272431979,83.0112672069755,75.3089830801603,92.7228750259837,77.7700661887692,78.5112068814066,94.8436652749293,68.3685747213596,65.6574603723181,79.9016007288802,76.5282812019538,75.1426760949887,79.2256202773391,82.848142477965,80.6427415512235,82.5605636863533,86.2513540277684,65.5156479330049,69.9074154540899,77.7210001564209,68.4623769241599,69.3974204136166,77.1948547776487,71.330505004905,71.4125160116027,61.2606526033298,72.9615801332094,85.3715391016803,74.2644072785788,80.0051058746405,103.948499671004,93.0365812986313,86.3314697453964,90.1238045550433,84.424819214458,86.2780192201502,89.4870177124609,81.1145017163359,78.6938721399092,83.4262624700643,88.3752469791798,87.3828956156213,98.0350696338778,95.5033744587802,87.2401789019011,72.1051791642167,67.0216579215026,74.6556163406007,81.6230320323403,81.8737424544984,77.8541813961036,68.4459301573323,63.8794675147811,66.3240899086006,78.4014133324822,67.6953925806893,61.5991991828827,61.7923446371671,69.6818488406251,72.4777139514463,71.6455188250049,70.4885813074574,74.153311364231
5.15538492530895,5.53197486280089,9.44607646055158,-2.07136327728561,17.2845549622814,21.9827125974241,3.67122139094216,15.8058347179534,3.70494872600849,-7.50045367536243,-3.58180407993188,7.23965721849673,4.71548018100542,0.493421792627521,10.883831026198,11.8399633376964,12.2663592816305,13.6298713417613,-5.14976731352547,2.1801360871417,12.0998945854906,0.766715351357761,6.69211635575645,4.07697908140667,9.73488915238299,6.72319497627047,-6.07969925098035,5.25759216615799,18.4689393533185,0.373853783120446,8.61527518971918,29.6000145294491,20.3901544234368,9.27355363218562,14.892561575985,7.67920431746179,17.9566495840357,15.4963978615279,11.9597165796155,5.36764453082074,14.6549876172956,18.5251381506977,12.2970986569809,25.7444560901777,22.6222339911953,16.1566026467769,0.759650788341725,4.28485466449972,9.46290377609057,6.46857508770608,3.72072317789725,4.09609793244907,-5.91616072119027,-5.87299794191312,3.67806741693067,10.2413919146494,2.63464478398809,-3.49007259861975,-5.18279402509959,1.73821537701107,2.0339613066853,2.30589136115578,1.12542404986179,4.33221584442335
-54.4597904946061,-48.5291087666789,-42.2342425011847,-60.3980206491994,-33.5197430060536,-21.4856449276097,-55.33744485596,-37.2962171997003,-43.7682037507623,-62.4736919419558,-64.8603623442758,-39.0812996202821,-50.9986390201476,-55.9770310254102,-42.8976832814274,-41.1122653714147,-40.7492644675393,-47.3457639144522,-51.4583883242617,-48.7035961446823,-38.9176381064049,-47.430313591443,-38.0664771882677,-47.2889981801701,-34.0477655477654,-38.1131050185084,-48.8847595940762,-46.7955826737957,-36.9297346711436,-48.167715734628,-41.7388314483456,-34.9174439496207,-36.4212474318042,-45.2898907618467,-41.4311995049812,-46.7134414909405,-35.623758868452,-44.1313169889991,-44.5183829233455,-46.3709124715172,-40.2913200600438,-34.9364363720697,-40.635653536676,-22.8276178708963,-30.0403501827285,-38.3326882253564,-45.2562074267836,-37.8105709888337,-33.1018447690343,-39.7756870834636,-48.7598041451441,-43.5466483022228,-51.1996382788977,-59.5676543618373,-44.6146993830881,-41.8358989475251,-41.9497971752793,-40.4131122226158,-45.8809037847913,-42.5612775932469,-43.8089863099635,-42.3338637655494,-42.6939581629148,-39.9571413064084
-92.0157781699297,-82.1620139803695,-81.8279049630246,-101.153559151831,-68.5198732574036,-67.7741012589214,-101.30524998449,-70.9667749940323,-90.1437315790839,-103.605694868183,-101.359346037482,-76.7964517160703,-94.4337420206134,-94.4308468303177,-84.9495563860487,-80.3017905872277,-76.392356243972,-90.5939681035486,-81.8496881729403,-86.2864429145011,-72.2940141047859,-85.5264409686808,-73.6436829034814,-77.9389525362612,-65.7980270421586,-71.018035584494,-81.000268892304,-86.3282981973109,-77.2184767201331,-74.2106265613613,-74.1921119345187,-81.7395711358717,-79.9684678889968,-84.6146027289886,-80.8189965006453,-82.0852201059789,-74.9553858819146,-87.7522350564478,-87.9572130273564,-81.261919883864,-80.3829169758586,-78.3857403738196,-75.4058564881812,-53.4459843841462,-69.4077437007228,-79.8324033804795,-75.3956967531311,-74.4048482352684,-66.4478006953525,-67.9557174601118,-80.0825839004792,-77.3750959414587,-81.7245431945319,-99.7455594332906,-86.8165896175355,-80.4225663472889,-79.0166359731108,-75.5170930857165,-76.7589045914085,-80.6207646347188,-82.172704580788,-80.9536018783541,-76.0571583998771,-79.4670096962218
-125.159898579888,-113.805243225467,-126.118507713887,-137.314540596148,-108.001425848885,-127.510718822396,-141.572276738069,-107.307398474671,-141.49262235937,-139.289637957261,-133.564856526469,-123.739984675103,-134.846889023296,-133.654353576916,-125.938531746667,-116.032722933843,-111.288716383529,-124.144536485929,-114.96504940153,-123.935888444971,-103.247639628647,-123.027854509649,-108.716872654297,-107.241943585508,-93.4152021523693,-104.932631133017,-117.110377068063,-121.937928911958,-112.394781544527,-98.8338849708511,-104.103572772961,-115.221654999116,-121.409786960737,-121.680335912616,-112.461530292455,-114.557727048802,-110.094336997384,-121.929630259869,-121.890709704962,-111.606808540607,-111.100840611862,-122.505853119212,-109.193971942947,-83.5739340228092,-107.168127652254,-117.150363854519,-110.55501153795,-116.04424646617,-107.205686103015,-103.845031250123,-113.238132938789,-115.794001597103,-118.888695562217,-136.840385020328,-128.524194370896,-116.079070938113,-119.515049771397,-121.126008525126,-113.358840093898,-123.136993832279,-124.182499321489,-124.551851986343,-113.93232487927,-121.835850104022
-147.058375746337,-133.787775475725,-155.11906306338,-158.06123027278,-137.271592905978,-170.086292259378,-161.227015900677,-135.454670663641,-173.32102852253,-157.180955593,-156.669190679357,-156.819898617176,-155.180540901914,-157.782703276932,-150.241463693851,-131.849343494373,-133.073259559114,-137.063613409934,-134.167096444793,-144.264458857254,-123.340315210608,-138.071354559661,-125.751557747104,-125.317439446703,-102.806436630221,-123.536669125958,-135.569806992819,-133.579338760767,-128.278409283123,-116.037476471176,-118.637855640228,-125.61369639141,-142.249387930367,-137.273517089023,-124.159616572439,-132.340624763005,-128.411746400453,-137.543847703591,-132.320452279958,-125.009059946655,-124.283687585578,-147.691226293856,-129.036716741256,-102.855978507101,-128.595874612824,-139.046606842938,-140.08553276607,-139.353547255731,-136.369075678426,-136.841674892855,-140.778451734067,-145.283319979449,-145.139511424001,-158.402186043456,-152.535284504574,-139.26187274617,-148.799088360296,-153.58307620854,-141.119108812405,-151.925596380623,-150.396759119313,-152.109012685292,-139.576205864382,-145.823698086959
-149.858095549524,-136.493361280664,-153.859348866809,-159.525031845281,-143.665010056333,-171.991944007111,-159.95674176198,-141.145419678124,-176.647505324404,-154.844595611504,-162.315384616596,-160.890026050584,-151.699983661453,-155.221549054663,-149.620266486947,-124.046352577194,-131.515857483906,-131.305354698773,-128.752837532425,-138.782266264365,-124.906180295339,-127.361490748165,-121.373389545063,-124.291579729792,-95.8534575237134,-120.116557345206,-128.671681097992,-119.982996571703,-121.74263780109,-115.811743230127,-113.246422626675,-119.600885175236,-137.733319880823,-125.635351410736,-119.718687470784,-132.779105182331,-127.138151746698,-139.614403722106,-123.992132064757,-118.225037700777,-122.716393384759,-145.641619877695,-128.07831576171,-108.980616192437,-131.243531190271,-141.31897529429,-151.09404932597,-138.140636721296,-140.936090554089,-150.33998775428,-149.213814559632,-151.708307409477,-147.190637388091,-160.026226341479,-156.27983535616,-146.82323301138,-156.529807970032,-162.010033901028,-148.765290131621,-158.364167827302,-154.326955753995,-155.007635397293,-146.63863109643,-150.405106837442
-142.518739472802,-129.759829628509,-135.189314576988,-149.41020739837,-134.470673362955,-148.483706160772,-148.550534757841,-130.89150915054,-163.454005729163,-142.907921221562,-154.398976634677,-148.617475591436,-140.887951520205,-142.241287232891,-134.88433894531,-111.140144684614,-120.441090937575,-123.693099439449,-115.783474450874,-124.631847590782,-119.720217326379,-115.816142169068,-113.412981577705,-118.672544024599,-91.1710840951392,-110.54138239378,-115.951436545038,-108.593463119595,-111.054760816311,-106.427100471335,-106.060400379419,-116.630414923245,-129.343655132622,-108.690571025057,-117.845424939006,-131.718840765588,-120.556397123525,-138.200373644478,-116.385282780894,-107.531835047423,-117.072861512581,-133.381193872252,-119.760807252892,-112.835343723942,-128.437287439429,-131.823685723479,-144.841549285112,-131.115014763805,-131.063224180923,-145.75552726951,-142.266253675906,-140.352318933722,-139.137314330008,-151.939452535183,-149.211494602312,-141.999906869491,-147.917468117372,-152.897908800286,-140.526858417794,-149.517495595622,-147.044727634933,-145.387052418253,-145.138574919395,-144.871852102404
-132.044403201526,-116.151826078393,-118.064176003584,-133.679112876433,-121.145182876406,-129.303772427297,-130.387501945957,-119.003836255903,-145.009796739338,-128.67351829086,-139.683993360933,-134.366094895087,-132.885438375999,-132.518312116772,-120.160665016591,-104.891653571261,-112.477268295481,-118.818942578377,-109.371017058072,-116.954089943405,-119.143260567261,-114.221986908943,-110.800639376424,-119.51930514775,-96.0387343579434,-107.956157524954,-111.102046004239,-111.216617135434,-107.304197346577,-100.853827250434,-107.418959920687,-117.490351292048,-127.580680078329,-103.322413121211,-122.355256980272,-132.607255559609,-114.699829451985,-129.239029490983,-112.244920264573,-104.513838570037,-112.20028420027,-124.795922075695,-113.665694289762,-114.037452535817,-123.550184473335,-117.792189148003,-128.262950419886,-125.265762538507,-118.274595200029,-129.097209811536,-129.465329982007,-124.440902673576,-134.786230340445,-141.442073928525,-132.613398835755,-125.285722651814,-133.157725906603,-133.253125208441,-125.827913737904,-133.001680712531,-133.563755294768,-131.548875470009,-138.911022355772,-126.74929305861
-121.048176950355,-102.239111957347,-111.890542294573,-120.69775824429,-114.293306732742,-124.783091969552,-114.334266298029,-112.557310620595,-129.550091162009,-116.316849203014,-127.45674563267,-125.094407668686,-128.413863242121,-126.66138824305,-115.46287952273,-106.397786408039,-109.000751609991,-115.129221880795,-108.772688905137,-120.283128222691,-123.378383797761,-116.26474333088,-108.921997722224,-121.467284562785,-105.860529629278,-113.66799907728,-115.638493411925,-117.032769595154,-108.044706719561,-103.565127546111,-110.784448981499,-111.548163640443,-125.15007063925,-108.602615391876,-124.447702550963,-128.822948043754,-109.346814399821,-113.407199982972,-107.301494737123,-106.27928058119,-110.148188801833,-117.245164710299,-110.052441341838,-108.839907015995,-113.221287074439,-107.961620472226,-113.129560629665,-117.727408171059,-108.069082131598,-109.87219630693,-116.096644076696,-112.507916162566,-131.522610426406,-131.503442512508,-114.89508725313,-105.110586973513,-121.205889913689,-116.534941366682,-116.8760042027,-116.866768572655,-121.798252150644,-116.702958812364,-130.738468784794,-104.486086030007
-117.536795706519,-100.698785932066,-116.399150252441,-118.18023578271,-116.541128654723,-124.140200578491,-112.932792403146,-111.950797406259,-123.82446972908,-110.376223340626,-125.072924595195,-123.275869012379,-126.342121788285,-126.875607619655,-122.728838102988,-113.480829388653,-111.24746185453,-116.106380497338,-112.804881411768,-131.664655079058,-128.621039539098,-122.913474947741,-107.584672978924,-120.484161769112,-115.621072227975,-123.265191659773,-128.113677592343,-120.998348368287,-109.864270708111,-113.805616453628,-112.297797481147,-101.756682745882,-119.470140772363,-119.312561520955,-124.075047050682,-123.669270054187,-108.811537743893,-103.928417131072,-110.458848246258,-108.413638896434,-110.134802531907,-106.671472205365,-108.772599724427,-104.712836840149,-102.265485343657,-110.158241297624,-109.02959655732,-114.891322854952,-104.229431700724,-103.169010238363,-108.723758398114,-107.744921324298,-125.308673599431,-127.082457864995,-113.367491122187,-96.4661663995221,-116.916449527563,-115.082008578358,-119.022461121208,-107.023906732806,-123.212514559231,-107.265266230835,-126.876758932753,-96.3881716541394
-119.271882670388,-104.670246762869,-119.810173894827,-120.171284773799,-117.177998768948,-115.458334806076,-119.473025028122,-112.761035426704,-121.030778707486,-109.08360105776,-123.658149766764,-121.476570597068,-122.732930487258,-128.087409021321,-127.875175275579,-117.306560147642,-115.755954439604,-117.30679056275,-115.857930163968,-136.597980381558,-128.171041891757,-130.802835803259,-108.041519380588,-116.308361792663,-117.55571564122,-124.979985823265,-138.981344787926,-124.538319849522,-109.113227640527,-123.443463170229,-113.683730433096,-96.7180935283182,-110.223422256113,-130.70580722209,-126.740028615578,-118.717652541153,-108.421129781569,-100.884892693098,-124.7319634295,-110.474658863263,-105.273977904002,-99.0053565180026,-106.826659616205,-103.11966265849,-95.5168327423111,-115.286819456769,-109.466369217583,-117.454149946509,-103.369918337346,-107.768446417057,-109.457098822714,-105.734445260849,-117.497173071155,-128.714009487789,-121.777644537256,-99.1620518081698,-116.85852510338,-119.967912945101,-119.487492234089,-101.519872915612,-127.268993352472,-102.679265513568,-125.470055837499,-97.0356858739626
-109.820669592913,-95.218417896199,-107.190865640986,-112.755755833375,-106.971156352915,-95.1023570778079,-113.784413743441,-106.694970196723,-101.390106154868,-104.43525171544,-109.92742378755,-107.347306907915,-110.424451579911,-116.7318929307,-113.741052834175,-107.688163311214,-110.665414345143,-105.928984030854,-104.779756235689,-121.180565697655,-115.139523792391,-122.543909306158,-101.520683350537,-102.591883089204,-104.310364895313,-107.005887942128,-133.695217746601,-118.713703547802,-98.1652631359095,-116.204104189456,-109.153471109364,-92.4225503127361,-93.7453173642184,-132.255228527349,-124.288061294098,-105.085327178667,-96.3577484947553,-90.7396438169615,-131.079534019911,-108.151166632031,-93.4215209210945,-96.0547326211668,-99.1978439914837,-92.9597515240578,-87.2189536091064,-104.323713603058,-99.7416610212765,-111.89989354209,-94.0606955270125,-103.746322296704,-105.524047041349,-96.1639770119821,-104.978694139287,-125.923950509519,-115.783272731305,-95.5658215901584,-112.004278394214,-113.666808863072,-105.01469335288,-96.1905708841286,-115.151000270618,-93.1716993025673,-117.017750737983,-85.3259207488993
-88.2779962959243,-76.7660771126027,-83.1898173262923,-95.0480837031275,-89.4206496423446,-68.770703289517,-92.1304322545677,-92.2796828172362,-64.1304868747052,-92.4906792330845,-89.1730993590726,-82.6960594992209,-87.7684978291629,-96.862379882684,-86.0169131791948,-85.0285762250048,-91.0682081922469,-82.4101354677701,-80.3800357953796,-92.8481387247806,-91.8193091478529,-94.5976098032415,-81.9633927628714,-79.7374893286837,-82.9961867140769,-78.1689448507341,-109.829712057686,-95.7117648652217,-74.7901606583615,-86.9686035827911,-93.1199642427023,-81.4329343284976,-76.7343891247088,-115.960265868853,-106.061631505307,-84.0558823498733,-77.3845097317016,-73.3414542114481,-114.327487848181,-96.919953912955,-82.8226333898227,-87.9281514797742,-87.2770632011757,-75.1041521711667,-73.9831268934555,-78.1829159123132,-79.403743648078,-94.694957671514,-74.963832033831,-84.3225792587635,-88.3985698376303,-79.5915132703186,-86.7073211442904,-111.643183896063,-96.3433403303455,-78.9977895702567,-98.1647164301107,-98.4255847291094,-83.3575021342496,-89.8258012945525,-94.4384107982804,-77.4899590036826,-98.8797664780271,-62.8441556347912
-73.5553954389297,-68.4273015839227,-68.2628576413753,-80.6410154846039,-75.0807428439708,-50.7341241092349,-72.3636924327123,-79.9539137422831,-37.9123111561762,-76.6484923091278,-74.9542996169303,-63.8354808066004,-67.7867961477286,-86.1300942033526,-65.8508524021361,-63.0524465959946,-69.3504724853651,-64.2371787193724,-62.4985531493312,-72.7051978182056,-71.257086500719,-68.0861188600523,-59.9372911751483,-62.655785673378,-68.338535478277,-61.1991834244437,-81.787819623945,-68.419259253501,-53.0785913904678,-55.7073043179473,-74.1659395584427,-68.5989270933849,-70.7939879426754,-89.7936911972013,-82.5023909767619,-69.5355831214067,-67.813524592751,-61.3610041326609,-83.9554146632597,-79.5821752493791,-76.2282993792141,-73.455577697245,-75.3471331894228,-64.6482145112451,-64.9173249623428,-58.359650977995,-61.9419846790607,-78.9533538048639,-59.9292420374411,-63.9217751591308,-71.3052285324692,-70.6354543695279,-72.847803937255,-94.0645617676231,-83.5666000247942,-65.0380540021891,-79.966902961962,-88.5581719086156,-69.4135856344712,-82.9100810979761,-82.2897547004454,-64.7923399078305,-80.4881545073213,-48.9409709099795
