0,-1.23243944462799,0.144992875838587,-0.434978627515762,-1.73991451006305,-1.59492163422446,1.95740382382093,-0.0724964379192937,-0.434978627515762,-1.1599430067087,-1.66741807214376,-0.217489313757881,-0.217489313757881,-1.37743232046658,1.66741807214376,0.652467941273644,-0.434978627515762,-0.434978627515762,-0.652467941273644,-0.144992875838587,-0.0724964379192937,-1.52242519630517,0.434978627515762,-0.724964379192938,0.217489313757881,0.507475065435056,-0.724964379192938,-0.362482189596469,-0.942453692950819,-1.23243944462799,0.0724964379192937,-1.44992875838588,-1.01495013087011,-1.01495013087011,-0.724964379192938,-0.724964379192938,-0.289985751677175,-0.434978627515762,-1.1599430067087,-0.869957255031525,0,-0.724964379192938,-0.724964379192938,0.217489313757881,-1.01495013087011,0,-0.362482189596469,1.88490738590164,-1.08744656878941,0.724964379192938,0.797460817112231,0.507475065435056,-0.57997150335435,1.1599430067087,0.144992875838587,-0.869957255031525,-0.652467941273644,-1.52242519630517,0.217489313757881,-1.30493588254729,-1.44992875838588,1.08744656878941,0.362482189596469,-1.08744656878941
-0.434978627515762,-5.84789704942268,0.325505698570905,-2.28145297826,-8.47334397176637,-7.06039170440606,9.50532580401744,-0.054008192406512,-2.06396366450212,-5.72139241909687,-8.78181796895633,-1.03198183225106,-1.53945689768612,-6.17340274799359,7.76686783808622,3.31343481051107,-1.62898503698636,-1.77397791282495,-3.09594549675318,-0.905477201925255,-0.923965447438037,-7.5138585774346,1.55648859906707,-3.00496081332111,0.452010328896711,2.19046829482793,-3.29494656499828,-1.93745903417632,-4.54441771100722,-5.99288992526127,-0.598459748867132,-7.74983613670527,-4.74341877925233,-5.39588672052597,-3.87491806835264,-3.51243587875617,-1.30347933841545,-2.42644585409859,-5.06892447782323,-4.27292020484283,-0.217489313757881,-2.85996793748252,-4.01991094419122,0.959485394331767,-4.81591521717162,0.362482189596469,-1.42998396874126,9.30632473577233,-5.1599091612553,2.78747149956323,3.42145119532409,2.62544692234369,-2.82444799058879,5.64889598117758,0.61549145024808,-4.05543089108495,-2.80595974507601,-6.78889419824166,0.741996080573886,-5.46692661431343,-7.16986463335092,5.01491628541672,1.71996972041844,-4.86992340957813
-2.13646010242142,-11.2875670483497,-0.763031838199567,-5.49771711313213,-17.1550084457123,-11.888173867625,18.1191884225652,-0.44367726628162,-4.39323884296177,-11.3698530930159,-18.7212866515263,-2.26911585940018,-4.16959840255093,-10.8870173997466,13.6878821205968,5.95442202454996,-2.47426805429824,-2.94476662870773,-6.1548796369269,-2.49639477990499,-3.55665446441575,-15.4473758441537,0.897834665586553,-4.82312244625175,-1.06280719662367,3.94847060869907,-6.48908397426367,-4.3305320117894,-9.06521728672196,-11.975554936517,-4.46467917845391,-16.7421565438033,-8.96444299654298,-11.5529134278611,-9.16853908901387,-7.59356224443403,-2.87481770290134,-6.76567650465385,-9.07136841337492,-8.60450831905941,-0.959485394331767,-4.9325953751966,-9.2765554738269,1.41764684988143,-8.94595475103018,1.50248040666055,-1.56009221360713,18.7999342160985,-10.5481184798887,3.35616198648492,4.73937985745369,5.14247701816967,-5.69417066926433,11.1708520247708,0.830433251893063,-7.64502292472763,-4.1264359193185,-11.7899470895589,0.965636520984724,-8.50733764342046,-14.4251836186496,8.4102018333354,2.35609648658753,-8.88215695187675
-4.88222566288405,-11.7466788932073,-3.91157485215171,-8.72287299059415,-19.7557932882481,-8.62884014191058,15.6215937308739,-3.01980507705473,-6.4722453767067,-12.1950911092492,-20.6130533499544,-3.29013088075985,-5.64513639936628,-9.8450595131512,9.11269157036778,2.76068732798817,-3.85444099070173,-3.34441841315375,-7.93439015223512,-4.71651673664627,-7.20785685956453,-18.0848578377278,-4.03059841509524,-4.6198588720579,-5.24697602460604,3.50640262313413,-8.27219260242677,-4.78274094619529,-10.8264785292657,-13.2110918408612,-10.9374623448521,-18.6988982455291,-9.46279950455174,-13.1372250949735,-12.7709003180887,-10.3053309025563,-5.82855680867712,-12.5042588634018,-10.1866270468393,-10.0634870583053,-1.70763260155861,-6.28691136805083,-11.700851026831,0.222463236266383,-8.40253982004086,1.54160396809435,0.3227595809488,19.8822171840956,-13.8266640255875,-0.655674344795263,-0.015583889620592,3.33673550957592,-6.73642005375891,10.6284473272844,-0.168256438350678,-7.77588295339229,-1.6921294464162,-10.4557756463999,0.922788243293583,-6.10178146658929,-15.1951958710929,4.10493987579316,-1.8133033104542,-9.01438728850989
-6.6600002940731,-8.34881673643674,-5.85844520060472,-10.4117699530246,-16.2521203052238,-0.82230446650988,3.60779253852831,-5.55641156428514,-8.39938807053318,-8.81426897763471,-13.0791907173147,-2.75846391564653,-4.18896619712329,-6.29494023667359,-2.85893396406382,-4.8960373294686,-8.33397548897788,-3.38787129246211,-9.58181903917273,-7.22424788754143,-8.77451845093708,-14.7760596031286,-8.19428985392255,-4.46114071560921,-9.06496841974374,0.343977199441521,-9.11632643073631,-0.810534234080016,-11.0667631600841,-9.34628885529705,-13.4193780285774,-12.3795954419438,-8.07299430494284,-9.08801643791951,-10.8204329215467,-10.5317051084923,-10.5868530569861,-14.9129444463209,-10.871609071672,-8.70275312094521,-1.74343188843972,-6.89956911578693,-8.44216384042813,-1.43427694769919,-5.21917199242766,-1.38301926545954,-0.0292967210415026,12.7122224449355,-14.4317947399243,-5.22927139194469,-6.10596625433458,-3.38175083300369,-6.0962990284826,2.77356235385872,-1.24893461526858,-5.29481624862519,1.4848940536272,-6.60973631510626,0.42531128434466,-3.01550515059269,-8.8666816176919,-4.91833071421318,-8.55542827732962,-6.0851168674403
-4.58713646611401,-6.33182606295702,-2.56191292263112,-8.64070205502768,-11.5255037127112,2.71964488937202,-1.60543804919271,-3.37140628439517,-8.89808502911501,-5.36373376664078,-6.96992089574187,-0.156174898620326,-1.99009127866784,-6.02689048637524,-7.04790993420222,-7.70450950792796,-11.0123057250798,-0.99906601841832,-10.564920660426,-8.03831221845552,-5.72689561440576,-9.1706718694608,-4.25639399534623,-3.21381089125332,-7.76349865804979,-3.03718014412631,-8.39052650950692,5.82815802083297,-10.5602245200694,-3.74854637766163,-9.1920927996298,-7.87060617428378,-7.8575268839697,-3.72623638653598,-4.67241594498371,-9.01543790931034,-11.8689349527558,-8.70037893895239,-9.73084035438723,-4.96164839726337,-1.60256533242166,-4.3566177424119,-1.8110096813734,-0.827242285454663,-4.29730084847722,-2.89702202939241,-5.2527046637834,8.11241924146155,-10.9088670827942,-3.76729202408721,-3.92621867920708,-7.50214385274829,-4.53755190231155,-4.40787059550883,-0.244068772192072,-3.45880125259273,2.90839346135813,-5.04438888091143,-2.61020256957759,-2.42945851605063,-1.26079882474686,-6.62075984722819,-8.94359468487416,-1.96422854412688
1.57844320078579,-5.13695697976426,3.22774984438936,-2.93286844266823,-5.1873607365027,2.43583020805678,4.55767733451333,0.39733536912048,-4.91308673745,-1.79067659043721,-5.06600850960967,0.892167193271801,0.181184329488634,-5.81288757785587,-1.03364215821566,-3.66736280882897,-4.77178087546919,3.37958688647724,-7.47698020301181,-4.57154762590196,-0.135529142326124,-2.58317483021315,4.51804110860242,1.24341789755961,-0.0934261564130415,-3.00841327310545,-2.99552474470244,10.1298778945599,-5.22701631339605,2.28986515978884,-4.1165118724244,-6.63339712060364,-5.82953662301721,1.61948449452914,-1.55234511333869,-6.69835207002125,-5.17564880814116,2.01207367635276,-1.15437588713142,1.7661858019856,-0.677624164362341,-1.63623512608802,3.91411879944814,1.99065558454919,-3.53892370911039,1.4209811221281,-8.0344878626147,7.93344382922456,-4.05588765579342,2.43178500215461,4.13480294132863,-4.98057093892325,-1.1947557000095,-4.16224685626116,1.12038190711937,-2.31612770323211,6.15578601785593,-1.6770487081405,-5.7778533221383,-0.189325174862886,5.16931498394191,-0.157589814725438,-2.51056574747884,3.39310264881022
13.1359262992822,4.21026766395396,10.5659859602716,8.58314581421324,9.32830165956985,9.77601897376664,16.1163638763195,5.93357918081075,8.61525953394349,6.89985290134745,5.4864414184059,4.30976934859499,9.38800309816953,5.95917237136631,9.68286792096583,7.2604955748327,10.917982821952,9.62207570074293,4.34341673642464,7.21454978648381,8.53501332342158,7.72037169616238,15.5286127257984,10.7353656813264,12.5414225044023,5.75417991677079,10.7212129653772,15.878569970339,8.45971751526615,12.6162314674921,4.55030618898711,4.67540914442622,5.21362749269623,12.1252013309921,1.40889653329385,1.64402974663171,10.1188629603814,12.5954428786647,15.6219449440426,12.8393523882284,8.38444703427725,1.96527966644169,10.7785137394848,9.90156732005792,5.51358385754923,12.0978311454626,3.05718834723183,12.6182664680355,6.83579703603883,12.6546923441262,12.7783658238612,4.43457083863614,9.11313218104935,5.30729446462137,5.69671956918221,5.03557516851431,16.2050451629113,10.8437814739521,3.258576750491,8.47458525790801,13.4937961185625,8.41861367521591,9.83027341224151,13.9635770920445
43.5477400303305,36.5518082766016,33.9351649921617,36.9868305536834,42.0578732200648,39.1720253349914,41.105973254226,30.854571112422,39.3853005783005,33.1759787448283,42.1958525033206,30.4240561400405,37.0485346013176,42.3126910599038,35.9998328691549,37.647546580635,40.8158588382405,31.7628403062603,35.20021342837,38.2240855370282,34.6487906157168,35.5969537166391,43.6549481654766,38.3508329411618,35.7497082388776,33.8992064774801,39.4890815581911,40.5631158270488,38.2406283440638,40.659331377229,34.3558772544322,39.410350162749,36.4394310074239,41.1440392527273,26.6804430481265,31.2692443430114,43.3314537200798,38.612076058086,45.0512887408802,38.8141175263585,38.4478735593518,28.570017556697,34.7028071035597,35.6126253741287,35.1544928219854,38.6547816212072,35.4418817730221,39.1129396730269,37.3659717221313,40.3898648891659,34.2359894369543,32.1701249227389,39.2605843985626,29.4681657433163,32.1721387376504,33.4961101770652,42.655267033973,42.7221456920597,37.3571018841193,36.0809091601715,38.3330058253615,30.9780507018221,43.0820084592582,42.1371516512466
95.6713000490214,91.2271802235662,81.0406000984123,87.1725378401729,89.5109573881899,88.3026887127023,85.9420084218996,82.0700001316772,83.7756195125451,80.2148224645637,100.08090993181,82.4260048428519,81.3120076743165,97.6883427655132,84.30686030548,88.7103545883429,85.7932139271025,77.1602009085846,85.585540806932,88.5271706211916,84.4394685855679,86.882878918323,94.9516974989472,88.5573782116101,74.1542567678342,82.1011230934445,83.0298276970271,87.923855130875,87.7284762449936,89.6299532674596,86.687545849836,90.8242114221204,88.1967613608619,90.9748188980523,80.9571197101645,83.8827665235823,96.5454197862401,91.0079253637286,90.4343315379694,84.2770848046533,87.7593798831538,85.9969438957274,83.5569367440224,80.7550101080324,86.4404330576917,85.466404757043,82.8744261772429,90.7824735544167,90.4363915923716,89.5306576797599,76.9476288032011,82.4857722566739,89.3765535527769,70.3221188061273,85.4570720275501,84.9715599703409,87.8275440897784,93.1178031475846,89.2764992301551,88.0896060078342,89.0125395034685,78.0282550753404,97.6698102795027,89.8631771138441
132.365766053258,134.65781032193,124.319051014992,131.669349680614,124.099615176403,127.194590475556,123.946918192135,127.489931591146,116.637199980031,120.873713774379,138.976220168185,122.916392405506,115.925039368536,138.323499015757,123.760428548949,128.172206550116,120.278230728023,118.00078803862,125.868709858547,124.645822999194,127.368137004323,130.40393075286,137.007086012598,128.681708139098,107.150914821623,121.731847930612,117.852664908731,126.544713405374,130.301242498219,129.006707143541,127.739221005411,127.380055381328,129.941625584652,130.88244016503,126.613940289126,125.667673676936,136.651868641369,136.043137307128,127.635515670035,123.703753525477,124.718753928369,133.323349021347,128.352274882162,115.605203796903,130.447934475734,122.457496566703,117.881210229147,129.93950580699,130.603281441316,129.214054620177,114.830901754451,125.021749777121,127.448631555944,106.384120614527,127.38319932174,127.713617471206,123.594999689761,130.665098218276,126.689287088963,131.233219825999,134.78396052579,119.96489927157,135.615897718739,128.230090482256
121.795289694425,134.374755469999,128.746447792361,132.740918307708,122.194708023676,125.911464773057,123.174095250298,130.352524418891,115.72286666555,123.432633951112,130.025777655933,119.714525527101,116.02731067547,136.628780646185,120.050013183741,126.28001377442,116.855159251937,121.629873159569,124.539025669234,115.033225617252,127.636737790383,130.475144747073,133.678511056287,123.768638100167,106.925383860983,120.884478835533,117.551581585303,124.921883946657,131.203594970649,126.646233448104,126.16483958876,122.993738007731,128.180930303523,128.308633095947,125.524257554405,122.827143399445,129.778271820818,132.631629723935,123.74153363118,126.480351203957,120.267103747413,131.592488918039,130.931347633035,112.755749691634,133.489275261056,116.494860104364,115.673970561461,123.170167347287,128.321501048751,127.509899682013,115.32446504893,125.914279133671,123.164511685507,108.661669587643,122.734502573372,127.400862585075,120.841318643932,125.216816192629,123.37563044522,126.655880494443,133.926745394632,118.212002942217,128.198968805813,126.425080133444
86.1238481925582,100.543418433349,97.3301959244195,96.5505047668221,94.4216610154943,91.6764483992154,91.8612815240893,98.49171470649,89.4196154972286,92.8967528895495,94.8133607494413,87.5878840079604,88.9611172276522,104.504596756317,85.360551497281,94.2020496031547,85.3615872322994,93.5057506922426,92.403583679395,77.5930681099997,94.4120398023679,97.3055035947686,95.7717340047206,87.3289165301013,81.1738124761462,86.9065368362688,89.5907346909531,93.552627124254,98.7591083479927,93.3882864076853,93.5003185311732,88.424464946324,93.2525842552527,93.7544971947858,90.3937082507351,87.4547020074627,91.2741856940051,93.6819297792701,87.9785780526134,97.334587071978,88.8680366072695,95.9370354674305,96.3810406620024,85.8794695523891,101.608395960653,81.0744657921656,85.7395116502242,85.6557894337815,99.7115666075267,93.7940735054351,85.0856229092219,92.0373536136275,89.5803742748541,80.1172409817824,88.9910948445323,93.2836723375974,92.5527718592646,91.3245025727767,89.6277474785845,87.6167445363584,96.0191046254832,82.7739408792615,93.2253462012567,93.6055416807072
60.0944936019026,66.4360184056481,62.199052786812,65.5785707602523,69.9601627450664,57.7607056335948,60.2889751415817,67.8619943575563,63.4049460615787,61.9709254070804,67.310567576461,58.8589609270492,59.7458406923035,72.9320947616479,56.0288970296705,62.2872292576641,57.137046093708,62.4391381037319,63.9590521476013,50.528616885009,63.8006896261479,67.3955962026712,62.5990805631629,59.5060585853935,59.4529706648223,54.8188419903735,64.3625853017413,62.7594591057305,68.530940966101,62.6990033394855,63.3777514871377,55.8403191936101,62.2596920699768,61.3526042630796,59.4699490493933,56.7748604877198,58.8577116918356,60.4171747607134,58.012653569119,65.1490712596479,64.9366211961194,63.8637581205736,63.7862372151225,63.6971612384055,68.4665829950231,52.3576375447899,57.5017708569837,52.0630394459381,74.3723156300186,61.3875337742501,56.0459961693886,56.4375463603261,61.3585600690704,50.3430819198054,61.4688045010533,60.8430592316551,68.2451278467322,61.9079666379371,56.7163176221404,56.7036582636788,63.4381205600124,52.2808402734656,62.3730608595615,62.4695654339874
44.3728648191891,43.3330913915446,41.6299471632037,52.695465734401,56.929316393766,38.6493040007126,37.7568300793996,51.2293655901628,46.707402172043,45.8022517543264,49.7008181305191,41.2476257741933,38.7481367169048,52.978815495581,40.7515598200568,41.252540097334,43.3485439756298,41.011742476138,45.5439622082796,38.9802072950466,46.4075660323568,51.601612713977,46.8386449135144,48.2289220759696,48.4253067846026,39.0108626778372,52.7001294886143,39.8434411874528,50.1594461047926,45.3225452239546,45.9884522064577,38.5321356329681,46.1212676891417,41.9204514625553,44.0979811162094,42.0757503022046,39.8607023110838,43.6370359588002,42.6149355013143,43.4215754837639,52.9746164935827,45.4181485044506,49.2511034636409,48.7011475922139,47.4366577414026,36.9408602182298,43.0073918250888,32.5260945179421,54.2625727346615,42.7188163535902,39.2249216032681,35.1339830351013,47.0328795622528,34.109161597871,44.8728603263624,41.083759584116,52.2444532180001,41.1850368104352,37.599870044419,44.3941196665228,47.3559575755296,36.4371982835961,42.963744574772,42.9242448799301
24.5310424371938,20.7315590984599,25.6378259330191,35.015687420228,40.939083296279,22.9784185137819,15.2244236328217,33.3485532265761,28.0186190547011,30.5038609817097,27.5772343532867,23.5687340291373,20.3017951419771,33.792430106006,23.0020106356619,23.4841900476928,30.5523634398704,22.2100762487324,22.4942478587975,24.6715838038097,27.6673071681576,34.2970069070456,31.4751951366199,30.1968691621701,34.4128578530035,24.8032404081358,39.6415740887058,17.7505556400744,30.2821126093781,28.8382102209791,27.2169966481947,24.9362698110973,28.7537444735701,24.1795837887314,30.6752443101929,26.0792999954393,19.8711478829656,28.0841321196314,24.7476694971847,24.0069025291739,34.3588447752028,27.9394123079312,35.6483785452904,28.4040185226659,27.317449133084,19.2879447658983,30.9175141314271,16.1521218778594,28.7773649047266,25.57646138743,22.7488314105011,18.8533281314746,30.6762015949739,20.916288016796,27.2708518650872,20.7830388332047,33.5064223513553,17.8763070021795,21.1931452603664,29.39486208914,28.956086824477,19.5238478680623,24.2560855225733,22.2338227918074
1.14043424785603,-3.41596631737323,2.44230197905165,8.82375034630151,17.3487276335564,4.70795861459501,-8.07991212871045,7.7032449253275,3.24786690533154,6.77385257123075,2.17400661954578,2.85010956758598,2.538081537947,8.95917608254669,-1.11807979667236,5.97527887944226,9.9848469252934,2.78965391326965,-1.94621250493238,4.41342262503485,4.19976373237526,10.0656951678368,8.27196834728182,1.0950063701487,14.6263719025892,4.07804551519529,16.3938954653597,-1.18069868487742,6.90313543534545,6.13193033280573,2.47678035736034,7.14374512395791,5.83413293806582,4.12415143335802,12.7384597501943,2.96400443009641,-1.85012473237996,7.60433416499651,2.48845719869169,3.12368507387281,8.07928236693428,7.09023253749027,15.4490979770374,5.87058378922593,3.91133727223008,-1.86971038470489,11.6947162354015,-3.035271802506,3.98222607254189,3.64939363528012,3.00035268600964,-0.00668414443038334,7.02364152146589,2.46607860146569,8.92723428102444,-2.21436670533309,11.163330333747,-4.61147454971885,2.33511746068318,4.6253821655887,3.23968233503706,0.197864809367846,2.38848314359554,-2.16308548172187
-14.4064956104695,-21.2872042590117,-20.0265614763205,-10.3095443657003,-3.82933635442292,-11.0553557435287,-24.5544880181878,-13.3483127086773,-16.6201867844165,-15.4217473805217,-14.1206668558819,-13.6543835261243,-10.3289886032266,-13.9989024572206,-18.797903860283,-8.42610123118519,-10.8095092098888,-12.9777678425656,-16.4292902505011,-11.8678608919001,-14.1832601795356,-10.7297837387187,-15.0336469465993,-19.8370603040283,-2.73190254952485,-13.8702267496814,-6.80905101056392,-15.3115409833492,-10.6905800612171,-15.7350437836907,-16.7298719227367,-10.0045961246249,-10.1066244017987,-12.6583444458189,-4.82593099039984,-13.9939797429913,-17.28713991658,-11.6047727605312,-14.9495703124891,-12.4217942028927,-11.7971424289559,-11.7137342974475,-1.14106037838694,-8.5960317321996,-15.3745308081366,-19.0842609068186,-9.88379393164782,-21.6647502198006,-11.304481285829,-15.952954568606,-13.4055532902828,-16.4193445197573,-14.6648807835424,-13.9874788355414,-5.65131618481635,-17.2529764926904,-7.57662087602037,-18.6905361396497,-11.6454727688009,-15.1603923021755,-16.8763454184775,-11.2425089508277,-16.522585598411,-20.4902727770924
-25.9589006958741,-35.5522006642174,-35.3129040842281,-27.6821769742713,-20.9308422830313,-28.0727153446978,-38.0681334656061,-28.8859325688205,-29.6698789957523,-30.8875338655968,-25.3648276207896,-27.6313403333645,-24.861445574243,-33.6647606690225,-31.4869853756677,-26.9864729365417,-28.7523123684794,-28.8873681719517,-28.6562283706731,-27.8128454388324,-30.0404864785315,-27.6700465949031,-37.4139266718831,-31.6175362898843,-19.4508723741022,-28.4287901397584,-24.7280348748749,-34.5125727372402,-26.5149095030568,-33.420193555275,-29.943681086139,-27.1868442513823,-20.6269087968718,-28.8812900832881,-22.9600399314927,-25.4938807654153,-33.4261345027297,-30.1614990195256,-31.5888791504766,-26.5324784335548,-29.2704754517275,-30.5497574875054,-18.0772751264685,-23.4708152259715,-32.4416749217824,-37.9758689835472,-30.4259533298909,-40.7902712403356,-26.3258352932015,-32.9131021225195,-29.5591384303755,-31.100525726641,-33.8640582012535,-26.9031460950043,-24.1445395920568,-27.2419037935957,-25.9590011704249,-30.7623480150068,-23.7231637458059,-28.5710807496524,-28.106300957274,-20.69783566431,-33.7324831745575,-34.7361378260511
-55.1533473790742,-59.8950262776995,-58.1444677565284,-58.537522165446,-46.7904292661735,-56.9762474337062,-63.3964534182356,-57.1771337814066,-51.7174584154015,-51.6682441183979,-50.3612197342762,-52.5543486213095,-53.8738616133582,-65.0145088967521,-58.2417302986297,-61.9981385957415,-54.9405899845514,-55.9464820013081,-54.8682242691922,-58.0024855947162,-56.9973466995386,-54.4404866989448,-67.100401267334,-54.251050323062,-46.1763371593592,-54.8126759408315,-49.6020725514996,-67.3343985122577,-57.3365564462809,-56.8734010606922,-54.2924156308386,-53.6216606517164,-45.763053861828,-55.2262559172126,-50.7259491141993,-48.6200381816969,-63.9916654745443,-58.2058854986624,-58.9929487700853,-53.8703970004974,-60.9391316639201,-58.2888231610801,-51.5323736886403,-53.8560156204105,-59.4164478996306,-68.1816650410797,-56.5497812573111,-68.771660536862,-54.6926869146176,-60.2736719314495,-57.3085617312538,-56.0661061576419,-60.9925370239633,-50.7434228746159,-56.730982921093,-50.2617235484272,-57.200557355056,-53.5091146570738,-47.6095935595916,-52.4353189205889,-46.1503155892477,-44.118699277502,-59.6639799448465,-58.7508731877437
-104.268593333349,-98.8762136056538,-95.6741734866652,-97.9872577683476,-87.1810428312026,-95.5008510748608,-102.42875899744,-101.296894648043,-91.7346552667577,-87.1093401457728,-91.7954725624612,-92.2131785510937,-92.6734859117645,-112.69832676433,-101.693524055399,-107.801253269541,-93.4318898382222,-94.1948331725103,-94.2441662960815,-101.07878344558,-95.8225357599852,-93.3824140541747,-104.054887508658,-91.6768561896309,-81.5122466117518,-97.5921356530499,-88.4844031763917,-107.023891384731,-102.782123244859,-92.2470644847297,-95.7168513264178,-89.3646719865448,-89.8964066609562,-93.044892846871,-88.6378170717326,-85.6784770018634,-105.532957187904,-97.5354037757521,-98.2129036701772,-95.4182353741461,-104.436811413294,-96.7940980665031,-97.5016037426492,-92.1039426987727,-98.441133856905,-106.927511088892,-92.0683782156972,-106.544070699275,-94.6901987599275,-102.512037779744,-96.7385344548359,-94.4356085322576,-97.8032088097961,-90.5650431022819,-97.6217511594573,-91.094318702002,-99.9320775328882,-88.4842716622269,-85.5706177218163,-89.6023792849185,-82.5626387094813,-83.0055507031673,-96.0399661813903,-94.084692439299
-146.232126846224,-138.3907034459,-131.170349841606,-132.482346229383,-126.486901966479,-130.009729247843,-140.293535119237,-140.350554009537,-134.388829108352,-127.833787285832,-132.203993671951,-132.530291489025,-125.726727314245,-155.402312248348,-141.343662415237,-144.678862750765,-131.147191125976,-130.666726500585,-130.299518416267,-136.781055861046,-133.185529614017,-129.123760321925,-138.632957919136,-128.087194907171,-111.337586289716,-137.411171913402,-129.001345597042,-139.008322027399,-141.30736955549,-129.892330905656,-135.679241125345,-122.621232646205,-131.581326024041,-130.721993946886,-124.270560598955,-119.6621333958,-142.344239030455,-135.588503347042,-135.693392259545,-134.956777537257,-141.401287217155,-135.759724290604,-135.369924209011,-120.197131805005,-135.762803389691,-141.383842226345,-129.497628421371,-143.057006479447,-132.889605774174,-143.602284536077,-131.731014701313,-133.677259944436,-132.708215737935,-130.14463549137,-131.510415115368,-131.896273384793,-135.771243294405,-123.803421416334,-122.851205243024,-125.297456385824,-123.718601192051,-124.267166660082,-132.949482118061,-128.79150240587
-164.327462319992,-161.153521515824,-152.03176677664,-156.163525516175,-148.315734850892,-151.586258041658,-163.598620234308,-159.803431892052,-157.394354827466,-155.534656884074,-158.117267835481,-157.518222963328,-146.961242438403,-174.156380120378,-161.697917816576,-161.603387076189,-154.172843479511,-153.531032043291,-150.615345150634,-152.562245836005,-156.5375966794,-150.722595696151,-161.506907979649,-152.229744717685,-127.921127590595,-155.315539081225,-154.435197816196,-157.434729013118,-159.917892675667,-155.788782797198,-155.372563645085,-143.381403139729,-152.643162386473,-155.079766895971,-145.576717364681,-137.241598611265,-164.992822185836,-158.953269340028,-155.549099155399,-156.483303209926,-161.725561307699,-161.34364995514,-157.109222085011,-135.93486474044,-156.179683246793,-159.78943915012,-156.521459196713,-167.246165943501,-158.144942631394,-167.339444763479,-149.877663692844,-159.594726583463,-154.255294576332,-153.405619677567,-151.701114924775,-155.036799155646,-156.337908278423,-146.857560001009,-145.458002582252,-148.708720130125,-148.939597178187,-152.844573448674,-160.175152198996,-153.787136073011
-164.732090347849,-162.870078247943,-157.694066694353,-164.57299425062,-154.567291613595,-156.276844934506,-167.191779263685,-161.459411129723,-155.575794067152,-159.420533353441,-165.882474215306,-160.370133429167,-153.755467151206,-171.692545481967,-160.398323311016,-159.335309792164,-157.153726522074,-157.391629253888,-151.141058970429,-153.361605630963,-159.984035471297,-155.825439390905,-165.993061916854,-159.214851054081,-132.14796800018,-154.756646063514,-158.291510515216,-161.66411600933,-162.674660957122,-162.562183165357,-155.053750554308,-148.126524262616,-153.720158357435,-159.995669802198,-147.582586925828,-137.609989105625,-168.190533888542,-161.986574983571,-154.692196213582,-155.241438192205,-165.15808570557,-164.604261186149,-163.676969666395,-143.341896481724,-155.509181182841,-159.442238527623,-164.015972757241,-172.69906484974,-164.306637443463,-171.284554554615,-152.365407959048,-163.745053323705,-157.629642588316,-156.485742644975,-157.393589966375,-156.796664930644,-165.116037405865,-151.775695109,-151.936991364553,-156.138793019332,-155.111903117915,-160.871115403058,-170.348553191678,-162.04986335904
-150.853358184001,-148.743937952772,-146.315947347723,-153.112117385628,-148.56970425004,-142.068414954519,-152.823093144466,-149.760611824502,-137.464519199145,-142.68095326625,-154.15504004565,-144.166387227458,-142.847263958579,-155.937776408887,-140.975336329236,-142.233225029793,-141.009343959688,-143.700325313561,-134.282353625828,-142.986252289956,-146.771876390357,-141.996743800703,-153.701405457395,-145.970220288219,-125.107509389895,-145.218522238039,-143.58945671989,-148.320595195358,-152.211822240462,-149.777197074271,-141.980139759191,-136.927205839616,-140.050795263464,-146.680804329959,-133.592748014454,-123.510460010611,-148.979996145702,-146.772543288124,-140.541490979161,-138.15423030793,-152.661444455884,-144.918354354987,-150.099937525193,-138.366040068542,-140.332783642738,-145.952862716793,-150.461893962845,-158.330788021125,-148.602756818202,-158.261019918097,-143.25486521651,-146.523614896366,-143.257265324399,-141.359968718145,-145.828671102584,-141.894072749948,-159.203207088388,-139.375697218504,-144.223875549271,-147.912978254794,-147.410433758235,-152.833693577251,-161.263881489484,-148.477045489845
-122.047388534603,-124.343419607933,-120.459632954207,-124.965279549357,-125.152229686737,-115.592895960551,-126.877675513273,-127.53101978924,-111.730290064983,-116.670555863037,-128.410899156985,-117.861367330466,-118.869449584727,-129.070194471644,-115.148079761669,-116.168473815614,-112.912464052057,-120.379333171713,-111.169716457445,-118.869461281838,-125.659808074921,-113.584495232231,-131.649066252674,-119.110479418273,-109.248959155942,-123.337494783097,-118.750695887571,-120.282964071652,-126.798727363864,-123.788559004504,-117.78751759199,-112.428617725542,-113.35620856896,-120.430157909907,-112.277326728238,-99.3477901085215,-116.85905935775,-121.550292641244,-118.269826018154,-115.494160426544,-128.295837653494,-113.777504502137,-119.778296138014,-118.800573328581,-118.955213030448,-125.227806847049,-123.249286276404,-132.069409075775,-118.366767314056,-132.602016668444,-123.058372547875,-118.165011799039,-116.461029655161,-115.027745584257,-120.775339422725,-118.055277779933,-135.687341818053,-118.303253110344,-123.523178557474,-128.611384512254,-126.710282461637,-136.220153702632,-138.280474610852,-120.59121282784
-94.4708324036821,-100.313334165397,-95.9624566389574,-98.2264725955594,-95.3751560771576,-93.9003355589688,-100.650527860373,-104.303926538155,-90.0173379912811,-94.29669408206,-105.421179881063,-94.1159512547492,-95.823168721109,-101.516105023724,-98.3029399333551,-94.9286521989233,-88.7162331910664,-98.895557915456,-95.4436161226748,-90.6664744135716,-105.751696173675,-88.1730188775269,-106.233258810149,-95.2394326174993,-93.4268153955184,-93.4755929905407,-98.4763144430342,-94.7140964552067,-98.4889126094375,-98.8908370130352,-91.7205146607365,-86.8757218620735,-86.2024644091228,-94.3081450437473,-93.0589524844317,-78.1423379346865,-90.554321778694,-98.9655684336911,-95.2532676890466,-96.2764307432736,-103.959340271963,-91.4947394066418,-95.2958506206779,-97.8906617145686,-99.0051596031572,-103.288213372364,-97.2025125470883,-109.391728929637,-92.6713145285249,-108.326660940283,-99.3587953689526,-94.5667880155246,-90.778520144442,-92.8502368812342,-98.8878307323497,-94.8640402385641,-107.062240962487,-103.181078419497,-102.574524123047,-106.597095748616,-102.957506282647,-117.073084860892,-112.926503375306,-98.9081007628844
-87.2206047270074,-89.8424971776,-86.3776707221561,-91.3614651232056,-82.5597604491928,-89.4292958102082,-87.9302889203368,-93.0505087393711,-82.5040745845349,-85.021067188789,-97.3193880403896,-84.6407828901894,-86.2022860697886,-89.8805851730089,-93.9658787975524,-90.714679822599,-82.2223114684396,-88.656576301404,-90.6117868245032,-77.5941834927421,-92.056152191654,-80.8606243075988,-89.5031479812566,-86.2333760835324,-86.5851115377131,-76.707329447035,-92.171653571736,-87.2410796123273,-86.6881051215301,-86.6399556508352,-80.4206766148947,-77.3299283633169,-76.8179168067841,-83.9244121087432,-84.669094275413,-73.2254139743691,-80.2424857790249,-88.2587122488602,-84.5881174084474,-86.6074953823415,-90.8905551975691,-87.5317484280315,-90.9282893383166,-91.5575234442273,-88.1170821238438,-87.3140284755316,-84.6547011274159,-101.830585672452,-83.6073446473728,-99.0573388470605,-87.8605736603879,-86.8109356191901,-81.2196347987545,-85.7470337591273,-92.0990168720583,-80.9776054181373,-91.3714171812277,-99.8365513840802,-95.9670396820051,-92.0705513321211,-94.0246803223447,-104.873210471685,-98.5370162433804,-95.6445217996292
-88.358199497973,-84.9882638736264,-81.8676629641272,-93.5649775861744,-81.6103672189068,-89.7611561397059,-85.1093317474459,-88.9678143674927,-78.8772615019647,-81.1640544865787,-92.5766970391437,-82.4776099490485,-81.7523690103559,-87.5214035656874,-87.8918275495426,-88.5861814078584,-81.8216876274718,-84.4656406875257,-83.4093967044667,-76.0656166337922,-77.8737183413809,-80.6696125864701,-83.7961895200848,-83.3394646911527,-82.8081720779203,-73.0450495594899,-87.1712563925469,-86.545652970106,-84.4655887856465,-79.168708818562,-78.5769165568591,-76.7449206126782,-78.0635758988924,-83.41513381256,-81.2631855354052,-76.1936415434551,-76.405354884575,-81.4849774401587,-81.0839285034132,-79.0672422531835,-82.6597376111445,-85.7089343038425,-89.2715561980092,-90.5679036393037,-82.1937906943919,-73.8503505626604,-78.2746618594376,-100.538832178849,-79.5567667028274,-93.239506173812,-86.076620282576,-84.1019020121482,-80.5670259490284,-81.8604877832559,-88.7064816806042,-74.4237383814313,-87.6034069115715,-91.9855133752885,-92.6139056861841,-81.6879832105671,-94.4970047420875,-97.3971926729352,-92.2023833675109,-94.4170391660978
-71.4210163358368,-63.5124727061527,-65.1022022690379,-78.723326250281,-67.1756160527231,-71.8992212342377,-70.917958270491,-73.5059875868387,-59.8353777796621,-63.8382664148004,-71.3711125027236,-67.3950884988045,-61.3962638180132,-69.5503456937789,-64.6731212542961,-65.7871182943147,-62.5857550645327,-69.3848250323259,-58.9160480722925,-60.8119873737539,-54.0742114231465,-63.4347902322433,-70.3277753765551,-67.3755198083698,-67.4245805493715,-57.3965804420411,-66.5352802685156,-68.8580304897929,-64.9252374526785,-59.4047591170807,-64.0871082918826,-59.7408785818927,-65.0605983982333,-68.732029692401,-63.3011088967925,-63.3140541430128,-60.9200417221394,-62.2275533718651,-61.296838003675,-59.4848370302168,-64.9798122541021,-66.1118136080612,-69.0834803134944,-72.8557134155747,-66.2229722920489,-52.4708075938901,-59.5980335567689,-83.7896596268943,-60.582764023291,-70.2324592997649,-70.3234507645644,-65.6243371915183,-64.9894047168691,-61.6125872544371,-69.2989829035536,-60.6184307120379,-76.1968650841153,-63.9611946854187,-72.2248742314771,-60.8165000023502,-78.781312324088,-75.8486939486199,-72.6917775729689,-72.4476930827086
-39.6576891309914,-29.9445838143986,-42.0968159864551,-48.5636026190636,-40.6050171605383,-41.3277998407326,-43.612749139824,-47.7265963889453,-32.1051814828232,-35.8762943441633,-39.3676297471104,-41.0823030304022,-29.1460857844386,-37.5625773841016,-32.3805288474025,-33.3433563419565,-30.0808384229904,-42.0195440779196,-26.5160811773358,-30.5846722874234,-26.788063103399,-31.6351000519875,-44.9765032616166,-40.3519748374265,-43.0249942894477,-29.041085255268,-37.6302597801072,-38.4060392007073,-30.1034710764773,-31.1449083673481,-37.2257128465608,-28.9707357364159,-36.9879489011729,-37.4417423280803,-33.7258712584015,-35.6183824245314,-33.4303591836597,-34.1284690159241,-27.793752703208,-32.8011978626404,-41.9097112917577,-35.7540944727286,-40.0364598724711,-43.5942373839749,-40.5558390236285,-27.91119931456,-30.4746248877758,-51.8750609814042,-28.5492266240995,-38.1210692301886,-38.5336262306501,-36.3080672973935,-35.5735809481422,-31.4322227418571,-38.5208589268066,-35.5445608044789,-51.6637441551379,-31.0437411188062,-43.3275788389174,-35.4524666000688,-46.4500673456294,-39.7128169481036,-39.4727889863171,-38.9377026315262
-15.4266398245332,-9.76099214080261,-27.7412569544668,-25.4704691005322,-24.3447492256133,-24.0912350190116,-24.5646786562063,-29.5424750135956,-17.8522828031455,-17.8444897470168,-19.0515939568477,-23.8207503343859,-11.1444632396854,-18.0845495684633,-13.6330140031257,-16.4285339037843,-12.1787325791276,-20.1116408191682,-9.65961273172633,-11.3478816733582,-10.0803262922858,-9.91320655209353,-27.0663261986238,-21.2854763572395,-27.2456931279075,-11.9609346055954,-19.8208694783155,-18.1104933396375,-9.91778512022895,-14.5273576442351,-17.7495540941681,-11.1558971333641,-16.9722734256658,-14.5788580579745,-17.1204253961524,-20.5472819276404,-12.4092639404062,-15.0612504779085,-8.54223984272842,-16.3968417462782,-23.8989146710582,-14.9447020283813,-23.6079743992302,-26.3543863663437,-22.4414826869281,-12.5051906383366,-10.8613844909338,-28.9245573635889,-5.32442851533479,-17.8172925762732,-16.9147456793847,-16.8509941275789,-16.2231856804442,-13.1921247654797,-18.8846717326531,-15.1349296700946,-30.7464516681736,-14.411739123831,-25.6558837911639,-24.1543625392453,-24.3672103516384,-13.4886817755398,-17.7554996902078,-19.4311564438589
-1.3556774643694,-2.91249301025579,-14.6957578006636,-11.4262889810641,-17.6775356493233,-20.0325669056169,-16.5319863064418,-17.7406562189037,-11.9084172697634,-9.13729197753007,-9.70420312049565,-16.0528685305427,-8.81535288252446,-11.8125525603317,-8.83596454347686,-11.1349154174146,-9.54049465638264,-8.97629226291067,-7.09270516423657,-7.08440967642989,-3.83618134542057,-2.79552048621421,-16.8395922995453,-10.780036575074,-20.5209396568728,-6.13659720838199,-12.73032935887,-10.0326242796392,-6.5291443144067,-9.6015498900736,-8.65424097090736,-7.51392165717395,-10.6848581653549,-10.0716198033177,-14.0021184011858,-21.2768738640929,-2.46052003100149,-6.2882801901565,-5.41696513317473,-8.3179497562591,-5.7815221815412,-5.12431364632091,-15.873192460815,-20.9508367194937,-13.3541160078239,-2.64102542481356,-4.34375233972033,-20.8206595835615,1.79857735038161,-5.02195508367692,-10.8563473092481,-6.49507857710589,-9.71145333289447,-6.36220932335771,-12.724086699316,-5.11489029795009,-18.6453370051133,-4.40590050480469,-13.2339252830092,-19.47643476299,-17.0078808623142,-2.90815658906123,-9.33786555537744,-11.2740229293012
9.51152704880751,9.73792383610284,5.42926719872081,5.12957780229882,-3.45567216929145,-7.90689958871376,-6.28868964351971,-0.958652466345989,4.05604577320398,4.97469797184845,5.66931291064269,-5.05440423942194,-1.69032581579865,1.84974849324129,-3.56979968159781,-2.10961177465262,-3.24650699317486,1.89748302339445,-0.644704911709237,0.970993048922979,1.34648265914849,3.42127193761164,-1.02634227757682,1.07179864978774,-11.1981784174332,2.9286211973251,-2.53113525095072,-3.78524275143179,2.22314585252386,-1.05078528059414,0.852158907806606,1.48772685078329,-2.57413156497035,-7.14940967729647,-6.71189299723908,-14.4604429917227,6.68866592331293,1.29259477631335,0.950280666109012,4.04239201504099,11.9791257999193,2.57702608964456,-1.98530697098843,-12.5425428303276,-1.0088453902123,7.93629612152547,2.91107440580112,-11.5426011553939,4.93486228448394,10.9375223793442,-3.15129854478973,5.30200513621653,-3.09616752388581,1.66997030047952,-4.92062556144607,3.8038935387261,-5.00627714757861,12.4724212569307,4.57077135139788,-4.55753177320802,-4.18660459129303,6.42983626219921,3.74200397137026,3.04535256335559
18.8642264360516,29.9730874640131,21.140218964519,23.5883740833538,18.7973148840643,14.7875193885172,5.18980371775263,17.4553153446898,24.6526450120093,25.4105532635765,29.6128750819673,9.72820012961795,13.745058154699,22.4818512445292,3.92002416546336,7.23262884605855,10.3055223869538,16.6988003732522,11.8236305830854,17.889791341148,9.38989150826158,15.4461514943025,14.9797091543205,12.92955028135,0.331625911571779,12.4183903080304,13.1915921876523,5.09677870430059,17.4850180472283,13.7215515042333,13.1107823301824,19.1191533930211,13.1164836288276,7.37695801406489,7.88928889000474,4.60714131736104,16.8147134833895,11.3611322216126,14.7371718035401,19.2309633238908,20.2059773840481,11.8171368929956,15.9423705007203,-0.253201759880062,16.456594654974,16.0971451624093,17.2742009357052,4.83351681272079,12.3704414576389,24.5215420249866,9.35157313140284,18.4315173327452,7.0196443047453,11.45806693103,7.70624377277698,14.503085013825,12.4604721459751,27.687630926664,19.7335713028654,16.769234922282,17.9688069524192,15.8313424536361,20.9404104315529,21.1326143739688
33.9202317940891,48.1795547645736,29.5496092799832,42.0260865502485,39.9890532853526,35.8967419001893,15.9770290759338,34.6930816793123,38.8075398457701,46.7307217552625,55.253294684439,26.5625035092055,29.4194975954698,39.6471600830463,16.6217323294909,14.3305592855821,27.7249249460094,34.1202271837435,25.8620931211164,36.4489419839947,23.8113048812894,35.7822353828533,25.7380498391019,25.847424851179,13.5392856477699,20.4122520757789,29.4700078718674,23.0582306140136,30.7977144747196,32.4793859314772,28.9178311962445,36.8817917618153,30.771281362171,30.0988335974798,26.7155522420704,23.3331839529562,30.0438176084256,27.65417647069,33.2284886169713,33.0785140198802,28.2189278367258,28.5243322417884,31.2397253272868,14.1822869938582,35.4608800130463,25.5958666117222,36.511852932018,22.5184505853659,27.1150784854107,36.6962825436156,23.1795158162152,33.4149537565709,23.3255994061921,24.1549441511855,22.1245233086075,28.8846359990341,31.3115774340124,37.7083312575801,28.3307924525481,35.5321126286878,38.9006083639983,23.3450150307448,36.0857118584887,35.0505417269243
50.7055466420313,57.3205030559067,37.8848089796729,57.0172931193489,51.9923371016163,46.7749174137678,29.6319773730905,48.5657730567984,46.3187048899506,60.3367514551676,72.654059936315,41.6704551256472,40.2006017418172,51.7300558266194,34.8994849327356,24.8750826834577,45.3233666519599,49.5870392589559,39.7600202785649,48.4789063355774,40.9834334834538,55.4012958874579,35.1034543220488,39.5868647067348,27.1151690743535,30.7695038306806,40.0418100403697,43.2775072620714,42.1099824841186,50.3033403057829,46.1767534989123,46.0264872960114,43.756589356481,47.1273202719658,43.3900650077871,34.5846077173312,47.0197219879709,45.0840940489662,50.6162663947258,44.460585108434,41.7181157999851,47.3023896842707,41.011402734234,28.4957734958678,48.127621876786,39.0184825491349,51.8685177640643,32.8422187959642,43.7144109064954,49.5861063410226,37.4271785394897,46.8411215903703,40.5668700682967,39.98807355721,35.0980326772213,44.8881327151545,45.3849287476047,46.7704721879146,34.1758578093184,47.2084577832108,51.7521296809817,33.9639723523217,47.8620944835728,42.861558687668
53.2920687083387,56.3955272023227,42.1854338609789,57.5316695529953,51.2146599972501,45.5398930612898,40.3987329559042,49.9818167027978,47.8979842331852,58.4071205541959,74.2638862021138,45.3354386023678,42.7268230819057,57.2202919156516,41.9834159119906,33.6211142387534,54.2879321792503,55.2963100456714,47.830812757202,50.1200438010312,48.9389892130703,55.2076162242604,40.8327790733256,44.613142663213,31.3880421951913,39.1668475712328,41.1646897288488,47.0039235554429,48.5930423106841,55.5246862070351,52.9574145714081,41.2837251008297,46.545081339913,49.8000523550004,48.0931365273392,37.7037761785129,55.2563557510779,51.2465225210706,55.332305579322,48.4206661790688,46.2445275879778,50.4492541910769,41.9431786354524,34.1262863888358,46.8313661970019,46.5491633716064,52.9895677062681,32.1731609665762,48.6482810516055,51.4900297383794,45.4401054409205,50.5000493803793,44.9027726776968,49.709145725587,40.2493127037986,50.5845740285659,44.5403141459834,49.3597482193355,36.8867603545462,49.333054262701,53.3559736542795,46.0442443616036,51.2979569427192,41.8201372628809
47.1074026845744,56.6586323011723,42.104787304704,48.4984164797754,48.3225078537531,43.1372337047566,44.4154223952428,45.342692515727,48.9850146357094,51.8562329456956,68.7925762347394,41.6222979715795,43.6832788696866,58.2197164505832,36.6713045766053,34.5365850488281,55.2543109241682,53.4646642040273,50.4725481314537,50.7118607407734,49.5377997335691,40.3529226713976,43.368157673356,42.5660975330867,29.7934752673115,43.4107918097062,42.4566469083482,41.3533030915172,50.5649066127488,51.0479543763557,49.0608179243929,33.44118711936,44.0927200102129,48.6718280412567,47.6111951460986,39.0055612178837,52.1621817506492,49.2875278915118,51.7279869787364,47.1553358466476,43.8238828698669,43.7642337481357,39.0117292026914,33.6836379983632,42.9727752907349,47.131210866586,49.0776431441483,32.4599986134924,45.3295400942372,44.3392049067867,47.5860985985853,50.889801368336,42.2913325384216,53.2873709168235,41.2645665735358,47.891453695633,35.7875159835326,46.3233815820172,39.6379523451205,48.882304805802,49.2026700138697,54.4888359619509,48.6216771852013,38.5187241523337
46.1210959676537,64.8024399967398,43.8664544315261,45.6112918416906,48.3787921497047,49.5500363859244,46.2435725413597,48.4404425049746,53.0687683115071,52.4129042502792,63.8877844276335,42.5884321749524,49.4042287870112,58.5115701908349,36.3623759396291,33.3277301650065,55.8415740803083,51.1396998604737,52.75905472612,56.97214785429,50.2464008936201,34.6632144994466,46.9829951393705,41.9625991450872,31.6471135042735,45.1520199272989,49.1915145949121,44.6577221802321,52.8226869353181,49.0836067000622,46.8691802923933,34.6623648280715,44.1540372559093,52.7596453300726,52.0172887031382,43.9413403459748,49.1392520862181,48.5595512752145,50.9049228537664,47.3410422290746,47.7387799370079,46.7711703861128,39.6002936375218,34.5469910048346,47.9088614497797,49.829864117225,54.727173207822,41.8787947874182,46.1603189457181,42.5916313410824,50.1496552285768,55.9942509749799,44.6495938873691,57.0764935119123,45.0112673790256,49.8509048328955,35.2988575294325,47.0734012552309,43.8276679111635,52.016731570884,47.6357265728386,56.8219534759499,46.8105809580261,42.5404287849685
41.1551923489302,65.7568917625431,40.7003042117375,42.8642719320852,36.6740902776868,52.6943887552621,43.4028442812407,50.1670031677396,47.947464701361,49.258896019151,48.8548074523222,43.604160018279,47.6891553964823,50.1322440770641,37.7653525688826,31.8067898411036,50.752697501818,45.4854243109194,50.8146731497175,56.2720916876573,45.109625040689,38.8568721270468,46.3410747998193,38.7230923615808,29.2958604333205,40.7659443709268,48.5231611417396,47.9100025973792,50.5135282635956,44.5732677287466,44.9191510530158,35.8563744074314,40.1252120650826,50.1064932753779,50.034939528621,43.8710826977624,45.2210406235804,44.616561350923,46.5847787610383,43.5863847584298,47.6446270228028,51.1947646457136,38.6934437373987,30.1703660629209,48.2633805994357,51.846526770701,57.309136186333,46.3231332944687,43.3449342306845,41.5574050213939,46.433151928962,55.1090859706909,41.8401088623616,54.6087299494389,42.9937166253613,50.6506521646019,38.1529894464598,47.7759005798189,40.6858086690747,50.2115689170795,44.8661524655368,51.8765095946942,42.8093291669667,45.2181138975522
20.7628803850626,45.4174316446836,25.3492598609544,26.7738005492281,9.61567594164414,36.8588058143884,29.5892132616182,34.7925094820027,26.9075761279259,32.1803026346184,17.8349120762549,33.7706984084544,29.7653812110353,26.0175518825866,28.0397280382222,24.2641867386085,34.8802046125559,34.4557331440587,40.391410211659,39.9308085916866,31.0414658945523,33.0608748921578,36.0587119220282,28.0221924698958,17.4388713577224,27.098049928746,35.5752767699305,35.8090026741,36.9723246409503,28.7272331390811,33.2676220840588,26.3059811601247,24.8870468044713,32.8198529352454,33.4227958090313,29.3264947429156,31.9793185046561,31.2200892116461,32.1263762642545,29.4808462584486,32.2289351950604,37.8784057685391,28.5232402811089,17.392206421541,31.6072788892318,43.6036902274008,39.9768710255924,33.3975954035336,26.0879746358096,29.12358233092,30.6297803174753,39.9997666153145,25.6021237091378,40.1361103540444,26.5362870562626,35.3573149422072,29.2435447461382,38.9858125484551,26.6092441747242,35.6654806471838,32.7696622749179,42.5868313199448,28.8286201200098,32.8772068370441
-8.08753577018201,10.0616014572966,0.860833432639713,-1.02805160265674,-19.601970475187,5.06489188813669,4.06540302997959,2.10575650970763,0.630135149960115,5.34930686267298,-21.0014320675993,10.9516044358963,3.85855752964792,-8.53365652064839,6.18644122269993,5.74486672046203,13.4297512375304,17.7868887428569,20.1446957321436,15.3100138448819,10.4434312045228,6.33758245773168,14.3500846516016,8.82657577686831,0.106229826253055,2.24880767969367,15.4840538043323,9.29471419937229,11.9165142302743,4.57544843931702,9.52202298343536,6.45975897637916,-0.727614427912155,5.6368696555002,9.48269021970407,3.40592301249056,7.08875776643236,6.1871024182941,8.08538135637258,6.47605545882942,8.42232804016201,8.53474450992343,5.53054875761873,1.26614460735101,3.37474892142341,19.637342862283,7.62943434927509,6.28869376966083,-2.01635454830157,5.04995724469062,8.47723639260303,14.6689222221202,2.35647694230001,15.7578438773321,-0.712523318808215,4.20059202591463,5.5010929291445,18.2600005175896,5.31508832065784,11.437103878467,8.7466088444224,26.9289466102972,0.262567171208225,6.35681424836906
-36.8748968666773,-25.8088181653479,-31.5103485903113,-33.9981767226902,-45.6323429500773,-28.195651657028,-29.5801786787906,-37.7249574536311,-23.8107670627545,-26.1941637222452,-56.760878922775,-20.5900696277585,-23.6933121315169,-44.5696968264551,-27.0559015526679,-24.0843680723239,-14.6989387124165,-12.2917278625602,-12.6539545784445,-12.0392373813651,-19.6438434013469,-32.86595141888,-21.8726015349757,-22.2726642927656,-25.1213960073154,-32.0198047378325,-14.0035813694138,-25.6632147058233,-22.0373662237801,-24.9723033631467,-21.7034920600525,-22.7636642181329,-36.4096973259883,-29.4221085546747,-19.827648133133,-26.1122103966014,-26.4966658306679,-29.5573214794475,-25.6101657524881,-25.2336668009838,-18.835102630063,-25.2656587402363,-29.0279890077839,-20.8937310178565,-28.6809644357104,-16.8825276919784,-29.0054130075962,-26.8422074199517,-34.0300072980758,-25.4405718648297,-16.300936359973,-18.9264923561079,-25.6941715608837,-18.1075101267707,-32.1809424482444,-30.092358710703,-23.842404497308,-10.6981340263064,-21.2175272517949,-16.3317074736737,-21.6860679043382,-0.0256286087336695,-34.2171441571415,-22.3019882698154
-39.8044656271483,-33.0901988809505,-45.1628612377855,-42.8708604090571,-46.3211307489106,-31.6822637940635,-39.6591300358572,-47.8986689174327,-27.1795096437161,-35.450112041657,-55.9260213388437,-29.6209756420055,-29.7084572148462,-51.4375637554318,-43.1193817570966,-33.9703602034224,-29.5655801858838,-33.1880708501436,-30.8951674151839,-19.8080521766255,-34.0183997042085,-45.0684051181489,-41.5935780519331,-37.1456587105961,-36.4021645044512,-41.7349590518934,-27.8002054894553,-38.20323831697,-35.577805129136,-36.2415396434708,-31.1564791588347,-34.2032267738718,-52.6102650819784,-42.168947226795,-31.4150169069833,-31.5667493690987,-36.8669538243126,-42.0723851484373,-37.978402636898,-39.394024690581,-27.8400369477161,-34.8506730289542,-42.0606919784922,-28.2855657833226,-37.4318036839344,-27.457781453172,-39.3689821580907,-32.4338109204378,-41.5727177738576,-33.6931837815889,-20.3044508851895,-33.3818849175554,-34.3073040374272,-34.3500836769153,-39.5544344614045,-34.8477839896486,-27.2170234282206,-17.8405632967491,-29.9550161682334,-21.9148622985534,-26.8644197797234,-9.31095649843657,-36.2056796332922,-23.0146387636135
8.09555587936123,8.01010952768316,-5.40378980371495,1.93277511576031,2.63469262795984,12.4195940945819,4.86974068388137,1.41213138231544,10.6585195277233,5.31486469093557,2.73262840988814,11.1727700103787,9.06120264494092,-3.25998973075821,-6.48769285425246,7.18177322071415,0.771652489681919,-6.31932696790357,-1.78827540605657,15.6767211586892,-1.31715794682842,-2.59414993253503,-5.87357954162165,-0.607120234110978,-2.50249228875908,1.92731185883793,8.87483962512218,2.35925897392347,0.498331167380524,0.0225801291986154,6.9945057110184,1.93153909003886,-14.9088804997148,1.85702270742134,4.3468148775265,10.1750478727699,4.84737676609124,0.246565946925425,2.82819457667918,-2.93443687918232,5.38108442331494,4.3025601557414,-3.38883199680862,8.01725912632956,2.02304168276455,19.9007283891032,4.82986270750674,17.785780841881,-0.0292065796024941,7.06052264220741,19.6003039954117,4.39839943702932,5.99629959198675,0.363867963300858,1.85824862748833,10.6983423370644,11.5342232816609,19.1522784611346,1.40352342141609,14.1319973745613,12.5253794191809,27.1362817970235,11.2595232416174,18.2596078975003
54.8422107541357,49.6002094614547,43.6662499171929,50.5201571163087,50.5895100013035,52.108904906202,53.7850643958543,54.0384386673858,45.7867126594352,49.9766991948013,56.8221796427549,52.0684290059176,46.9480484100113,48.3939486278018,38.7769057491196,50.3758224849978,38.2927764972915,33.1792599849362,34.8045139984546,50.7658722653805,34.2584797825636,40.2138458488548,38.8585328133531,42.1017973270351,37.2076923556293,44.757767389322,52.1146597209173,47.5545162998745,41.2972825800046,43.1453344917478,47.1238402825761,40.6772678622817,31.0664027899939,52.9780663023739,42.870967362729,50.6281632754517,48.7524340112711,46.3403419690056,46.406549347965,41.5041847090375,40.3291312024609,45.5447527925247,38.405478066953,45.5713975120179,42.4649040350983,67.4144707571694,53.4462315796997,68.6447206709194,42.267513674374,49.8392551347122,56.7658239409925,48.8077865766213,48.4911790692936,45.887652241883,42.7273175714112,53.0225347974532,39.3878397856437,50.8347285530832,32.9841088690291,46.2434006740789,45.0062639623125,60.1978059893152,48.4753689550143,49.9814069345641
50.7746971491729,51.1644627242747,48.2091475516639,49.4634605156529,48.9848492415208,48.7544911450204,54.7607432068535,54.224423705855,40.4236109055451,51.9858796853704,57.8748964584725,49.2701881497915,45.3138876207107,55.7463518021595,40.1987590749496,49.6736317312305,35.0959334479941,35.8360884183044,37.4530501240246,43.9035958964717,28.0292896050133,35.8017218960945,36.5254863746327,40.7821852811384,35.7355718739983,39.1700838842725,48.4898485946857,48.6872386086977,42.6324546967183,46.9996688394336,47.0762622264747,38.8466799861452,34.9909993067861,55.7984383519173,38.9463988655487,48.044192971099,49.4226379931039,47.2719282287633,44.9600920644682,44.6445632076369,40.2269185389665,44.6194094742059,38.6457796244681,41.533603505114,40.4965778412868,60.0482897446543,53.4424674018431,68.2088688208406,42.4812030863371,50.4866749499808,51.0555662442266,48.4908629976556,44.9755433862801,54.1883951019035,40.6598824466566,48.0231405076515,27.0007271540167,42.3949866388208,32.0731525396361,41.3317274482904,39.3994390397002,51.9113960971528,40.92808483085,43.0813442639386
55.4339106824887,64.0242927877659,58.3019235864604,53.8849310505872,57.5014785110705,59.3993838990878,62.3478403810659,59.3986522545058,51.8945214512518,62.6638764977922,69.6926313837507,59.6051383326841,59.9567687938482,72.6063139672724,48.2444879236072,61.3946451868224,37.5103205124953,46.1931250060856,54.6500336931215,48.3597742964824,35.4617907370764,39.7364443593216,38.7030673491136,49.115046191721,37.6039661656449,44.8451191557942,48.1443181120203,59.2855856236575,54.5946649316776,56.6567064596162,59.7293554663363,51.4215577799132,46.6745317031328,61.4308577962465,48.3663161010707,58.7901922388638,61.211355132501,57.1110365139522,54.4806400821932,54.9791515684484,54.2309334856721,54.5221816391302,49.1342072719029,47.9629434512821,51.1804091376845,56.58727136526,54.7802073944693,74.3272067463962,54.6427910374086,61.9548421516711,59.2362865509057,54.3706759275247,52.4844295655338,68.2918283285688,52.4726947147093,53.3098911452498,38.4951357480374,53.4002038910498,49.3138778455037,54.7849372306247,55.8610653520876,63.8355567168279,51.7280815988797,59.9135833910154
116.763313845482,125.571420502942,120.885203336287,115.407185042301,124.66322081865,121.371116605378,125.017488441711,122.312117335896,117.915436759336,123.343841493258,136.113051796603,123.448870832482,124.514151450868,137.481936086432,111.717377181017,126.173164090707,90.7540542031636,108.082199552826,119.627935764069,105.736779879907,99.7124608416369,97.4283916375907,96.8672576868389,112.921405946405,87.0758125890476,107.635702039189,102.945303135353,120.481544466512,116.683695068406,111.164349314779,124.054931837971,118.691339599192,107.574011364973,117.734815546758,112.820477818388,121.899015892998,122.309702581,120.067105147104,116.580385228085,115.001562268987,115.710268306938,115.764189657834,108.234635954479,103.119580174199,116.9485285734,111.887348130902,105.91292736793,135.221397936683,118.303215792688,121.029342824112,122.133352147344,112.757703124133,119.837290982122,126.678456178894,115.893689744382,113.863920145178,105.846697461306,118.244921155274,115.293914778138,119.385837325463,123.50456542518,130.409120677206,115.805176152139,131.240547068453
177.240342403985,185.03137314809,183.148707987717,181.147398298924,190.947430699779,178.318739755089,188.22566958104,186.993655436016,178.28457800327,180.679896255271,195.050641936577,184.442501975186,181.715989696761,194.776093792094,179.65686219701,188.375698099369,149.488514563031,171.394280776027,177.995509927628,162.245905513754,163.713103866486,159.32764675001,161.474514565884,177.481665321686,142.87115851107,171.392019962153,164.913353569879,176.732818707529,178.657583414965,167.638190962353,183.23943624268,182.52292157722,165.340553974449,174.259596585464,173.470953257334,180.166589822867,177.413716838591,180.990694718667,174.949127886752,173.181878068315,172.640495887934,173.541122936538,164.722994550998,157.258807708281,180.646728068446,175.064832374723,162.272225935653,195.369678030581,179.422403375034,172.817971283383,182.459460388088,173.992545627297,189.487359537016,180.509647002793,172.604761159702,174.529303502601,169.227513397963,175.457689227883,173.195816324202,177.062801101861,180.943806600311,186.171308495485,173.941068015842,191.260884921898
181.810006272299,190.533282792814,188.645529905223,190.99141875438,195.044236510805,180.225448529908,193.873989513076,190.902140318025,181.482346420699,182.38546100418,192.301785162974,189.281113668325,186.316409714109,198.293786035272,192.75282324811,195.853496794698,159.30367660806,179.254889703565,182.659867962182,164.754552622452,172.076633929216,170.515931934447,174.691085439794,186.39833816179,154.279897668217,179.501917875074,173.705343204056,179.424235190077,187.494300355392,177.660251554068,183.977538776141,187.709217537349,169.986410271348,176.93580166591,176.013223863212,181.440317984242,178.947064648064,182.306534164985,177.468841212414,176.224337500702,175.490942372254,176.17839735008,169.644040761531,166.946222788358,184.369845212366,184.528508302035,172.018224513718,198.151661835222,186.512937069601,174.391203359924,184.78540695955,182.2517712358,196.892181397374,179.031088000755,174.307656844847,176.490200314407,179.542349741818,173.8120290691,174.456926819245,176.607097151237,179.481304379653,180.828147603457,177.137474306916,189.153212401195
155.42445690365,156.825765852232,157.465730790856,161.911270747924,159.734847357137,152.566492653098,162.970412751957,156.604436088784,152.838765751027,150.604991125755,156.050969564256,157.101244293648,159.106798842352,171.998279705336,167.124284013918,166.998570557267,134.864201844853,150.18821517503,156.053066490023,137.802772222226,148.367431741915,145.380179086783,154.291806129296,159.403631251337,135.372468811158,152.25973693461,144.327054824502,155.231244059511,159.380862438712,149.716958355448,152.317388053299,157.401845180714,143.47645212042,146.854555638268,146.337787901453,148.139493690456,151.009220243521,148.503994716351,148.650820651547,145.29315692071,144.867314314798,147.660753160136,142.730243641318,150.206531214582,152.908471476459,157.118926277627,149.723549897708,166.363798850946,159.438225556782,152.23833584751,153.915664829759,152.474413930172,162.601063766661,142.713991818188,148.89772763155,142.218065766038,155.022904006034,139.797175093249,144.601565341929,141.398216167901,143.599216143712,145.973890960052,153.048029389784,155.482933430593
142.872926261572,131.516925637298,138.929874042208,142.163932237354,138.870602100698,139.946923229257,143.879925754185,138.056012265918,135.981936520818,131.655223361987,137.344225402955,135.257035310425,137.292572503992,155.449330750286,149.677305999905,146.471563355055,122.027558602938,133.476740189099,139.449742581987,129.1078511603,137.804983707534,128.868105943497,144.064104541723,142.10783200145,127.54793383945,137.460724032693,125.111043496009,145.158511012965,140.531075267653,128.572124586477,137.716848169963,137.627564538565,129.111703565198,130.960510540552,132.226199121236,126.617467147694,137.145915115593,132.167940004306,135.709921029652,127.736581485431,128.468073702218,134.469054530535,126.861485496557,138.711482897037,138.259336773108,140.972584960118,136.502756483526,148.691037014169,141.62276691235,142.820972211138,139.046241733372,131.458453661686,142.047474226593,120.517340602492,139.632161496292,126.511646399545,137.464779389621,118.779069775851,129.62182923297,119.633470449271,120.349494951664,130.855862902497,147.341498945912,138.205977607743
144.612264822696,130.110091298484,142.093340719219,141.743019496399,140.912566453245,139.32126541201,142.063292493033,142.213617438355,133.943232868635,131.596966270523,141.028943364379,137.901588018778,127.944378828274,150.645590147942,149.553897879713,144.807623390879,127.368019507064,135.975526807929,136.686893543415,136.772289950822,141.373826744194,130.580081367517,144.527072423608,140.907700812584,132.04330831765,141.385036440253,125.032769873814,147.258929302777,138.499248725413,130.978634515741,139.130059335092,132.608356460913,131.215311463181,134.617604978985,133.116614455448,123.253500021812,139.852679021749,133.953766581061,140.55132070043,127.453802257041,132.5245096393,138.858954958589,128.399765800741,134.578222448608,140.7166872643,141.991913725713,138.804848160213,150.343558420386,139.504862144441,143.467331911947,139.574548639665,131.915438802619,140.946416496019,121.797176414794,143.622268309926,133.696681344176,136.106722441503,115.337205817127,132.762792257753,119.819679136047,117.171634741046,135.375654731138,155.628427155256,140.440795082002
137.506050103953,128.800400394337,142.008925632933,137.800135021444,138.766751786696,126.8966577865,133.114112428106,141.340037419392,127.082805094308,127.908143642434,139.448970200518,142.250738651157,116.736631624809,136.888087093373,143.843473864928,139.368380721718,126.02979842991,131.318012024601,129.111351775001,130.235941539317,136.750193702915,128.206491268285,133.598725892654,135.081435791547,124.364410758274,138.50784763404,120.174848487812,141.750701982258,130.35721743656,130.046563175063,127.151298267508,123.234269026006,126.599310256806,131.984052962578,120.778845706811,115.61459910559,133.671739001466,126.336602392268,134.320397595711,119.291580908991,129.64569374745,134.360212228272,125.80598750139,125.026332288228,131.131363287288,136.782764073073,134.560564336502,146.79195571478,132.026327330571,135.255369821613,127.849880510967,132.93163830245,129.45723427085,119.712401322127,136.913253248439,131.051178832067,130.924956855981,110.992193943297,129.884041763013,119.457797613006,112.325463730637,130.737903818435,148.657273714056,139.09033914756
114.176207211588,109.959927646452,125.027739444401,118.588980189634,120.941739959281,104.867000302441,110.072263984491,122.024718286326,108.207429897599,109.76001801671,120.492099606824,124.932793855761,98.0686666391504,109.976355452416,120.186839876149,115.338378238994,108.380867231124,110.75974057108,110.001305253874,104.787030600158,118.155415606285,110.425645178676,111.236749247885,116.528281820506,104.867065652218,118.294525850748,98.8845176545516,122.673626912264,110.262813453174,109.370788990933,101.205892938624,104.395756317082,106.058635878497,111.602248410346,92.225209224227,95.3691413520145,111.74706375559,106.849226044397,107.274557902032,97.5805317808025,109.286457514253,112.65045187502,106.692355937108,107.020228614952,106.496541248005,116.375187363302,113.75889544224,127.403097050386,109.800482878067,114.247841952442,103.58630687698,119.054536945935,101.728839440106,99.1421010751076,116.662637129856,108.697586438837,115.445766592052,96.5575660852076,111.980056528071,105.459698412962,96.4909172253975,111.684460052481,125.316688207479,123.106232548023
83.3269709598392,81.3522418098622,98.3369575920231,91.4657376341388,95.8744181695371,82.9276210135696,85.3980543930778,93.388529030549,81.5982222997722,82.9365385617747,92.3582998532956,88.4354103928057,76.9793206126198,83.5357824360834,89.8033990472865,81.5083274560475,82.2590070435733,85.8939715797626,84.3674842136179,78.0174335466019,92.5177502664985,84.5262338219678,89.8800904459278,91.4554542323378,88.820583529975,91.5856305301679,70.0690642870013,91.9386012582941,86.3061542887099,82.6503463798982,77.5638716025209,81.7697934150483,79.573391130425,84.8562922506555,64.8601518595976,70.8914916699943,86.5308002965662,84.2159216077792,74.9635714998728,72.6310437480255,82.7434839030299,83.922366642099,78.8127423447319,85.6061401077889,81.7037367370225,88.6917487492717,85.6209057389338,98.6871789102938,80.1138206414803,85.9825742742624,82.0989615920324,93.0357940117465,73.6892658018403,71.6020232852628,91.7568203053385,79.6726430965561,99.9761354682292,72.6508563603142,86.2821153564031,82.5350154482836,75.9335109635561,91.0515609653929,101.448720852901,97.5695717815779
55.0103232379572,54.4575583440227,70.2206435864002,62.8859348081751,68.4428185499274,57.88809128509,64.1826079117753,66.6979447915252,53.3517560583434,55.2786898417149,62.8554001729254,54.226929773713,56.3249860397826,63.0664711854264,67.6349241611593,53.1052211403554,55.1034470395718,62.5081524569281,57.8896295731569,57.602015413932,66.5830338709362,57.9935171433193,71.3335215430008,65.1813394123599,74.8733035625362,67.1467294768349,44.6437867865136,56.5057805129925,59.4633326106613,60.8144709837183,56.8360959382918,58.6244767257913,54.6927141746511,60.3450117765293,44.5074827681528,47.1710175089981,62.7326745099721,58.8802339888376,50.7575463610782,48.084893542538,57.3299459450067,55.4812490750274,56.1618581701565,64.9269171680842,60.2061207656916,62.5147762617013,58.5170404713393,68.4497827179124,50.2433747794015,57.3830106934835,61.6483654547251,65.0884570244454,51.2340783943174,49.1470942263602,65.7117308135412,51.5960782971961,82.6901192749513,44.6842467416772,58.1183693393172,58.2000211488924,55.5832896107836,68.7082784027051,78.9582884286345,69.2886847286877
24.3385355891871,20.7597334038497,33.0824482321394,24.8827977511346,30.2565745583106,23.0230260748169,32.1257714892973,33.9365335211065,20.8002597491862,21.9608917824297,27.6871500752667,25.3981340489263,27.6739851365029,31.9988035473537,44.5226230191375,26.1306825183116,22.9286092825508,31.7545796815136,26.5633478606146,29.4235505160547,36.7932176411208,25.0708307541328,40.964843822287,31.927052872004,48.0943754297597,34.4964733542299,18.1075140317893,19.4246861221793,23.7105665066133,31.1267547630984,26.2008098680008,28.0791864568812,23.6556313719573,25.7843498183232,16.50266859563,14.2676569741899,28.1068368475343,25.0988537612339,23.987959101034,16.4386038109667,23.9292505093184,21.5648094522049,31.0302637162498,38.2287144445641,30.2718348094165,30.8622274055359,24.7403267300487,32.8043599558305,13.7884608428846,25.7797511564274,26.8176424564023,32.0242978600706,22.0742359401512,21.0580706664579,33.3040060973581,17.3034076372631,46.0216404233263,12.7898375875032,23.4419546590923,26.2623450148288,26.6767446945367,33.1293464439114,45.7573648428707,33.3834207119387
-21.7896028697862,-32.7143634783499,-21.4955316155447,-29.0835263817422,-25.8496791641892,-24.0507703729297,-21.5155431559769,-18.8916245252986,-27.0255854821501,-28.6132680588733,-21.4148161850321,-16.5765006380392,-21.0860797950324,-23.5642813577815,-0.468885132352826,-15.6160067614074,-23.1845604315618,-14.8998563318017,-19.0579250918512,-20.9449877976757,-8.78612791205045,-23.0587162265732,-13.166724551275,-17.4189024869614,3.42656297638481,-19.0617552045526,-22.0265089599784,-26.7266839163646,-24.4127167848727,-21.336754218663,-23.3391961255226,-18.5401074673104,-22.7722882378273,-29.1222473611652,-31.8114480782844,-36.5514195777573,-27.2842781797049,-24.3660133343065,-22.6330116361695,-31.3185486232625,-27.6785229580835,-27.7372973808175,-16.0749002324054,-3.50335732865383,-17.5076284049759,-20.8879659740983,-25.2274612425236,-16.0418264124641,-37.8437407064279,-22.2324408207471,-26.4688849795699,-18.6316849666163,-25.3433125762311,-27.4295385858972,-13.4689645367328,-31.9539647908545,-14.8553342210688,-30.3867764468273,-23.0739159056559,-23.7572797136037,-24.018067311309,-18.187324613942,-5.68030308513863,-17.3925119970467
-75.2052716683248,-91.1292343817371,-75.811262081491,-82.4680830185319,-84.5481088857236,-74.9140917933278,-77.9469958172357,-77.200551710051,-83.5171510335871,-87.4089688201859,-76.8416057882498,-68.3479703957107,-79.9749345655605,-85.0749152893415,-58.3281380007602,-66.1374759061198,-74.5008069545654,-66.5494003483742,-72.6556594079509,-79.7238666926583,-64.9916888968059,-74.8557327232437,-71.8622301885501,-72.525837990937,-43.4687651238045,-78.7695460641176,-70.6284215772642,-76.6954151072735,-75.0958192301503,-80.6649285170611,-79.1166630102109,-71.4840037827143,-74.3121108538054,-85.2467779359426,-85.6265623103257,-88.6531102258195,-87.2893523682904,-80.0723259446927,-78.3058888550908,-86.5906026071172,-83.1825770664503,-82.6772259239628,-73.1686147590366,-49.3077979300845,-72.4413287444756,-81.5832207053308,-79.5620432293775,-66.2646922686838,-89.7578240308936,-79.475707018269,-79.0759134570632,-75.0106715563498,-78.4963541082856,-84.6914902577122,-67.4234027131713,-84.6043715181635,-74.6043746745457,-79.2661005524268,-73.1712913423821,-79.2786278572585,-84.7723927223923,-70.8879224543151,-61.8640092956656,-71.4566150158672
-113.641000965241,-130.83900410115,-109.433792067195,-117.408784328663,-123.701696229102,-115.076621619425,-113.419640756495,-114.277282035368,-125.107648224359,-130.098884357835,-120.355796215944,-106.385054314883,-123.24288689048,-126.450684314388,-102.30148043918,-105.222022455133,-112.506101611,-105.071052446255,-116.310829466957,-121.128500487466,-109.754490867128,-110.857994742,-107.062342175711,-112.828877687576,-77.2460842272512,-120.252268890722,-110.411889876911,-111.673077133891,-112.835419977194,-119.623548824302,-118.534637962924,-112.32322943792,-113.137799757277,-120.070033594932,-123.094311394863,-121.921047780795,-125.481079867468,-119.864339296746,-118.863947470813,-127.797219451763,-117.033899927112,-121.706204142545,-111.705206629287,-81.6234953185752,-113.722175309341,-123.667911433854,-119.656611136902,-100.988882678526,-122.01003442765,-118.780419573669,-112.226993534382,-112.284065249929,-116.328751668065,-128.472732396629,-111.218029230151,-121.775342486902,-107.983234810494,-118.047060882099,-111.700615453866,-116.605348696255,-126.284948137584,-109.47456833252,-102.28547522439,-111.110939951502
-131.429727708429,-149.688603543889,-126.437634606504,-136.247727423932,-140.725987841122,-135.123343791645,-127.87488532564,-127.480995909087,-141.102982762973,-146.755384378324,-142.550493227508,-124.069108111421,-141.548940458722,-144.290102653829,-125.053632488288,-127.187436110743,-130.968068647605,-125.99838641551,-139.458146784365,-138.418721707141,-131.449248192579,-129.004911609553,-120.336279633598,-133.113267032551,-96.7375888085497,-139.527595760304,-132.779998334373,-126.682557873064,-131.956060767089,-136.110441124337,-136.581647567674,-135.561702250016,-132.588027944677,-135.960930726018,-141.37933628714,-137.404838145994,-136.074736468036,-137.421071647707,-139.360086819744,-143.704809472486,-125.897001782241,-140.854547668806,-127.13010818224,-98.2362592176577,-131.795334706479,-139.403562354644,-140.488678123236,-120.620893784066,-139.054093916725,-132.033838806008,-126.57969640486,-129.08450865824,-135.571533702576,-151.272841842434,-135.88053372862,-140.541146969613,-119.751860339287,-141.058135552053,-132.790173172735,-130.691615236766,-138.34244198156,-131.511589645827,-123.341071284298,-131.63242618696
-138.021528841222,-154.478701024747,-134.650763255794,-143.987171822387,-144.77668743172,-134.680800396704,-130.518676232551,-129.24067140207,-139.230358047987,-145.963503236719,-145.928694279359,-129.427392256193,-143.589492214858,-144.797524996442,-131.377211640539,-135.418880381639,-131.521182118964,-133.970706078734,-141.916981748247,-138.414205704168,-134.698566091702,-135.752365044299,-126.164741196336,-139.093574684991,-102.79029063215,-143.501065078961,-137.152322546647,-130.230673374013,-136.412529199815,-140.471514825377,-140.50996834629,-143.663802971933,-133.479530957261,-141.74631274519,-143.621957010523,-139.951176919799,-133.009897055205,-142.517159509537,-145.645567774772,-139.075425083987,-125.927288715925,-147.77403891661,-128.62701624405,-103.991019901044,-134.296906621356,-139.511862739045,-144.453459160367,-127.126423928877,-150.363247071839,-134.059977771628,-129.934028459626,-136.271826399304,-141.722233567313,-153.646170679701,-141.098235015856,-144.095798320742,-124.958524192414,-148.818939848084,-138.07842287613,-130.408125208449,-134.15848027039,-141.758578943002,-129.901996678716,-134.090612399236
-136.150128601437,-146.133225271643,-131.732773883497,-138.350430474257,-141.004696139958,-122.891730413192,-124.268734301948,-124.035149709976,-130.470470714575,-137.875652150063,-138.848883201119,-124.222907587966,-135.203574970081,-133.574938163624,-123.09889697788,-130.476747448846,-116.864980214111,-130.763229895757,-130.507374509417,-126.361954745165,-126.842293888028,-131.131023621896,-124.155051720624,-134.39830938677,-96.2122966800734,-135.056878399891,-126.720683266966,-123.861976601314,-130.447169801408,-132.710976452432,-133.069085161498,-135.229731625557,-121.620852013167,-135.389631772275,-130.667130214297,-128.400495096447,-126.650300913666,-138.630657706307,-138.094520687696,-125.110416576549,-125.404169473057,-141.761963855942,-118.746363370636,-100.157416438722,-131.930604663401,-131.866690368195,-134.255276171039,-117.34035692712,-148.203824986581,-132.741210019703,-124.655467996575,-134.682847381585,-135.451671811531,-137.403076635268,-132.00741156079,-133.11436079629,-122.534323905586,-141.210466884602,-129.650099541943,-121.870152714729,-126.221986491705,-141.602908114916,-121.545385775044,-123.056322867772
-118.127518414485,-124.422333272357,-114.433570080916,-119.063885692552,-127.232298130615,-106.159644379727,-107.262621625419,-108.488110823254,-117.687274595471,-121.597208696539,-125.468689877891,-105.347881222717,-114.269084534456,-115.850065163851,-102.877871322105,-110.77733069632,-92.8922639800591,-112.930868534251,-112.318480386408,-105.226378201861,-107.976316088943,-110.989046292073,-107.955632815701,-118.730660050784,-80.0733327322731,-114.190003576018,-105.542250586849,-102.169013962697,-113.141124507084,-109.046158723604,-113.28703221044,-109.702922416014,-102.893241048251,-112.779376740214,-107.616294336896,-104.900203517582,-111.478676998734,-119.471027333706,-115.804518429411,-105.225002424343,-114.805007686237,-119.607584759057,-97.2674267635111,-85.162332846935,-120.016136031796,-114.150739127412,-113.119638581524,-94.9473916706323,-123.109634439628,-119.124341893583,-107.131434422636,-121.229229226959,-115.050755656602,-109.981372119536,-113.320675893899,-110.235049009281,-103.940724152265,-120.803810302963,-110.669956360818,-106.828559106035,-112.309732276248,-127.314714159882,-100.749868879862,-106.205192692905
-93.4270545819975,-103.94357578476,-94.5474654799939,-100.141851974495,-108.374422620012,-88.7248818491964,-88.6582522334272,-92.8919035141948,-103.655725152712,-102.598383408766,-110.686232929017,-86.2332689975576,-91.4177075804204,-99.5721338567365,-85.9395776917183,-87.783943648969,-75.4498581560103,-90.6595932698891,-97.1875477590586,-87.9098446814994,-86.0992601652453,-86.8139870051332,-88.4435756872608,-99.5242493692467,-65.4517845325369,-91.6100848143712,-84.9905148921463,-77.9856766425894,-93.9924608771508,-84.6443690617613,-92.0391666334369,-83.4959139891195,-85.6574290989069,-88.5118842519812,-88.2509442182075,-85.3348995440363,-91.0851262742974,-94.7721495228206,-92.9220993149451,-84.3798591205626,-94.6974490857847,-94.9847826325767,-77.4003327389464,-69.5323714507561,-98.8647998010454,-94.5774193268938,-96.4389656203071,-78.423970540047,-94.654687962469,-98.5428693667672,-86.8179448961565,-106.576655886458,-90.8372016681291,-91.5512528746321,-93.8783877342981,-88.0755973230719,-81.6281255268755,-99.7284878660408,-94.5024761127165,-94.6542640408457,-95.1397726116449,-108.629703893384,-85.5910239786535,-93.571588460561
-86.9544429450538,-101.899510780577,-90.9386941299647,-96.4424505606849,-98.9497638776999,-80.7716653276285,-85.8953641411783,-94.1081841644965,-94.9962452459196,-97.3788815360535,-104.170932326566,-85.945507301088,-85.7043488676816,-93.8332591244196,-88.7846789167044,-82.0563044044491,-78.3924659017281,-85.6304599399014,-93.2207511655234,-88.7038538164472,-80.623258941959,-81.8926820832998,-82.1002370892323,-90.3055130982966,-67.6846914830784,-83.6739353388967,-80.26942822584,-74.7199901545914,-89.9360292906385,-81.918508658596,-86.9929244926815,-75.9678751353844,-82.0922935467635,-83.9250981407922,-82.3393998340455,-84.6725450851958,-85.4947382432876,-86.1006381694044,-88.8605706444773,-78.4814043497593,-84.2257958827279,-86.3765653950953,-76.2626052599624,-70.9103597809728,-87.8461502627838,-91.9940562674181,-100.833475771649,-83.9737235258581,-91.7058322012772,-92.4696263207586,-83.8983405876395,-104.744494059143,-81.007047386351,-96.9970379762158,-87.3388764610899,-82.0177909245242,-77.5719029926852,-91.515736656769,-91.3914783001731,-93.4286999361903,-88.4562761816499,-104.63886208076,-89.9098619935058,-92.3307601491573
-89.661725412863,-101.386470631822,-91.5932023795105,-92.9461036806921,-92.4138484186826,-77.2714755565605,-88.2465958564736,-97.0425627643328,-84.299134042858,-97.6977092546526,-98.4352180691602,-89.8999509280039,-86.4967792863039,-89.7659346335463,-95.0020000884316,-83.0013350940722,-84.619817788529,-89.6564783542813,-88.0593956125014,-91.7229011414852,-83.7825021025491,-87.208929202687,-77.9366761603905,-84.3929130643626,-74.5785891502461,-80.4330496938166,-78.1067056746678,-82.3187476882704,-88.1027551600904,-87.2053264847755,-88.0680470408051,-74.5150581855853,-81.3539665678911,-85.0325627289427,-76.4519720829255,-84.1188620084683,-88.7555723841489,-83.4942832538482,-90.7281926242742,-81.105255938967,-80.4373914834399,-84.1697287239053,-79.9208778043177,-77.7221570618515,-84.8260774248352,-93.8419099129302,-106.626354264804,-91.7653254531863,-95.8349474199513,-89.8660605954325,-86.4269269267805,-101.300142888759,-78.200544334679,-103.201013633242,-84.7260394932935,-80.8450954974546,-80.2137811455369,-86.2246738295541,-83.9355101930987,-85.970682960571,-84.8187144001985,-105.580396979949,-92.3041256382463,-88.3741889246276
-73.0557306738766,-81.4594852836653,-73.4253614928768,-72.4769928210242,-72.621736209487,-63.5729915177969,-72.1812543527739,-78.6687362669868,-64.1289227845034,-82.875163573707,-80.7715326965043,-74.3732200319917,-72.6945967749651,-74.577409853041,-78.0040915542818,-67.2158715728144,-71.2397458214516,-78.5883258131604,-70.7549016416523,-76.3710157719842,-71.0562771475539,-74.6269156892229,-62.1609314024261,-69.6299284967316,-62.2186509596372,-63.3326102815561,-55.5577226761238,-75.1870225927733,-67.2000145759846,-73.9571262632494,-73.9887764744035,-58.4986786003536,-63.3820810159529,-67.9440133157914,-59.9180249259186,-62.5184070148714,-77.0271497457069,-64.9359614633491,-74.4331184743145,-69.7446952138629,-64.5914674235958,-70.6755974818809,-65.6133371448456,-68.0372423372967,-69.2810840702087,-75.4342504383435,-86.9958208446705,-76.3893314776252,-75.4964792568324,-66.9360337456417,-69.4679751617358,-78.8590632860326,-62.9530105758791,-84.2164907575274,-70.2577240506554,-66.0817892706935,-65.425235201251,-69.1242734631832,-59.0495725793102,-60.0999407627363,-68.7844645394335,-92.170313767047,-71.5952548570343,-68.9026152924682
-46.4114963838906,-59.7834181526972,-48.4134317180113,-50.3644618179683,-51.9826194781822,-46.442126254649,-48.7505077326407,-54.3762450998283,-49.045780247541,-60.6975315484575,-62.2328472374653,-50.1346153139066,-54.411209805114,-57.18625833273,-49.2739976241851,-48.2565647861173,-49.8048555260819,-57.9165210495693,-54.4624714385597,-57.1022057619596,-50.8315146386081,-49.2345075095199,-48.9627172955399,-55.0436231661079,-42.3093452832204,-43.4515571831667,-29.1088579009386,-58.6146467675894,-44.493339078519,-52.6328103479596,-54.8970452043157,-38.0494868184181,-39.3296139035938,-46.9683846678022,-46.0131847021881,-39.4230738057877,-56.1182577208307,-43.290264890775,-50.6309727019552,-51.115441527129,-44.8921817683718,-53.4315694275411,-46.2241450038511,-51.586540695893,-48.3695465126047,-50.922022528278,-59.1322874820974,-54.8490277989227,-49.1381453349445,-40.0636761996064,-47.8552736493502,-55.7797241444963,-42.698543932889,-57.5025136233689,-56.7826148667704,-52.0604124322088,-41.6304580425076,-50.4547108219642,-35.5160401158195,-38.0774871811834,-52.3684130354956,-74.85437588173,-46.996656181531,-51.0248152561065
-35.2677475419845,-53.9868777242036,-37.1886724898173,-41.6970508034248,-47.2653249742095,-39.5881881878694,-41.1639912575987,-46.4534514268883,-47.8200006543873,-48.3481951558667,-53.4418556821327,-37.2366913610515,-46.1111341522448,-46.7726687054602,-35.5209759438106,-44.7756958859218,-39.6738708982687,-44.1386118109372,-48.8540963294362,-49.8976523447879,-42.883311445658,-32.7213980055732,-46.2183237683634,-46.8038241839623,-37.9021193936515,-36.124358237646,-25.4750661657959,-48.8862544299726,-42.3064037354609,-42.6693645222175,-47.5643125877803,-28.6229245199326,-27.3403896520826,-40.7852704514128,-41.6938489130792,-34.5551398881021,-45.1437742274018,-37.6817116112058,-40.0138054105538,-42.1428592065775,-38.0922638605681,-44.4119414892165,-40.8881610957908,-43.6138338982366,-39.4416950132361,-42.7893771574324,-49.0987383169235,-48.9984631844195,-42.0326881220838,-30.610536683207,-43.6837013559106,-50.2698687498282,-33.3157396921251,-46.9060121504897,-54.8430245302067,-52.7717083907684,-29.1929911226578,-41.2036613871888,-27.2274677462649,-34.4346541129297,-48.1056974848662,-65.9129698198676,-38.8998638149489,-47.6046181056747
-35.6226867139854,-51.4685404266099,-34.1938415151567,-38.328783046668,-47.4185074376736,-39.2873787244446,-42.4860345389565,-45.3185365352203,-45.370100485387,-43.4988130615567,-43.90006861801,-33.814913426236,-39.5322688792775,-38.6448051573491,-35.1304811714088,-44.7441724204557,-37.1497980378788,-36.6375903042689,-46.8520914187158,-44.1675904267529,-39.3197594980803,-27.2423295519412,-41.2472501666026,-37.4009476885158,-42.0402546314211,-33.2794620867704,-34.5050821165634,-44.524838509274,-47.2985918694033,-37.656836159628,-43.9657533777975,-25.6292476730666,-21.0828162923796,-38.2035293406785,-37.1173779247467,-34.7153361008801,-41.8347441150811,-38.8103893551374,-38.9650393122656,-37.2192260847244,-36.8158445408742,-39.4960277991362,-38.5038217973604,-36.9179261571605,-35.2004883956817,-42.7117320044831,-48.5741350739526,-45.908137183239,-41.1818604289142,-27.1727519085005,-43.1981699580062,-48.6902054638175,-31.575445359826,-44.0398761944341,-48.7439442351116,-49.5409628534527,-27.7061367727451,-35.8987091801887,-23.9597817513146,-32.8347534626941,-42.68109439617,-57.3100767982177,-37.7042232437097,-45.8518206790135
-30.7941276487467,-41.689371082392,-26.3191489881427,-31.4996049631128,-37.2221541110356,-34.780577522204,-33.8849715792222,-34.8510070127408,-31.1072962426661,-36.4448368356047,-27.7505611345105,-29.9512957944144,-27.335148456854,-31.3370199380357,-31.4156958571601,-36.2520721885146,-32.1817579655528,-30.0068644573084,-43.7035987963528,-33.0381362097797,-27.9107188753696,-23.9685848332716,-31.9976432549512,-28.3513458090146,-38.8261197052203,-24.9180058443831,-34.2754882068132,-37.8882614889158,-41.4170380582218,-29.0728114062633,-33.8751135232831,-22.7134128235053,-12.089413922558,-29.2753453289807,-28.1856058029082,-26.8011568891447,-36.5138298496761,-33.1804125420104,-35.011260966577,-27.984079827079,-29.731687077076,-31.3810773194875,-26.6332721126226,-24.4663570791307,-24.1844854795256,-37.3379692049043,-41.8517615975575,-32.6913506459038,-31.0317429406923,-18.4245363790244,-29.69980080919,-38.8490827914296,-27.5556094703249,-32.2697215476247,-30.8362028183114,-31.7756777601603,-27.368035598389,-31.7415702875004,-16.8395196414389,-24.4109030559239,-28.1170902940339,-45.7604478425392,-33.2099131658898,-37.8733919311371
-26.6958396919315,-39.3584951101674,-20.0563065197603,-29.3247037298187,-27.4397725862993,-30.2713468580616,-23.7777270078867,-26.0644833828965,-20.5518527346881,-32.7428925530775,-20.4250873619145,-30.4170903327671,-22.0726752426561,-32.147870563109,-28.2503713715671,-30.8622502289698,-30.1733078245033,-29.3495532624502,-47.143090465867,-32.3030699705641,-21.6062810911164,-24.7050152525053,-33.0047488437693,-33.0261617484614,-33.9979480937905,-22.0472666545878,-31.2290083716502,-32.8899010527341,-36.8330214037245,-28.7181842685746,-28.8722701815611,-27.6159832839132,-13.1968818711245,-27.9578715575566,-26.5539590155226,-24.1354970933846,-36.7311028888439,-30.2169270104848,-30.935337029511,-24.2443306818625,-28.2491654777319,-27.0303217888129,-19.9029886596856,-20.9108111267089,-18.8372943854834,-34.9785622837857,-37.6651533388811,-27.3779352092247,-23.7851868720973,-18.5090701788864,-19.4800372482919,-36.1180365461785,-26.294625328632,-19.8036492396347,-21.9200464230914,-23.7215848082502,-31.9786030049194,-38.4234607317957,-16.5966248597879,-25.9261125083466,-24.9286944953741,-44.7293171950372,-35.911994527668,-36.9522624031534
-38.069678970181,-56.0400632637092,-28.0580174900437,-39.8520782318451,-34.7329464722,-39.2944909191893,-30.9845369247393,-35.3121040740293,-30.6433869873853,-43.8500329179741,-32.0270726781172,-42.9153497402491,-33.2137579061985,-42.5278752106272,-37.0881454943549,-39.1408094108331,-38.9686036390487,-39.8208686299128,-60.9800801263633,-49.4842997357738,-35.0810437456525,-35.7572642416658,-47.6635457699587,-50.8010252541644,-38.2907658826008,-36.153039284333,-39.7477783083991,-39.9649183318159,-48.6333916414749,-44.3743592211659,-40.20122643548,-44.7761068011573,-33.595027275709,-41.6412246299372,-40.0038510651576,-40.0323957136902,-50.0729060045008,-41.8278936393124,-36.8677543679779,-35.7062044146928,-42.1306647628361,-37.2134345170119,-30.5058955558276,-38.3052452512784,-33.2040928029937,-43.958170755357,-46.566839541843,-42.3692667936772,-33.2308465069911,-37.247746632093,-32.098706736851,-51.4810508130005,-38.5577910242212,-21.6539351407612,-35.7127592934151,-39.8703942654781,-46.9451585677354,-58.5055843463144,-32.2805649095844,-45.40327894907,-45.2295289650302,-59.6235408697126,-51.7383055811875,-53.3956156329498
-54.4955137504473,-73.249540329154,-41.6914003069704,-51.9617276937991,-48.0540091974232,-56.5303646944269,-45.1417068383122,-50.0976656971618,-48.4665304825334,-58.9214294407318,-46.0576091145887,-55.4055572630493,-45.8130909217147,-51.3362424537609,-47.1214351498331,-48.364387984401,-46.9843006344332,-49.8976784648166,-69.6251050069026,-62.8331782688196,-52.2824181582104,-48.7399918792,-57.2228230822355,-59.087066559422,-45.8460326678889,-50.8611466378982,-49.6275582293051,-54.7023759446218,-62.0735449816689,-56.8511793772934,-51.7575260149091,-57.6497375068825,-52.0508122680308,-51.4835667441902,-51.7441503462996,-56.3239131438449,-59.573819877549,-54.6436973121045,-47.8831065947135,-49.6934584187124,-52.9852926620528,-51.5074272751064,-43.2698199051101,-56.910208976025,-52.4144800191017,-53.0992662054451,-57.0504935828239,-56.3325892549541,-46.9926175877744,-52.6310470867223,-52.6116678817776,-65.3541740579352,-54.6382475338758,-26.6651440096362,-49.9999578178891,-56.6910039618955,-58.786692493122,-72.7492821496492,-46.0537365544439,-63.3702461510351,-63.8042680387999,-71.6195296785493,-63.5859386712109,-72.8637135649103
-55.4456036950718,-71.3567705571747,-46.6526085005017,-53.9920797820227,-50.1503830891853,-62.9593179558153,-47.0599995542652,-52.8580685922912,-52.6385798568583,-59.570479580819,-48.3813820918668,-54.8839680683723,-46.0637865222577,-51.3320779890824,-44.8118233197191,-45.0170025184324,-41.7015052666954,-46.7252942785297,-61.792572777723,-55.1681087984619,-50.46172037117,-53.3422401573839,-49.8393072230192,-48.5437450109402,-49.3496280211576,-47.7189469215055,-48.7615256918699,-61.4773907737273,-60.173659433107,-51.1508419576859,-48.2941812341531,-53.6870063333971,-50.1215170012083,-46.3728064595351,-45.7854459811912,-52.1009817320384,-51.2457325589996,-51.646302347572,-50.7695942999115,-50.3376837279711,-46.6340115852709,-51.9094013674814,-43.6938124913433,-56.3421117008862,-56.5954707518407,-53.8345056826186,-58.4474056491752,-55.1214622233216,-48.5544248939991,-44.855426608876,-57.2734895351921,-60.62365930592,-56.8214081390697,-21.5083341447412,-44.7422131761615,-54.3843360741031,-55.0030962804583,-66.1607341422808,-40.3992714188486,-64.4675344033421,-57.644807036583,-63.7466665023783,-59.3367232777874,-74.5096343317612
-41.3450914734289,-54.530470754306,-41.4504176486998,-46.6934924909587,-43.4638319443335,-51.0822004425934,-38.2963403972999,-45.6500670553184,-43.6097532296994,-48.2045754299382,-45.1987709076148,-45.4862359436562,-38.0270172850086,-44.1077206306517,-34.3073074753128,-33.7055171528443,-28.2548289306959,-33.0809381793266,-46.4705491161217,-36.338835954046,-34.7910566738697,-48.8836119015968,-33.5427167234528,-34.5586729912448,-46.6431643645797,-33.9418892995713,-42.0775698549621,-53.4225278815333,-47.2362524501765,-39.4227873941656,-38.6396525378015,-41.9136873615587,-37.5150142392697,-37.4508513808625,-31.1293477141078,-36.3560499434394,-35.4401020092942,-36.3678822981433,-42.3810176349017,-38.5213604937477,-34.0778322836787,-37.6164716040363,-33.85496977821,-44.7016579038821,-45.9042891792982,-49.3942131009691,-52.3051089066326,-48.4042372020958,-38.5603156430628,-27.0895328191629,-45.8371050081716,-44.248882291894,-44.092308115578,-13.3157668623452,-30.3199639935703,-40.1945198614187,-41.1148909688828,-45.6156166964963,-24.4264527665703,-53.8636186790869,-36.3759831007569,-41.950444294818,-45.4302678027501,-56.4965985201558
-27.9725717860495,-35.4712383125887,-29.0411623404375,-34.6772891389916,-34.7096035885293,-30.4771737050114,-26.0855095600778,-34.9874289992792,-33.9016121504262,-36.3069462218931,-41.0734103701086,-35.4645452005755,-28.5431072441913,-32.5413365959632,-25.000950212457,-23.1971415067051,-15.4401958265231,-18.1733181628332,-34.0284592991605,-22.2530842958797,-23.1596887626289,-36.4276810372073,-18.6864810641093,-27.4338119214315,-35.2250012970121,-24.6149914925459,-35.6882257812611,-36.1298081722718,-33.4551880765562,-33.3768445861809,-31.5336646304055,-32.3858349000931,-25.2525525518283,-31.4534120396806,-19.8885925491977,-26.3793252497198,-23.3076653790912,-22.3112004322446,-29.9793412698709,-21.7464840749859,-25.8517708915485,-21.4509796381941,-20.6819387917311,-34.2502455685699,-30.2355687078507,-41.1796651865854,-39.871557934416,-40.3367159968416,-24.4265785605544,-18.444383173212,-30.5020812156772,-27.8000672124257,-28.1336773069861,-8.77616842384026,-21.5623910932983,-25.1776798203868,-26.6887453687154,-24.4913070588644,-12.2273982823771,-41.4437679007642,-19.113651818782,-23.426753343922,-30.6344112783121,-35.5450373061539
-26.0262698261358,-25.5720408593221,-20.3671072070008,-27.9689345374057,-30.3413254570615,-21.2921666839128,-15.5378490001634,-28.8677661455876,-31.4789168654034,-30.1248091060899,-37.6319428063704,-31.1277869821586,-24.3030662052367,-25.9782399960367,-22.4513026743102,-20.6882886841811,-9.59795843114519,-11.6049006193317,-29.1170778959619,-18.8767404107259,-20.4349393468656,-25.0796767736655,-14.9061359578,-25.8335507967084,-23.9523758777599,-25.0455923809941,-33.1854745116828,-23.5299865998367,-28.2341358241436,-31.5643261190779,-27.7669746186406,-30.487082961277,-15.7225237029101,-27.4999640264392,-15.4791220354308,-27.2960986624291,-17.5848615823825,-20.3144117957566,-24.6676951631699,-11.0622086341461,-24.637727556452,-17.8152687735691,-15.5236834700557,-27.3959906890739,-23.6283375364228,-32.3469105945597,-27.5321622508023,-34.5387776714733,-15.3295142886185,-20.050008465248,-23.0275941425817,-19.2160591653611,-25.0175550368379,-10.946207733811,-23.8662775375111,-15.9448443398568,-20.1774407819356,-14.4205189859054,-8.13909279555418,-35.9013900146122,-14.962580496742,-21.0257531811926,-24.3535218271453,-30.8847564499424
-30.6807813541939,-29.1007674697768,-27.32476978599,-32.526025464724,-36.6662808038962,-31.9904794360312,-15.6242989972968,-33.8673432157412,-35.1899139557496,-31.2636760613399,-42.0231763034468,-35.0858711443721,-29.159976857555,-32.8989728317131,-26.0726830345078,-29.7405249861507,-12.3715430442079,-18.122141113002,-31.0135873587666,-22.583796467791,-21.6557342037195,-25.7120459480189,-24.4324344421587,-28.1780092781922,-23.4097454234506,-30.7473623747766,-35.3519727755725,-24.8635010558423,-34.2746297828212,-32.5617055117767,-29.6152205234332,-40.2646126635168,-14.139832094854,-28.6304838632438,-21.1933793288867,-35.1245775678246,-20.3272884776447,-29.6189639875846,-29.9665259855061,-16.3442245700273,-31.399783994423,-27.1706590602168,-23.8007796978841,-25.3661375366989,-33.2602203520688,-29.944740974422,-24.9203354040301,-39.4974428673543,-16.5520239383503,-24.0859453317438,-28.0499618921814,-22.4200623686588,-39.8965298865088,-22.2180119502163,-34.4933811839764,-16.3711104974607,-27.5529386740835,-19.6847007264408,-13.5427138008774,-40.7056092528005,-20.7884334495885,-31.5966114258004,-30.3709021774169,-42.7581587457272
-36.9441656149813,-40.1823688170542,-43.148732606387,-42.721568856483,-49.9574985296812,-49.1786890226123,-31.2481260129075,-43.9727779065923,-42.4037540242944,-38.9491661368745,-55.4593883304467,-46.315366151274,-40.5884481059748,-49.1252420257993,-34.445008505137,-44.6511640503684,-19.8674228331281,-32.8632908967729,-36.5126399267505,-29.9905622131112,-29.1531804616756,-36.7098813302771,-35.6123153442641,-36.3326325884423,-30.197330630884,-39.14335036344,-41.475364126472,-36.6702887441695,-46.0664733622268,-37.1082670288261,-38.7153403509505,-57.2521115786015,-25.9749695812894,-37.5714175022803,-37.2638383445955,-43.5991194502733,-33.0396987832658,-40.9388370177862,-39.204954242313,-33.8848820978072,-41.1698084159816,-37.8235745907004,-36.8110234713304,-32.4558349612974,-49.4161163175549,-37.4594009124996,-32.7997218601517,-50.2354758088565,-25.9240626009037,-31.2944700183027,-40.3321169741801,-34.3985952595818,-57.8865930561881,-35.4702175095549,-46.4962932349454,-24.8803306560751,-43.8498098385416,-33.4979975622388,-26.4960689767095,-51.615861933642,-28.231631849062,-42.3929033087915,-41.5792364838427,-53.5661014559985
-44.4698566287415,-45.9771232778947,-48.7241612347362,-48.0289269468329,-54.9435916869611,-53.6852458120015,-46.623004663381,-45.7861311363498,-47.5230242698887,-45.0261076475283,-63.8666961213827,-55.1904777115376,-49.1365480327353,-58.0309650079177,-42.4404503098984,-51.0567534362824,-25.7923520226626,-40.3182184745735,-41.7469683529238,-34.9286208453931,-40.1350506281076,-44.2781755410635,-34.911423922483,-45.2938771174256,-34.4870879855202,-45.2252217321833,-47.2530525519066,-44.2425865682314,-53.8333959889018,-37.8939708619285,-45.8278386625991,-64.6329662652442,-41.0098561002794,-42.9231934687742,-48.5253810227223,-44.1986761996344,-43.3756741468345,-43.2730539279329,-41.7933950542453,-44.4307504256616,-40.7800915286351,-38.7371552932618,-40.5498567652169,-43.1180031810674,-53.6834388198449,-44.396395396632,-38.9668691000935,-49.8929915172445,-34.3627210824302,-40.5941652907802,-46.9448186268213,-41.9189377711905,-59.8501259374131,-37.1448321697228,-50.9920818722436,-31.0096210617328,-51.8593359078761,-41.1476915442579,-33.0782718458446,-57.553810873298,-29.4508271117024,-44.7970275529375,-46.3692439735864,-48.3484932053451
-34.3830231863863,-28.4738304186495,-30.9904214547512,-31.6318635288222,-33.4573804979188,-32.7820073274269,-31.2370014350833,-26.431660723131,-32.2695620818274,-29.1136960234797,-46.3331428793091,-38.5465434733099,-35.7797450735523,-37.8647883778617,-31.6074590767046,-30.5746034761111,-15.1841575857742,-21.1556454992948,-30.7941068297106,-18.7460368781114,-28.8354718855015,-28.4731104388891,-13.3504875260371,-33.5552525451427,-22.54535655779,-28.3642744610909,-34.7224713410509,-26.4257114784385,-38.1892870775049,-19.1667013767019,-30.858433671911,-41.9958699509076,-30.8948955447093,-23.1334675479832,-30.9281655598821,-25.6648581541583,-25.5011416789717,-23.1979043881002,-24.0748751460607,-25.4664500996405,-17.4023964038818,-17.5857108439424,-20.9305344760194,-33.325822343848,-30.5315703316609,-28.0371806794411,-23.7798692130636,-25.7444145266504,-21.0635197796336,-29.4576552662068,-30.0744261670718,-25.5266425519901,-35.7931177234029,-16.2746234373976,-30.3041755456155,-16.6962515170856,-32.5848533121319,-25.4229454185025,-15.4261016824082,-40.3764583308017,-12.9054613675034,-29.5463784596573,-30.2543631867074,-22.0470226419714
4.55881167380762,12.6557759606559,2.61659656412181,7.74888565031995,8.04703855784045,5.87273548348239,15.205825155136,11.7132229671271,7.15952657906186,12.2290089913678,-3.89430611170161,4.70585988046037,2.22282883592564,8.94371211636754,4.63083697045809,14.2574636153587,17.0768971372409,17.2806583241844,4.16778939757193,19.8404453845537,11.4856269276754,9.8609476807177,23.5136429799139,6.07726521806214,7.85465172170458,13.4938393680968,0.778794640948936,13.0875531811026,3.90267359278027,18.555492949945,6.40601626231271,3.73583428347385,11.011911723321,16.6081867112103,11.4674610570837,7.76325389270781,17.4333211803069,16.2783857481672,13.051702240932,18.3430237280042,23.191528745602,23.0148292577335,18.8576438120749,2.56285478892206,11.5174478697476,11.7208235777944,12.2346373103201,14.2122478192238,18.8212530801625,11.3375123875434,7.98921043063711,12.1128520976953,4.84979250497935,20.982275111056,15.6761846690595,18.9082695454901,9.04844879336076,11.4540501066036,20.0759642989307,0.709578796473977,20.771832856351,4.522449724104,3.05135862531438,14.5334160786777
50.9575059887339,58.2898382886713,39.3801508249602,49.856316153535,47.809192466886,46.0336866503864,62.0709461766237,53.3721803323682,52.3403354698874,57.3413495701151,43.4742144649355,48.6928624023474,45.6005270324096,59.9882933928058,52.2908792242334,60.1952677289996,56.5341552452927,53.0740618422078,47.9336119586026,59.5919816841132,53.6536155990576,50.3344443252503,63.1767467285107,54.433783802167,42.2198099738087,55.2589219749023,42.7775344755375,49.2267133161523,50.4737016527202,60.8016298091802,48.0688009156346,46.646863590272,59.1040775348164,53.6649645686624,54.5434955538698,44.6512398183883,58.3118740820231,58.7919857648505,53.4485774276127,63.179549318989,67.6715137955229,64.6445806537219,62.5178436060898,42.7046423887558,52.1369711233013,53.9618121003306,53.0211562469258,54.7940871274832,64.4193635189874,60.8664233182892,46.7784330572095,52.5655775994698,46.0618578780904,62.1927081806318,61.3384775000875,59.544470824063,52.1816803975181,53.2178464174686,55.2938422644774,45.96313195364,57.9795914651874,47.3100528438502,36.7169196859489,48.7388317181821
100.053669386567,108.371086095969,89.1964721820623,97.9719198626526,95.6046520971015,95.6321054366957,107.495757438118,100.586964997525,103.538958338328,106.340965221429,98.2848531290081,95.446811727538,95.5240186057392,117.744513427086,108.426679869131,106.920463120476,102.755718267705,96.4113078252617,98.3832324123125,103.583728567187,95.5782592931548,96.5539167366544,112.596814626002,106.475382319492,82.578528407915,98.8580720989837,95.265395305077,90.1157448231332,101.66140939877,112.067378636726,99.334913337307,94.0560792651648,106.808491624617,98.2530211645484,104.369549488617,96.3362237225534,104.378976444,108.752323966909,100.695507560371,111.298570914068,120.088510920296,111.282571247338,114.254798314515,85.2764927127903,100.689843950233,101.815589505636,104.595465651406,104.181926614311,115.555273407677,116.526490208868,92.0622874338205,102.172724393924,96.8651777574844,116.368844774871,106.984495964349,108.281772110225,103.354780799934,105.77664463954,99.7363421973365,95.2913871902831,104.461100089104,102.482183455937,82.6548050005995,94.4496150959321
163.382217790144,170.594478544342,154.332787718731,164.566983318832,163.973667107103,159.588918822663,167.171276330258,158.297094775175,165.503630003645,170.791720765066,167.849171743641,159.178221377129,162.171622536752,187.49416879204,169.162679259598,165.220295538021,160.354583814713,157.544031073405,160.280928653219,164.56246697184,152.505374338427,160.082944846833,174.144522427346,165.410613212974,136.574915135015,159.674873083355,163.530308562892,154.655253155916,168.149779093882,175.208706913107,166.317277807731,160.462556724051,164.196977946643,162.511917296632,171.04052406744,164.816423446199,169.981856567314,171.436007196167,163.151675835285,170.252679987815,179.87903493938,172.734832690537,177.970275659808,140.497327435631,166.531330075902,162.948149684219,170.79858201901,167.446066261062,181.405021317634,185.603204341345,155.576339064744,165.990574311304,163.894682083293,184.102340643785,167.455143082018,171.45083923633,171.139555077005,173.495903761681,163.142571578929,156.624318781606,166.124207278152,170.683061118525,151.488350590937,161.629160742613
210.498282292586,216.741955669028,197.356744897512,214.680678281252,214.721343717961,201.849705444795,212.695905591421,197.896934706334,205.406509165331,217.633164520175,217.596694883145,207.597374232904,212.154264453251,232.07355972904,202.734206482723,207.646941726123,200.83486248934,201.7452796377,202.444685387593,212.284721831842,196.263228605862,208.873320870013,213.802067025036,203.876122481166,176.10261584107,206.828901373296,209.813708151092,207.499268179289,216.720286716191,217.298243761635,212.177851135184,207.818478750456,207.893970263252,209.76093311822,217.846176633411,208.478276466726,216.270979541302,216.081735336438,210.445197807055,208.681630489392,218.058936177013,217.537552660204,219.377624246786,184.731010311574,210.881260322586,205.382085216415,215.591428595807,212.257822419148,228.251669861178,233.409066314004,201.923584959446,207.856798409544,209.139359203581,225.46407293179,212.118179943634,216.672227524365,215.987956430768,218.84346155008,210.638306235816,201.776263762686,209.219658711182,215.975550957081,203.335386357931,213.329419415969
201.639703471788,212.925778466521,188.72781823947,206.638239228893,207.206157940483,190.475057075122,204.300596082975,189.80428317962,192.329088198866,206.933191478146,210.313353171266,199.989039486856,203.201064127543,217.389477108903,187.11434801779,199.836082939104,193.306284819631,195.336677160009,192.020811510452,205.309044356568,188.538538353964,200.799558621322,202.140681422485,193.485631263028,169.757671019217,199.294263309956,199.967079537975,202.503755255921,207.418020428934,208.376634485884,200.793394118045,195.184476189523,203.274846587841,203.976770404237,207.602714956358,196.013807868224,202.042983900621,211.330108835521,206.46142436918,197.956073616539,210.844257665904,208.977374893344,206.324599437165,184.309020458647,197.274106057949,196.283769369035,207.381849294045,208.041314910205,217.913742358214,222.006903789235,192.150068771854,196.689028656183,197.359713454001,211.930873640989,202.257992471698,207.906230239685,201.753339824748,210.235336521445,205.08357645189,197.822874419667,200.114446324551,206.581219339801,198.690336516847,208.373090259976
161.646074345298,178.67265428642,153.937798467868,166.405687210257,166.905793488985,152.022945125013,164.643822136991,155.981872979716,152.788349506732,164.900840681291,170.911105744502,157.797304427998,160.803620324129,172.000524828673,150.70998277018,162.388788950121,157.795899665747,158.234395642316,155.631078015116,161.547276286693,151.295686267398,156.782140384191,163.000781155726,156.919109083246,137.565690128826,159.126582786167,161.937247740945,163.575641407585,165.190463129943,170.657866943996,160.072307185416,152.732373868079,164.037339099629,169.266887578782,166.223842481116,158.045634403634,158.272578913338,175.663157828288,169.76510028712,165.557136545212,177.32904067528,168.053026892356,164.275144183055,152.489295760577,155.8357006672,158.910752213382,172.718445234631,175.322403107716,174.889947303407,179.579406515319,153.216047588176,159.363721889114,158.482885873904,174.818312966821,162.661508129572,166.89466778678,159.683667123897,176.781809157702,168.949659225727,164.934296343892,161.961884060308,169.831259905884,160.372039022513,166.845264274715
146.507226945103,161.321408380107,137.868836506939,151.195836262285,148.469711692402,137.096026707892,146.921101960915,142.900905285263,137.00762891133,146.932372846649,153.334883357069,135.386553174978,145.133128697326,150.171865675165,137.157071804626,142.724310667711,140.865226769498,136.236875652947,144.924743412387,136.53449745687,135.371706416975,135.317056756918,143.320045687331,141.782139874831,122.693543170805,140.392302471515,145.062048121299,147.36087442387,147.041317085162,150.071793130096,145.144401504691,137.194945102722,138.005582854333,151.756912612841,147.194617745406,143.601299614106,142.866427156484,153.609318568768,149.370189977608,153.656438506595,156.37531196463,146.617931713207,145.157886940244,134.71771886211,140.205232288197,141.078756679487,158.618175395428,159.247511182715,152.069656145019,161.692289688749,139.963025204707,142.992826546202,145.603662599809,160.029687958328,146.436740434151,145.724423371432,142.004574897836,163.885221482081,151.499755218721,150.27965886653,144.17687227244,156.390378535873,137.261631164494,144.359583587202
158.938056771137,167.536768998699,145.257173285556,165.587774440835,157.79757263562,151.210246183131,155.081330875447,154.271418226275,149.481011874266,157.975432350372,162.221078932,143.369002296436,159.930224832796,158.782425674304,147.321662436993,146.68583826481,148.198437107357,141.100587197913,160.26134720399,141.235404316655,142.756479419347,145.628475745848,150.233057248747,154.859370973245,131.013963967695,148.77442284333,151.330154260464,156.314577893205,158.911753400068,153.659307847582,157.551411263207,150.05189183075,141.618976994198,156.35006113238,157.893444952444,154.409360555556,156.299615844109,154.919501385689,155.063265279573,158.727064748426,156.509636823193,155.063025392598,155.635586566087,141.647179941834,151.224993988497,147.006424727588,164.171376003065,166.470379560282,153.801972272503,168.745606198186,155.107588039588,148.922754559412,157.945771151369,167.583693116311,157.058288983188,152.931688822483,151.64746299828,169.728516189563,157.612730299324,159.471116256998,156.077441346066,168.049720199558,138.624427414182,153.834918401018
159.015916883989,166.966158105479,145.479466567807,169.907471602766,160.005584202409,157.470566381009,155.527890229186,154.977625200952,153.416789074579,162.283699131885,161.172934503187,148.060348956645,163.104084265369,162.097951473828,148.678613849668,144.596702856885,145.617672531956,145.056663970476,161.39723849399,141.59617905952,137.685999612742,150.000202185736,152.78321050199,162.393207081314,135.503644555707,149.936469484957,148.901195719773,153.475931265305,161.787567724767,153.350743424337,156.553677213335,152.824043199116,148.342071921381,155.397837356093,162.29089540172,157.023160549214,158.604689317381,153.322123009011,155.713873869617,154.244081134622,153.597835882992,159.363575044899,158.222765127902,143.249965577736,151.336330463259,146.224444899851,157.109150274625,166.147546577633,146.153673272587,162.530542944636,157.815088043324,146.679336206293,158.304433730943,167.049003733507,159.300517879963,155.238562720617,154.874431307696,164.514110117964,157.292030426512,160.064308657851,165.774275511571,166.93119888233,139.30853435419,158.553811072104
135.120775061733,147.630807729541,125.75132171044,148.372643054192,141.740426397951,137.002049840523,136.660177057745,131.79916878188,132.173609797179,142.539436035385,138.847977323636,130.212892365731,139.343884738043,141.499940050362,128.206489170579,124.960265815885,119.858955002276,128.527148504289,136.117506011573,122.764989185139,112.52778096879,132.628766856697,134.633865568002,144.388962138951,120.825627537634,131.946355394852,128.69108545952,131.517926739761,138.785943438537,137.367698831105,131.024311605534,131.601565267126,135.875706713882,135.504420305014,139.582993296957,138.637043629652,136.015480816631,135.160014294993,134.229349462428,135.042528366888,132.975103754486,138.916891252447,134.204154714429,124.47460610179,128.861407045165,129.187631901537,132.765892193228,144.489274998956,121.267006597915,134.433846435266,132.502035568105,128.423134123916,138.131806687846,144.955541904947,141.82889298619,136.728439782787,135.872235251134,141.233070353613,140.164890307769,138.856035517481,149.152513719741,139.721983560592,124.666568011418,136.029754201422
106.00588875221,121.486164257344,101.689589256979,117.802469446078,117.040466565802,106.470649268294,110.695694301885,102.217731095711,102.636013782736,110.447160693197,110.427648586442,102.516460980693,106.617916662289,108.297368089154,98.7324113591329,100.144104200639,87.9788922420597,99.6562476315102,106.352941678117,96.2160238035166,87.0521682599011,106.533797631992,107.679311396717,112.403506469592,95.1842517507597,106.672179196084,105.486093305115,108.742717640445,105.220537680139,113.499589588287,102.135572153247,102.404498889444,107.806967676216,107.042866271237,103.676717677748,113.181225245974,103.481153595312,109.362832975637,103.447886736592,108.318741317006,103.819239529705,106.506292114791,101.661824089355,96.9637938915168,102.447040599781,106.564945494086,107.571571611637,114.466471119561,96.7638096909384,102.044382501643,100.967896846396,105.299809284833,114.153744169666,111.089027137931,119.053233189604,109.78064609262,108.507261143893,113.798643215476,115.610856684361,110.048479832793,114.360008169886,106.549436791046,98.1347800111874,100.617962868884
73.8611870378508,87.5905496410469,74.1725355141255,83.7868516144425,88.1597996435699,76.769534882654,79.8305594096405,71.4124748153881,73.3380473512922,74.5469433969054,74.9865007042236,72.9214059508444,73.4930830220413,69.1248916960454,64.2177687514479,71.466511620677,54.2646837638992,65.2587919597798,78.2911254486151,64.0394221825723,60.357536906282,74.944968057296,78.0492562054944,78.2701712756664,66.3774110253668,73.4517480166367,78.1199272782656,82.73506128244,68.7186654983797,78.9535508703036,72.3867394569237,71.015681201511,72.012278741779,76.7542415896981,69.4008272609124,84.4835885306117,66.7583246922788,78.077634235518,71.1422563490451,72.90291676262,69.9548249247636,70.8907162986825,72.194667769317,64.3337448186041,76.7562500984305,75.9171317658112,77.918342231304,78.8489324778163,69.8395013430279,66.2078964743845,72.2548126817951,76.3416759561556,86.1954556321526,73.6142139501056,89.8187672312008,77.8468819432671,78.7733002773998,82.7508371477907,81.56235623771,77.7425832597161,79.3844178704229,74.9748135435141,62.0338669551004,64.0860704992917
24.1608538534985,33.4333611918862,24.4647690162492,33.5255358832787,40.3486829494484,34.021436108362,31.9243789085332,25.4979211182702,30.7924218076064,28.215420139948,21.6970001272098,27.9093015897834,27.8794159200527,16.8553142786239,16.0665177819396,25.4709679694607,6.642163680422,17.4207872041055,35.5453456802072,17.2837331884044,13.7061420103901,28.8318649055789,32.4792105254217,33.9991203514331,28.0833065300848,23.7624764703085,30.7753645998465,36.5316182308596,21.6725039635408,25.1037809766676,24.4406803662219,24.1734774428824,25.4353697992908,34.2046000731971,29.1505763640791,40.5015378835613,17.9729842894131,31.2524381327641,26.0934178267013,22.6779040134614,20.3481788648695,20.6083773970977,29.8366004814747,20.1405520183629,34.6459108168876,27.6621683304128,28.0286038314858,27.0643750610557,22.4687831702804,13.7369299387709,27.8279719614948,31.8283996636596,39.6264182776371,27.0216376393268,40.3381996877564,29.8550622742664,29.2970768366883,33.7306578583979,27.427778474551,29.4873753020629,41.0120474379192,28.1533005202139,13.6739215058328,17.9026495273189
-42.0885320367186,-35.624150124489,-44.186882485455,-33.6244199831293,-28.4240959790398,-29.0682281243623,-33.796609913166,-36.4015250317808,-30.4593752386247,-30.6570238663356,-44.071624434554,-37.2864015931865,-35.5539576737788,-47.0805381731484,-44.3552491733023,-38.1843920097166,-52.433835653034,-44.6692476259319,-24.7204410815741,-43.5531688981642,-49.4159652176447,-30.5612824364153,-33.4638477421013,-27.6837252987533,-23.9281050949053,-37.33252654139,-32.541158240925,-27.9726070769113,-34.8645815080591,-40.5339484163119,-40.8025469890221,-40.3218711453209,-33.6284814248347,-27.975447594644,-26.0452343695692,-19.9970796167812,-42.0477779442909,-32.5294852857669,-34.5898447433144,-41.2108991734603,-44.7732421620387,-45.240991013356,-35.0714367345979,-31.928913231564,-28.623328738476,-33.3034333937597,-36.4903070599947,-37.7494810259673,-41.0427433711701,-54.8583246812572,-38.8511789178171,-28.5374058965718,-25.4693365086605,-34.3521325800477,-23.7609852570202,-32.0083903857586,-43.9265170496425,-32.4699788042808,-42.0486632046831,-35.1325117372189,-16.0772498536943,-37.8431402348664,-47.0281235060862,-41.893250900775
-103.401198239427,-95.9949544196293,-102.269127363301,-96.3483529391574,-93.7040320832827,-92.6036261414605,-95.873724931062,-93.7999293377918,-91.8248266005273,-88.6863126650168,-105.960487659545,-100.098971874399,-98.4364498869951,-105.568944490652,-100.572906601827,-97.7233608360397,-105.672799342469,-102.869627649395,-82.8086656807683,-102.68016490991,-102.355252612509,-86.4629095814672,-96.0907703214662,-89.5280045318245,-74.5149426917876,-93.6448641138262,-88.0960877928427,-90.1741642630436,-86.4121788090452,-96.7500371473053,-99.309166102067,-98.8724873616646,-91.5645997737349,-92.6921715618592,-83.3786818583723,-79.9672099561218,-96.7926330411121,-94.8651938580314,-92.5241404289946,-100.851810340199,-104.567045017009,-103.996540630136,-97.9135839881874,-79.9952335006266,-92.0698892875828,-90.1289758504068,-91.6972477099748,-99.3845961648469,-95.4491133952535,-120.78277795812,-104.472597632609,-89.9277042741476,-89.4399113015753,-98.0921092831093,-80.999680743233,-89.6679568701497,-110.126398812487,-92.827592222761,-104.564316775183,-94.7125991580604,-83.2020703561938,-98.2647337367974,-108.753806350862,-100.053754059837
-141.268687545168,-131.085941658422,-132.798930318686,-134.82345339945,-131.171889929825,-135.357036792142,-136.452420735976,-129.689768367871,-133.450737665923,-131.907130890071,-149.782103108211,-139.420882545998,-138.881603600856,-145.709518245649,-137.76052496376,-133.846725319536,-142.596771136043,-140.940099752598,-122.634122139308,-142.169193197388,-131.073713904632,-124.054338934949,-132.506087430264,-129.116611249502,-104.771511274004,-132.36814962225,-122.624812838859,-132.72719246779,-123.860294292028,-131.681615193288,-134.152467990331,-130.38348554863,-134.032185684798,-136.384600433481,-125.969784904016,-123.289074400089,-133.198128167405,-134.758091448654,-131.938152847686,-136.048388619537,-141.93557820893,-138.532100162322,-130.604759258159,-115.007534503538,-135.180725684819,-131.44856706212,-124.786276819512,-144.898219729708,-128.371523249201,-163.65234210746,-144.944538151871,-135.103916319725,-133.370079238294,-143.603262958085,-119.461053685934,-131.927999569203,-144.52214621903,-130.614025622716,-145.49268819331,-133.032763479494,-131.666213486962,-132.580861285481,-152.404930844228,-140.546893212455
-156.914342373633,-145.45612570589,-145.750215819311,-150.090432548693,-144.821709470912,-157.199250665861,-158.267404311933,-147.042525786243,-153.44970800812,-156.489763414619,-170.255544289627,-157.677674361808,-153.789627529572,-168.339735702142,-155.467678420207,-148.764116323038,-162.254315597677,-160.980193607476,-144.814986986849,-157.873690049972,-144.734837175227,-142.608767595586,-147.875436496967,-148.125461606372,-117.168024662166,-152.918164902715,-140.789379403964,-153.399276568848,-148.44209769618,-151.109101556296,-150.29644158977,-141.237888262646,-159.713018643637,-156.891517078423,-152.610419081357,-146.965194229117,-154.049616767806,-152.82524934272,-153.413152413224,-149.003020679019,-160.205187508534,-152.738567377088,-140.771760644359,-135.837717093333,-156.08525331855,-157.009266561415,-142.476369718003,-166.522279991072,-148.100705926712,-178.112756261046,-158.378445614814,-159.272715501156,-154.179783428972,-165.503415509961,-139.658511875943,-157.693252510163,-158.915660886393,-149.969907114637,-168.52910339047,-155.589986790187,-151.22601918209,-145.468627994747,-169.586166623976,-162.495198235407
-157.689193529474,-149.893712645259,-149.863879719589,-150.307554773409,-147.083287932344,-161.282360246204,-162.710544255314,-152.970797644707,-155.023513459672,-159.237425614349,-169.770682074659,-159.158038453311,-150.71795225659,-171.916882781262,-154.255152288228,-148.9854457667,-163.399597484657,-165.443147923181,-149.292744956039,-155.632957407512,-148.148136379744,-144.585554738278,-150.664258845239,-153.010386115298,-121.526792451093,-156.262561441239,-145.222639211059,-155.561473716885,-153.803494425098,-156.952344561326,-152.727570236407,-142.310242643837,-164.375818160755,-160.011640181071,-161.713918189948,-151.593954450069,-159.760131135806,-157.962786398849,-155.961745055787,-150.077473729563,-165.601404183605,-151.251274835444,-145.052799543045,-142.543136061608,-156.325910266081,-163.7481704529,-148.813531964318,-161.438935437142,-155.644366572032,-170.982194910518,-155.030342552781,-161.993296210347,-156.238296469443,-166.870311585869,-141.261099967621,-160.932274330407,-165.757074235798,-153.979137956796,-174.105477093736,-165.819389461767,-151.967768641869,-144.101134666223,-162.978504914544,-166.202046729672
-143.175370583171,-144.861145000487,-140.866449823906,-137.116735819396,-134.95713055683,-146.765754717116,-147.229035533658,-144.600252522137,-140.983407551844,-141.317451525683,-153.130658574898,-142.902545893527,-136.279919615226,-154.268745946293,-133.434513376306,-133.488431138332,-147.970038562986,-149.709195881366,-133.928614818275,-142.708501048825,-135.008390806854,-133.064065842938,-137.671614840451,-138.921157497048,-115.715571673487,-140.127422482887,-133.755594186103,-142.663158568704,-133.575216252441,-143.941866387627,-137.692460889274,-131.805858704347,-145.767477768125,-146.736862898523,-148.9686787728,-138.312111740557,-145.342794607755,-147.687894251969,-137.680700832297,-138.821760983322,-154.220827132859,-134.605618828449,-137.0072644539,-131.058944738742,-137.031188265896,-148.277281416615,-138.237902973165,-139.669755456854,-143.046678039455,-151.394838605337,-144.091837920426,-144.087840422407,-143.854362782368,-149.162260424097,-125.741228097084,-140.751268901498,-158.035873829261,-139.430324157985,-159.481768512997,-156.705834765505,-142.698973084212,-129.105353101605,-140.130037432138,-149.984910531897
-120.014386545681,-130.291699179385,-123.640351266701,-118.314526694536,-111.413664420738,-126.814153308623,-128.716715941462,-124.938011381417,-125.360966757218,-119.879069038881,-130.081500989509,-122.499420088521,-120.489742158903,-131.283687009929,-110.925856545722,-111.855658988986,-128.302101183041,-123.755219661575,-112.666134010459,-129.459591724705,-114.782504427924,-120.021420341246,-119.047796890576,-117.097035127336,-102.825912173217,-116.398158026661,-117.397321454694,-126.959962252654,-107.418144034563,-124.123112933351,-115.644611822371,-116.224200532687,-124.073865452505,-128.732069822159,-128.250119175948,-117.96998923424,-124.099836780579,-127.234689538205,-115.844193046995,-121.274468304574,-131.650200372698,-115.529802284483,-117.231715031298,-109.62090246606,-114.611326637425,-125.843331202026,-119.044338338648,-121.939033347115,-121.117445858707,-133.112031955096,-131.55030811724,-120.948544489337,-127.887316017116,-126.240745775265,-107.38532571092,-118.295475150993,-139.575268724436,-120.476321575475,-138.875500576189,-135.332838945944,-130.304417213614,-111.392202980686,-118.98605405853,-128.270016058363
