68.1466516441361,72.1339557296973,67.0592050753467,71.9889628538587,83.2259107313492,59.8095612834173,68.0016587682975,76.1212598152584,72.1339557296973,74.0913595535182,83.4434000451071,56.5472215770491,68.6541267095712,90.33056164744,58.5046254008701,60.6795185384489,54.0098462498738,55.024796380744,56.3297322632912,51.5449673606178,47.8476490267339,49.4425706609583,45.7452523270744,39.5830551039344,53.1398889948423,39.8730408556116,25.9537247751072,54.5173213153089,29.2885609193947,86.0532718102017,44.3678200066078,9.93201199494325,15.804223466406,88.7356400132156,103.597409786671,8.55457967447666,5.36473640602774,19.9365204278058,90.7655402749558,16.529187845599,25.2287603959142,18.1241094798234,73.0039129847288,28.636092978121,28.2011143506053,68.2916445199747,73.2214022984867,64.3768368723328,81.6309890971248,72.4239414813745,64.8843119377679,71.1915020367465,60.462029224691,79.3111030837074,75.3237989981462,79.1661102078688,64.9568083756872,71.1915020367465,64.9568083756872,65.6817727548801,70.9740127229886,75.4687918739848,69.0166088991677,68.8716160233291
327.414107962146,346.913746390104,321.891716611295,346.008269188178,400.052294900343,287.564818640845,326.798616511898,365.760916876787,346.043789135072,355.766604252847,400.866787418836,271.722608967483,331.05450501536,433.328722793028,281.2279347715,292.490206786962,260.552778179585,265.948664900111,274.822924096631,248.277012577385,233.995661135486,234.966352054671,221.699950743641,198.985144909264,254.829929216357,199.346170554729,120.829945968543,262.598253598575,161.229959851033,411.800640647463,229.373367638233,66.9911943293516,82.0953307263345,413.871440204423,496.207118122424,64.3701170394034,40.4623145114866,114.027379985385,427.635567600166,100.03455775103,135.514116007529,102.092695239005,347.271858947304,154.364199582476,135.33606944486,327.522124346959,350.116251727538,310.03389793523,391.034499372116,346.984786283891,311.571898288784,341.716860737823,291.168239203033,379.519218096003,361.034529798916,379.701187462867,312.495863736222,342.514321554935,312.205877984545,315.210838797866,341.337346846845,362.737467817953,331.107056663635,330.709054527145
644.320852400408,682.994373738402,632.197757075938,681.802914841044,786.627952592538,566.498250991336,643.417922710595,718.426956703804,677.923992716447,697.872623788375,787.64759730593,533.931386648364,653.771769570314,848.490608067794,554.080475332669,579.503640689696,515.041959158519,529.059751475637,555.112236811456,489.642377071231,476.334154064298,452.004696399044,443.9473672368,425.356148564916,498.905104016511,424.411512936004,226.255833213057,516.417534493149,394.457898219533,798.790061121306,508.260226524465,207.036014915343,196.522261082928,763.932650119273,961.623906902887,222.719223456882,143.65912784418,299.926843853741,810.421772736098,277.790361730205,325.013767799353,264.783010449347,669.470883618896,367.587972411401,276.030478364282,644.628235429616,685.124612983062,614.88876703105,766.031913738008,680.818755208992,614.073874070852,672.935607654587,575.206081112686,743.093206483731,707.930664480362,744.81426717213,616.253096214801,675.559598032798,614.877120438466,620.062725074315,673.544947978181,714.718467710621,649.375948349685,650.084971995477
687.024293542429,726.568970424724,670.949549415059,729.204287688301,833.954641549902,604.681065239142,686.848556036692,759.343276219862,713.745550093237,736.000164571785,833.726185425252,565.716356629502,697.044019070289,890.003796851821,593.144673932295,627.743790869153,550.871766115045,575.922274622626,620.798752159084,521.466748345609,544.488018518689,457.810580199626,493.001711794951,529.801474268678,525.750572286457,531.164696238181,220.832952980298,545.492338440653,592.981023310261,806.176823068883,655.45691525975,399.744853017168,336.766993559352,679.880326429292,960.616198775834,473.178035111299,328.952039325214,515.100277221676,788.18107505999,476.153510675584,478.741792077111,451.81006827643,673.640428785622,540.370797864172,353.606179824997,693.429298974388,727.508851626926,670.570182564131,810.990546370344,724.821397132061,660.952298529363,722.173308402066,618.138902844655,787.933577886658,750.925475448124,789.00327260513,660.101845255028,723.491237064192,656.303062104686,662.64289069717,722.701139443428,764.146817181622,686.793727483918,691.929043141931
500.151380559266,523.423866584061,484.505436014682,533.143323820707,595.284729693147,440.027057952893,500.958094452369,538.221514956494,504.112101904219,521.308773022844,591.814447225977,406.829399638422,500.734712117691,618.232218635533,438.213941373986,473.3023454413,400.559651834883,435.357180901427,488.169267032043,376.963573731028,449.079230827791,303.293504889924,393.708843755027,489.44353318787,380.262976334599,505.074725951814,141.369755398589,391.210008252238,659.493559150604,476.974479225169,597.685213564368,555.019438436828,533.938764730249,252.300905525195,533.741124483586,682.907356442493,549.854020640541,701.597192365742,438.218606365254,571.136275307917,507.695778916442,618.908863779287,401.83758384495,619.927227990388,433.200719204801,523.533127637053,533.19867645504,513.850179687188,585.300181073622,529.611835826298,496.863293064157,536.590554241423,458.770692299188,572.708326054938,543.771674364859,568.126096505203,486.676908824179,530.675647487611,478.451640557772,487.226281583825,531.420566239161,557.321881949051,491.829121109985,502.289636195786
393.350047558585,406.59643394967,381.867878508793,420.56434952956,455.744728929257,346.611572033068,394.906334675137,411.370254889025,385.980075437972,402.013600049605,448.360709199518,324.435066489585,386.575457340695,459.424953152311,356.202102486406,388.591617832777,319.044112621832,357.856179091366,405.360700325014,302.432958688686,390.227831373428,239.036123003478,347.917830625116,441.968404145574,322.521080788738,476.385864654539,121.282940636495,324.989180913733,606.901226919947,233.808269230594,465.398549004355,594.15952171474,752.461905857059,-25.5175184804785,193.610383139367,680.130992117325,698.824794107949,822.31625857187,187.117162595795,523.188805347651,420.224232728926,735.197877875564,182.554070076076,672.029616004227,621.301325547999,435.65445259679,427.060458427481,421.548355536817,460.386937145455,417.645251776572,407.959007590431,431.126763102322,372.65494549403,453.838476506998,427.568262647833,444.94880943319,390.961302962829,417.792563122066,378.960481903228,389.43133666064,416.95112823487,433.531716607285,382.11528795072,390.74325122102
378.245682231262,392.248895689585,373.62964281476,408.868929206454,435.48075642463,339.296624495539,383.445977945332,400.265864223463,376.201202476875,395.192643553979,428.587880763169,328.862679996839,377.029263847245,444.208407194182,356.002967928629,386.011912602564,324.184706118994,360.691028222369,396.109961055194,315.810584211011,385.59001375948,273.151464018575,361.95159371762,414.462492526959,362.080288474616,449.779604607378,172.913057657936,360.211129077945,453.0994656201,164.69612446362,312.823406019725,497.305428823723,820.567733401837,-29.2180473470501,72.6858919957659,428.74457481893,682.916188772831,810.51874382184,73.8740265899853,406.575563292516,273.30247340703,742.550349769071,39.6266268540202,689.266811680998,819.535303483423,425.532971930619,407.636990023353,398.779469189613,445.071070584444,394.161280927274,393.106037823971,410.293786797069,364.869775256233,434.859888674663,409.316956409132,428.366047056426,379.71092066852,394.314787080426,369.04139979175,376.167735630199,391.168055148834,407.692999917825,367.354206288466,363.824847668507
299.372910428854,310.764700799163,300.782543887256,331.657182732969,342.537326042971,280.538251752718,311.77939727668,324.366072109565,305.455724780141,320.360050418214,342.478079664364,275.658400621698,309.236484979358,358.937294423016,302.212563374052,326.971043970674,281.903031472234,315.619825834755,337.368709116765,288.870255852934,337.480987862706,262.691120320982,329.019489426727,352.046791281496,354.038039673495,363.802056486503,235.253315370947,335.305333905622,241.4187454934,124.458622146812,122.015331343046,316.809622299265,677.492836068929,80.5772242504727,15.8423695047871,78.7356711226279,536.180998534433,641.771947544766,-34.9774809501951,289.162160921664,127.562007013762,630.107919044427,-143.487404081693,578.045131419832,853.223693618866,335.685591310505,309.55546463679,308.795230477096,350.372197244033,297.233466011748,305.083676755583,313.1830618864,286.901680478018,333.670967455828,314.35794998308,330.210079258062,300.324094614451,297.984009685793,292.280582168873,295.425037125689,296.678706895298,311.355245828769,286.750457986469,271.653640257424
179.213686266293,184.46575414933,184.870416832666,203.073386033912,200.478594566458,182.930142072763,196.701088701778,200.142891389554,189.081023315661,192.085729343207,205.588311477995,178.545539034591,196.330683835571,212.010069419884,212.7648702645,225.130468105452,195.797953574372,231.678613233409,239.897899442685,226.126566345852,256.543569903462,203.843577975269,261.61440088514,270.193734871963,301.044887777171,256.530143389725,291.241673029262,243.858195289224,81.2330955652944,115.521520369355,-37.2389225385338,149.312558099984,483.744774003451,224.980242680775,6.12386621707727,-198.172644387818,386.401870150685,403.349197317956,-51.6636525218398,163.990940317453,6.26062652123193,468.473948588347,-272.914959983683,323.807594278442,692.47862222858,202.318676056448,169.164579923052,182.537321495823,202.760759730183,157.254219152225,177.997780478328,171.94509510307,163.22763077197,184.343956591964,169.399252324759,178.105835764444,178.001958909785,159.466312830372,167.645664770786,172.052474818751,162.509533633224,169.592064489744,166.104389033641,151.145439652553
104.014974709428,109.462658095678,113.602040353488,117.679538665931,110.920670531583,117.195141687819,121.91567071165,127.527325595498,111.766812635175,107.108581739847,112.720152928936,119.407041993394,123.295958628871,110.548689804406,157.352613312279,154.183807185409,137.491126628473,174.692852512329,171.20378275173,188.587145840282,195.717708894198,167.598097477741,215.718353229128,206.288854070485,269.745727585966,186.602784667364,331.206659986382,172.996348259955,16.1199166053811,156.777928634122,-102.232887657213,48.5884010752712,365.826238871115,339.510761379644,35.18360394169,-355.631945883838,269.443258782113,197.746622318644,64.4101630526296,10.72821331649,-107.238389788696,297.634627098166,-251.099379212574,-11.7160792098223,419.885303308993,118.942890675779,84.1117429573813,100.80251704657,105.428433698781,68.1658350250788,98.8817048398532,86.369264584494,86.1637195091076,92.6221758163789,76.8378892260943,81.1673458722303,99.967658734954,75.9615282274099,87.1170142058966,92.9981193794849,80.4074771228497,78.8010250749413,94.4733144178346,85.4478427473318
48.7363204401283,56.4687605888688,59.5688133679038,61.5830217268265,44.0032696872993,62.5162839347237,65.7295361010975,81.796630311959,48.8645027148796,44.2646872963571,39.6578559483387,75.8701130311461,65.6625855398826,33.6168952488537,109.607390535947,95.5421075861928,95.5261308906099,121.746424814636,107.468758060612,147.116867410883,131.746666590939,142.297535300022,165.222954477596,134.775382642893,231.747518109801,117.883907016262,317.92327519774,105.999120367284,-49.1119374876235,126.918521103999,-154.043040407551,-40.2404598544406,247.668497508116,336.37985161089,-48.4949674325912,-419.443570202472,74.9269349048667,13.84552264368,119.706710534251,-182.785882631027,-228.101126852338,66.4712010661841,-184.237240465372,-374.597698246838,100.376681344007,49.605304709488,21.5697862043024,33.9607259495531,30.8439720854734,3.03966059967435,36.3034585898676,30.071409931952,31.6697778279713,27.1093876944988,16.2424689563486,15.5314963144915,39.4081436149822,20.3403169468057,31.3508029700414,32.904888258647,22.3789578671974,14.8049189993978,41.4523164005753,34.3028133075001
-27.5907136565016,-21.6194521370442,-17.7339424690271,-9.09294145926959,-41.540496650994,-11.7162920251863,-11.6951052943339,7.8882968754011,-32.4220096237822,-37.9668019807845,-47.8818942769891,7.04583468762618,-13.6775569200385,-61.6695926459303,37.3142061974395,18.2064180766845,35.7861234662248,42.7524296007716,16.8807332687751,67.8855964062907,39.7256099376941,92.8540673706296,78.0222407535012,34.5380343268726,159.657369284107,6.10631723114082,254.321595588449,-3.96341859023176,-177.343444487159,-35.6602517429365,-255.309654487568,-184.161396504369,26.7820941931226,236.140025668248,-317.665999232579,-381.775687804821,-227.02852520583,-197.702018643304,-9.75623664584028,-399.441514476136,-321.056593158365,-217.388602896648,-171.118551370569,-600.307662389232,-195.685862936391,-51.140687825825,-61.4400210214156,-55.513750832015,-66.0735033235435,-76.9473653456348,-50.6106917261708,-47.2910183915034,-49.2319527889327,-62.6864322354071,-61.2573630487397,-65.1797500073717,-44.1640327529348,-51.1193007746085,-42.4150024533456,-43.413204938227,-52.5263372905704,-62.7191965984558,-35.5494077130515,-40.4873836028568
-82.9174069244075,-75.5954545579459,-71.3435006772741,-60.4206283765887,-93.0125215891504,-63.2082361124647,-69.3783093964376,-57.5111857598776,-84.653294088267,-93.1383894620387,-101.18871527874,-42.9790284206921,-67.4695835940978,-124.435363937296,-15.1034295081247,-33.5246963318211,-8.48352541304595,-11.9411599605722,-43.8752564874226,8.47065894706802,-20.4220736373697,56.2127526410378,8.57964776464456,-32.8154037614879,124.395731889316,-81.8183557829817,210.32570740329,-83.1073966435268,-259.034318469563,-187.570378843031,-274.772977292997,-293.966449662675,-219.000670986522,124.126795568528,-575.406607910949,-206.33229353495,-422.657610607629,-342.860246238217,-195.975449282426,-502.085149455167,-287.84853621104,-369.226829590289,-127.684348961931,-439.384950688567,-316.609644406214,-119.923514872184,-103.282932741688,-112.365290976477,-131.229035716973,-116.800456395887,-110.716175234087,-99.2476405859248,-111.391285028822,-126.833401125541,-116.678485365447,-113.327035590431,-100.634898356221,-92.1315410271548,-92.7873866077934,-85.9161875267202,-95.5283058657235,-104.792733895502,-87.9328896519131,-81.8102579289539
-93.0639609086788,-79.1420685069735,-77.9509092912024,-70.6226624414619,-93.17320110778,-68.7226109680986,-80.9240897699997,-79.9736808259427,-91.8767075854908,-96.9612823912889,-106.626601419006,-46.0120276822533,-73.0412202521697,-131.530281862021,-23.353547573769,-36.274272282555,-10.3649086280034,-10.0733857126048,-40.988376823903,8.61148256052994,-9.71430463999736,61.6268203517906,7.43035501750194,-18.9098231532308,158.033843390549,-66.8073435991055,212.908562658578,-53.3842796527054,-168.413224463742,-214.41467731797,-90.1887499621725,-205.822588799552,-328.087461844299,-11.8223506468517,-586.143064202188,99.443505240736,-321.884976663778,-288.804734807539,-303.304519108082,-329.891744329156,-66.7821831599824,-255.635759114547,62.6961792453935,45.598475088938,-194.35960706612,-114.830129217668,-76.8414901879271,-102.494926160771,-132.093414834569,-95.1187489502113,-111.338609441429,-92.5797389090395,-115.790238134693,-133.689414039946,-118.416660017409,-107.536659741807,-99.5554063184461,-82.4473852505214,-92.7188554112574,-76.4652798671267,-85.4435339688806,-95.1816040388069,-89.8458685424406,-67.1438157299978
-119.823695312444,-104.624737273797,-102.469919890791,-101.716981831964,-124.638848241721,-85.2870601216245,-106.178464222037,-111.884675516372,-121.672180892308,-119.744169183811,-142.08348146028,-61.6271017622557,-98.1137195901964,-162.22269105302,-45.5456776249797,-57.0357621863106,-21.3447949803378,-14.5679140650488,-50.3976182993483,3.30525342443161,-2.80424077911271,56.6073121377092,20.0653147448719,7.96379580827287,163.635042753186,-5.24989554648656,188.463042165055,14.3352673628173,26.7947713536149,-214.849447238655,172.858608396139,42.2690434489321,-283.094318704944,-237.584632577996,-385.065391299094,420.991731124625,-63.2390605089278,-133.538433356722,-353.212699556007,25.4646983513056,251.441774106825,-42.6067214425502,375.1179507723,435.222287024707,-37.5036831926579,-112.854174825775,-75.4892865236037,-99.8594893742148,-145.337517778531,-101.212389374502,-116.608777825677,-101.087611968474,-123.498358224758,-150.884194101206,-129.082117757625,-127.078951478141,-111.169402014394,-98.9910485923024,-105.7991170623,-90.8047638571184,-100.966246275816,-118.65298922745,-109.455736381041,-78.455965995556
-200.636982772498,-197.291134898197,-181.439605449094,-191.108222759196,-228.247063168291,-153.408691210408,-187.370677641834,-198.637750257613,-204.350241104179,-205.165500747851,-247.693763507865,-129.946271538236,-184.017664296392,-262.984713279229,-119.762924721069,-140.697671341125,-84.9481555026517,-82.6399912138251,-130.679122502149,-60.0023137250173,-69.0934164501577,-0.883356928258316,-24.6366546716392,-37.7463009833308,78.5935186046452,-5.08341154612154,91.0779630605036,23.6546208576808,146.52658609401,-280.406456838765,300.285196342503,220.361439749308,-210.013681531986,-473.649291735432,-164.524638130206,562.03965876545,77.1507746669309,-104.443629133636,-361.426601528286,261.597195385185,471.407365800337,5.75292624233253,644.254081931959,462.351533831113,-98.1405851244234,-175.092561071169,-156.371518771671,-164.67479834691,-227.923478083469,-188.816394665112,-177.631136129595,-182.428767978073,-188.368271224816,-224.529903492097,-202.593516755376,-218.944724408458,-184.911401315532,-187.846732144164,-176.924725821496,-170.577815925515,-188.951792994799,-217.412420408371,-186.880317712597,-166.452248645194
-289.280913660652,-308.223822003064,-270.109319157338,-292.080050892896,-345.130907713384,-238.007817379784,-284.811200343624,-305.952692334621,-291.555925432544,-305.971101675208,-367.755816764325,-212.929703587524,-286.223234234579,-378.086216618945,-205.945024795745,-240.361986612773,-166.3689708238,-183.282577381219,-235.6248519344,-140.741779854712,-170.759810547163,-76.6348358408965,-106.837845452608,-134.669603127146,-26.2141205132793,-70.4919840920386,-13.6188863398805,-5.6495081715149,128.590834663682,-327.401187740954,259.034272013075,216.876602884803,-196.909528657348,-522.217272758157,-6.1683188895523,436.739358054989,30.6799210850246,-224.602774957948,-276.65386239536,268.664875185779,474.049413236253,-130.443164304912,704.649860276198,236.601867449804,-309.619280842429,-258.72608703634,-268.430789955163,-259.030158189029,-336.339291318066,-306.134122664812,-260.355740344798,-291.855164543914,-275.49416830891,-313.97822125758,-305.085081194673,-334.622355640216,-274.407295222012,-300.716753225385,-262.58766161551,-267.493375147489,-297.952038432526,-333.099246864194,-275.21028179346,-279.056012961564
-351.201694957056,-389.76304592893,-334.879937769364,-368.476089342372,-432.033599201415,-302.668068307703,-360.602871480163,-392.567563137425,-356.086772463137,-382.41247048891,-456.135155580929,-277.886595498106,-366.021804335884,-460.59998831866,-273.290456519524,-314.272962414091,-229.327276061336,-269.255552299544,-318.205842381668,-204.813905526271,-252.660277221665,-140.281865940969,-180.83291665599,-221.95458432864,-93.558822091511,-145.615575516168,-67.1968717378561,-35.3954656021145,42.4168972535025,-294.904982531376,156.82132110528,116.019553227232,-237.581145810342,-357.141964531259,79.7421454820007,200.682663158576,-93.546443677344,-333.239304937478,-147.338147440375,221.505531347366,316.513677557405,-273.889997970005,555.939824165705,-34.0263804894425,-422.522389353365,-322.038925866088,-373.397885131285,-338.068046517683,-426.861023813368,-408.959681845874,-328.1839012172,-383.340531499018,-342.641658624992,-385.136801352378,-395.13935902831,-433.472253254028,-339.490878625994,-396.305333610512,-321.911492205724,-342.913665749516,-384.124474186071,-424.987558714,-340.887367012378,-368.021575189222
-402.534157092577,-445.165771528788,-387.445153181434,-430.123122584192,-498.41037677508,-351.90458969387,-420.324041073297,-461.746811820544,-413.439321661858,-444.739162519131,-520.584793450963,-333.308332765802,-428.747041184925,-523.401354482736,-337.818400663161,-378.86949538833,-288.875919977744,-338.017616436852,-390.694217230748,-276.531265579081,-321.061867727614,-207.898541653437,-252.76530974493,-298.638442995236,-159.558610472141,-220.699005635978,-103.120669138293,-97.1063382191793,-56.8362276000162,-260.466603448489,57.0143013281157,-0.440598517166253,-301.982460873768,-183.430380218239,51.7179006678195,61.3391119741363,-207.023325490381,-367.894079967569,-104.461725001145,225.716355936706,137.413216634821,-334.179687172045,337.229793894161,-246.252858813276,-399.593363764902,-373.667404051305,-465.654696209091,-398.800712520254,-499.440562865891,-491.694626945346,-383.491971547849,-457.454927464308,-387.581571204774,-444.979340204762,-468.186118513837,-512.162455845793,-390.795453416446,-472.485524218223,-366.111918362336,-400.472783902657,-448.339373696165,-497.826790890861,-394.524680595048,-435.077157721187
-434.089257719779,-470.883251850805,-419.442147156206,-463.81387538013,-530.673206769076,-380.869684251728,-454.954069537098,-504.910895056798,-448.567573669974,-483.556051508462,-552.997873961622,-369.809725536878,-463.427250714387,-562.002807131002,-391.405799739265,-431.844930058556,-343.339164377719,-384.601991755948,-445.984522208696,-350.369428372924,-381.824361851077,-273.247676551935,-324.20446574402,-369.85672038933,-235.591458692429,-295.033296851706,-152.252347290334,-193.366602413621,-145.343125664168,-265.242555950519,-30.7259482825028,-102.255141585016,-343.828174135606,-129.382825188793,-46.7856081463585,41.7552629188364,-259.612279186382,-392.841312990318,-141.361278368995,199.71762023466,17.9764565127122,-357.461412402999,155.011722994806,-350.359613688026,-389.804036547477,-403.115381448916,-500.177215156772,-424.940874195566,-530.803634523108,-520.196844830102,-411.786106221314,-491.330376362741,-400.70326320788,-478.255068746394,-500.32524379346,-541.2024923993,-417.777658467894,-501.807171510144,-392.973523976829,-425.378758177303,-471.287825651202,-527.596593905615,-420.170889783215,-463.550260487436
-419.651769307666,-453.66936802387,-409.383520757122,-448.307439223698,-508.030292541858,-376.040723264413,-446.728129361776,-498.601237691147,-436.691995367824,-473.845864002741,-535.129169760021,-365.635708753969,-452.098083412956,-553.10162552185,-403.671598374189,-440.17470165626,-359.544810149367,-393.907113818545,-451.767572256472,-380.938081847714,-408.468020022647,-304.777032133228,-363.29675297748,-399.825705393086,-278.44421136828,-335.574703292047,-192.614497709125,-260.746409803019,-189.017184517138,-257.387365191981,-90.3839776098246,-145.165872693828,-316.07777640897,-126.58908970127,-82.2761935759657,37.353693555077,-218.445991824776,-422.505340381918,-134.817188421589,112.572009246089,-51.690415126573,-370.254620244753,18.0202855097117,-329.419899549444,-434.565168856986,-395.370127435747,-456.619488822483,-402.947402333582,-501.97758009507,-475.411949725879,-398.412257158593,-463.195177093976,-376.07212271479,-465.164384365688,-471.228806007953,-503.526313722217,-403.19639739155,-464.737578545915,-384.746148811529,-404.908166633234,-440.979227106502,-494.014807028651,-398.129364092425,-435.499210240979
-386.623447986769,-419.951678290292,-383.110585813028,-416.604274564682,-465.531194797297,-360.282321287819,-418.882281798838,-465.975250884439,-408.89286931929,-439.678171885926,-497.907359195975,-342.769246804456,-423.442521526693,-521.676325093423,-387.230566483244,-416.834360255138,-344.335979322575,-384.867104086354,-424.398837548162,-371.399836593562,-398.322561523025,-312.03166976011,-365.917926625692,-379.139118876603,-287.878893892565,-331.995830543452,-220.297127900644,-275.496720794061,-183.808050754961,-230.318738091258,-120.406181837966,-115.263209503862,-242.912982197461,-122.703783683977,-32.4688538818002,0.902789536643383,-118.981305082009,-408.314150465182,-77.071547922367,47.14124354724,-111.389526280852,-346.311065648384,-102.970162024527,-253.795720174727,-460.134677844434,-380.74712324311,-399.922217739066,-369.069991433632,-459.560638404917,-414.722063708542,-377.241545973823,-415.431361122328,-347.056813312786,-436.628232765039,-423.475489634896,-451.148824076454,-378.1740998934,-408.302505478165,-362.370278137765,-374.735393016585,-402.74552566394,-439.648079302457,-365.146300342453,-389.524610426851
-373.924211414044,-403.186909816665,-377.631305123027,-406.097360320397,-443.859865397281,-359.622792267162,-401.008761632145,-445.921588456058,-402.773014398946,-420.934027851391,-479.922353988009,-336.243424299106,-413.060433960873,-507.52315332238,-376.291939169415,-404.152108844245,-336.049187189811,-381.858306555803,-403.393771968217,-363.02315904575,-379.806859623444,-324.609834243235,-360.369785375984,-347.70399682138,-301.870300190917,-312.885557449725,-258.977758320758,-272.703316668168,-166.315572947548,-223.794233126589,-131.070381309982,-57.5280964548611,-189.884062873806,-158.05489105523,10.5090104964861,-31.3322026133955,-29.9209221095446,-353.747487106447,-67.6759130280363,46.6777531892026,-158.018855998191,-293.938657017276,-212.07074944048,-218.886236299306,-445.523124739817,-383.704496922691,-380.063073789959,-358.319784373687,-444.934647622906,-389.140073222141,-374.60507062597,-390.871221207213,-337.202587561982,-426.59992076132,-400.194102372948,-429.609235495029,-369.816037105346,-379.181447989294,-352.416386942714,-364.431209501466,-390.263641371829,-406.623866018386,-355.852621113164,-366.183420378087
-372.52332372418,-393.680207375952,-382.949719655835,-401.151767905349,-431.113447885964,-361.093642259073,-389.131835579909,-434.12282221595,-403.429473070942,-411.639773187017,-468.353673761483,-339.540869911488,-411.04151273754,-501.425358987799,-374.567893809337,-400.567296572992,-341.01668211537,-377.743747222855,-390.607927371198,-362.885773720784,-366.58871838397,-339.268067693842,-358.123184563285,-332.6254916573,-323.561017180149,-299.073788601419,-304.742922104343,-268.259983624537,-158.324896113175,-229.700480886699,-109.360735807159,-3.09484670628569,-169.401434310688,-254.121844670483,11.4253957923804,-26.252385877161,37.3006201523163,-309.527921816881,-116.671761535602,87.8007827904845,-147.154712554465,-256.241574511028,-277.653663724352,-221.174386146647,-424.754463535128,-382.970832767367,-368.909194911173,-354.925138902855,-433.228772623288,-375.06342359947,-365.098347087365,-373.761645282774,-326.545335748716,-420.017950872439,-384.48867601477,-415.999180943163,-359.670045090327,-363.814644072703,-344.145498776079,-355.667962182393,-380.016664032933,-382.853074942974,-351.52126106045,-353.662270474908
-361.928529841423,-372.480476352066,-373.951667358508,-381.934441096089,-407.517999097708,-347.52838902932,-374.125835282331,-413.646815627801,-387.808007593348,-392.682695417943,-438.44154102145,-330.871089698025,-395.003073124423,-477.399973715174,-366.713378262439,-380.064556417629,-340.031623210608,-361.988496117363,-369.240676802056,-352.258409000471,-349.336079699675,-339.628876863527,-349.334987235137,-321.97580448456,-334.179987129081,-288.572704267176,-329.590103102813,-256.42618790238,-146.16765936388,-238.779589828075,-53.4365957886382,67.3034591166094,-146.343150046137,-396.563724421866,-27.6710567872619,21.9174556001644,110.881139563291,-278.686529518952,-159.544766608918,152.740000787197,-50.3977788177596,-236.040888998685,-277.580349894584,-195.45870602433,-398.332649387184,-354.313576993139,-329.24278269992,-334.129630569943,-399.165301840208,-342.071160285721,-330.387293933489,-343.574744094827,-299.642405777999,-393.662972434188,-354.779060261122,-381.359441499685,-332.578626329135,-338.099688237765,-324.506133007316,-331.137752527823,-353.041597043458,-350.625810605807,-333.383920234258,-331.857253817882
-343.196983251557,-347.249565693877,-352.469738757125,-361.75143724391,-382.118312138861,-327.982865191789,-359.512425810487,-391.605366837325,-364.559034296697,-371.336043113458,-401.079655586382,-314.208616660515,-367.682703732086,-440.915551536286,-348.088092362555,-348.081803962711,-329.700332341501,-340.074070079007,-338.368559376987,-331.568661144107,-325.527829897272,-328.888289870814,-333.089624075693,-302.091556620191,-345.825821246151,-281.710383095325,-334.918973415556,-264.006186324291,-121.032292272487,-303.88029891335,-29.7278584311084,162.769757794318,-107.659381256907,-578.0122769694,-160.43803170822,99.6719047759689,179.45240582494,-225.247571990443,-207.857134072171,180.521117480498,94.2816336136645,-209.056877901976,-254.11589990173,-148.761562469855,-340.844152575806,-311.365501811165,-270.516547977725,-305.487398995266,-363.283322192227,-304.858760530041,-294.15563641375,-314.057854849088,-270.26570761505,-357.524287977255,-324.832651199627,-341.928552194023,-302.22665862866,-308.586474752071,-302.954435003043,-303.159339312,-323.652482468393,-319.557909969999,-312.403084996499,-307.836326329976
-311.879619492026,-317.530160143831,-323.197068660346,-340.428688939703,-351.343724629734,-305.104402317891,-334.689804937423,-365.845745931687,-335.198282951249,-342.9049648414,-363.792092458286,-292.925275800711,-332.322597430766,-397.354154634264,-317.949910845936,-317.110515488074,-312.758819026556,-311.36614253118,-301.060911061956,-308.779313244575,-299.731286267393,-315.507388240513,-315.750041665299,-274.268084800156,-376.618996021816,-282.562888939712,-351.152024477263,-318.209879259333,-102.848620593182,-430.040319782012,-115.471608694892,237.777898292613,-68.3839719348027,-756.741457269338,-368.193550203192,148.293980291318,189.635309336806,-147.606632363757,-289.452726753785,39.0956469661689,181.803831386774,-190.699159851599,-298.098310537177,-145.779785550702,-262.827298773181,-276.991746697183,-220.214397417126,-276.005143377043,-330.862974087575,-266.855753518003,-266.248941713619,-284.659547963435,-239.449370560459,-320.45944373024,-295.285209189461,-304.738190705746,-271.281159394113,-274.919771376895,-278.427802862009,-272.06335532193,-290.795209805157,-285.891843933916,-287.659798907834,-279.050732553334
-258.069194739124,-264.488776625256,-278.695423567928,-295.073853779072,-295.525281781149,-266.83190725608,-284.59824116261,-316.90314782155,-283.60512655168,-286.610155846562,-305.977327946429,-253.267661576091,-280.370647004937,-331.772083339862,-274.490289019853,-275.886874903414,-281.711730974017,-270.549231888162,-255.359704359896,-280.026285190262,-267.574652416484,-300.427015332912,-296.039884047907,-243.138320624583,-406.018208418427,-285.049140782377,-387.126585063673,-381.559949659353,-117.390840940336,-508.280781694068,-285.733613049108,228.753881397626,-47.819705961408,-836.300692109382,-485.340318266541,79.6027804370311,88.4592655149866,-85.5230098891419,-335.660943472197,-302.834714234037,97.8646427640728,-221.949240663618,-478.718679407503,-217.23430834282,-219.840264243978,-244.365378102499,-184.167854401438,-229.068086643772,-274.394888140028,-203.981937808009,-225.821938038776,-230.627012069422,-192.677769943743,-270.286295539522,-244.104262729942,-244.439241847156,-226.666760811225,-219.458911397609,-237.677488951762,-221.559221351618,-236.27762578488,-227.102049718692,-244.743393798436,-226.453170504761
-209.068374271862,-207.896304371891,-236.626647007014,-242.812917280069,-239.54254892508,-233.439894504044,-237.441793435714,-265.851136906298,-232.771152754399,-229.281224800262,-240.821466657078,-213.324979044329,-231.477221497352,-264.232333817081,-240.968854700166,-235.219265311665,-252.459612141108,-241.264141080389,-220.7575345518,-259.182347855573,-241.723522243026,-296.09259308962,-285.829107313121,-229.989668852109,-419.910575919618,-295.653927345843,-428.153469915765,-409.524298871361,-182.143433597513,-481.262759126245,-443.289491667268,101.194642569872,-86.8581279671642,-773.647529248541,-439.992683502224,-130.409329864192,-145.524217794344,-93.8086540448344,-311.173621820196,-674.275682435902,-196.260561508232,-313.622902763206,-795.455392160264,-352.333521577521,-267.615691979961,-213.57165897036,-163.145163010939,-181.842366411712,-212.527917042321,-139.958333793535,-188.056812194084,-170.389414012326,-154.114551113346,-223.17020757547,-190.329121009359,-178.726911415195,-188.549523860157,-163.328542269609,-203.083570895829,-174.934192150064,-182.022226014856,-164.414959922895,-206.504958287564,-171.917830532177
-211.385479847762,-202.99815132667,-237.211242159992,-238.671107706947,-239.411842397916,-247.230190546886,-241.081593664617,-267.575456468832,-236.120017427683,-228.483181727355,-228.13999303517,-221.089677500144,-230.462444623878,-253.018957553942,-254.58059214601,-239.182331705108,-265.340792563235,-260.342003102609,-233.774090097965,-279.77853299794,-258.272631771437,-322.09887422798,-313.500447139,-266.962439241752,-445.187518772716,-342.010860341525,-455.76087716032,-434.081870352854,-304.24789111093,-424.591939629149,-548.926301733555,-130.350173043728,-227.336606153408,-633.332619868406,-374.928601991783,-391.928407394959,-453.542317091844,-205.214626350146,-307.166800014221,-880.990730321314,-594.053005609525,-430.402899432052,-1137.11414176929,-504.020891710325,-393.086454999307,-219.208949562692,-177.212940844255,-185.985470931023,-206.873514022755,-137.368543357527,-200.456677499997,-161.136857774005,-169.678663759421,-226.856346085727,-188.546006404316,-171.010542379092,-198.216266851953,-161.074715291394,-217.460126745165,-182.458989238671,-178.50894234608,-159.101776806768,-218.347707046116,-170.425971908674
-259.543178099225,-254.821554934964,-281.188750742965,-289.632865907482,-295.550567263753,-299.870514900478,-289.541993082181,-319.524605572073,-290.039603184058,-280.861700176943,-281.35673382249,-274.92982973817,-278.414133169492,-304.089971621397,-305.907731427556,-290.718541720361,-318.091064355681,-316.546329492589,-290.420157617031,-334.685035236725,-315.94770809052,-365.01266047094,-372.077839175829,-343.870722553684,-482.383596887912,-419.054372277439,-439.943853548762,-488.572691726316,-457.414811043801,-377.498849641196,-624.623776720281,-409.143193005713,-439.401634853176,-460.431259453972,-387.817214323353,-593.366238770876,-713.058653440343,-378.038252032209,-355.700886746447,-886.169728050341,-893.602707463779,-517.610900420341,-1294.51566544619,-617.839641188932,-497.901562679318,-270.410699349224,-231.293162907883,-243.478944650438,-261.149378260627,-195.515700157842,-257.383417592646,-210.294880213367,-228.271966220099,-284.494783384662,-242.548633777335,-228.211406520001,-249.886242673856,-216.068223338278,-272.802183054808,-240.952113005423,-228.845343132938,-218.321314193079,-274.748022409577,-225.083067085176
-292.933980560216,-295.981432302194,-312.585192120342,-327.984857572283,-336.752690685758,-327.740271247604,-321.647045904482,-346.976176486468,-321.846187444884,-315.939500735547,-326.361402888168,-308.323202245691,-314.018646246305,-342.522607306019,-331.479844586065,-326.737296780087,-347.68887467403,-347.297889716234,-329.440097776009,-359.281898634335,-352.380963983215,-373.591084552796,-399.474103611367,-396.60751407216,-477.204567044168,-464.066224207489,-359.008061174372,-509.217078325852,-573.872213687459,-276.186980321383,-650.678493420742,-669.697312936961,-631.263154333855,-218.616046150325,-373.386706043726,-702.593829678484,-851.166321324192,-515.371845619079,-334.705395937446,-763.416578581802,-974.298374739686,-543.743463136892,-1139.19025578213,-685.18379143524,-496.636177700554,-311.201414815811,-280.137452999613,-287.721482503021,-303.364175346771,-242.371315347981,-295.322431630319,-254.391508811791,-263.326417641973,-329.283805447899,-287.613724596613,-277.019751507463,-286.452600177978,-261.975383409843,-309.056876974937,-288.18315723259,-274.341447436148,-269.179285068005,-313.6290703258,-270.309728760862
-290.016074076618,-292.354241088038,-303.768306175709,-318.254413024444,-329.287251726357,-309.675234533059,-313.118131113605,-323.989089138168,-304.340444751201,-306.400402643735,-319.318302486491,-293.432957599481,-307.045432329327,-332.088810947545,-309.436681070059,-316.035021492818,-326.601063966412,-330.017251601581,-322.230881215932,-328.890669204306,-337.644496076803,-334.678913229646,-369.582343125353,-396.178298298204,-421.608351078435,-447.003025069917,-248.915453884693,-449.584376770235,-617.323248521634,-127.668902771697,-604.13144000486,-871.844614689757,-749.067563561514,47.1221264266241,-268.32621996286,-749.250840737536,-893.660144769937,-570.883629406046,-206.511166762136,-604.93326126289,-892.35008042517,-522.701945012957,-809.7163299753,-704.162044591282,-407.238183440901,-303.503795948738,-294.802673140274,-285.132240722065,-300.331961360201,-250.338669961707,-292.239111714499,-261.472693367647,-254.656599379155,-326.275372360739,-293.716186070458,-281.711729605562,-285.05533619004,-268.253623073566,-305.901905553614,-298.479267085546,-283.158477345702,-274.310935245282,-312.351024124453,-272.429736234245
-319.659648829699,-319.639203936105,-322.542802142572,-336.831725281506,-356.904911247236,-318.218559513113,-332.861285432512,-341.333022472647,-321.00266336111,-330.415150791537,-344.411245064238,-302.057261867437,-327.320893406753,-362.272086342808,-316.213838886139,-328.20089369977,-325.74014942067,-335.635410690884,-337.536281435149,-321.508186469143,-341.211193378233,-319.107430881272,-357.80431817136,-406.007429061053,-403.086536004864,-438.686604428806,-188.381302753278,-408.367369574325,-645.0662804519,-79.543285944013,-568.249639085869,-1010.8035668661,-804.118281332293,151.336246789589,-238.616607966645,-768.516123198492,-897.263851628705,-585.003349796066,-156.442590600195,-506.557229459069,-781.080286702418,-495.715691335692,-593.58736063738,-648.874403769546,-311.80396482765,-312.158130991962,-337.280380457498,-301.510986685916,-330.169737240514,-292.509679046666,-315.729095549338,-302.257844926251,-274.578216028982,-353.38615444963,-329.552468748412,-320.301870423811,-310.7436092438,-306.62284035637,-332.813602175851,-334.04284027682,-314.823949285369,-309.477131808948,-342.986316340568,-297.310171675721
-448.747616912415,-460.742645941604,-444.180339114476,-468.278352513226,-512.529230361806,-422.643140918625,-454.963763201726,-483.862744419103,-451.565409381572,-467.829610727935,-497.273972907592,-404.251884233708,-452.410714594676,-524.742398665363,-422.114728882859,-437.997181117344,-416.236268999204,-435.843114368687,-447.758051670018,-410.821727173953,-435.490367649888,-390.984251182105,-439.055356447532,-494.817116434614,-488.706697387562,-517.929100018211,-214.882679219904,-493.236866221191,-734.62198073645,-231.975123728906,-645.153578087012,-1107.79308011817,-836.084460866196,1.12698730478963,-439.009645464771,-792.683732993519,-905.285294625688,-618.32864931091,-329.610347934066,-529.650083488322,-727.564347723574,-510.894879468998,-623.973200994873,-553.751777792778,-280.439063719902,-426.05960610138,-486.309978226661,-413.822838983477,-477.333593844761,-442.07362190267,-438.352748963111,-452.112688255668,-393.717179767489,-499.470432718472,-467.544316570785,-475.862117904002,-438.22993297126,-452.086456659893,-460.875654499435,-461.486881660463,-444.821576260388,-457.762787350683,-478.324039998479,-423.355936473768
-643.308507506948,-676.78439527315,-636.17382650756,-678.435049768474,-752.969911575695,-592.251155701064,-648.624912704532,-703.300674577272,-652.959495134907,-680.636004842489,-733.676246309552,-568.597768661914,-650.422112342125,-764.525259531415,-590.608098955048,-618.831555870225,-568.796833790098,-606.183663104442,-630.166129387327,-564.632153000472,-599.460614741452,-520.743789100442,-590.358426202643,-657.331405384528,-642.319524884299,-678.995240556392,-302.520939817525,-669.614410144575,-906.624437625553,-501.078426445544,-826.00887224503,-1211.86297929262,-940.772487326022,-257.305880569752,-763.235716368672,-879.507332171336,-977.830598384448,-734.421699448026,-614.657386539803,-671.880146602341,-783.738721590315,-634.284677409952,-810.595215628459,-547.937453049339,-362.235456485935,-628.284463337403,-719.975772073948,-608.94472182579,-708.914935634839,-670.67457612501,-639.773951711657,-677.59178458016,-589.59972390286,-728.048481096703,-679.362684022054,-710.542251284003,-647.501479109598,-673.216713770956,-661.912694096822,-657.232330610144,-656.446940387237,-685.305410200357,-685.403291431814,-629.751617542203
-795.464774894785,-842.0017227981,-784.83653534584,-842.490967894961,-930.199708945117,-727.923605166512,-799.143371070028,-865.255724445288,-802.950865260689,-841.729144670294,-909.775444576328,-699.50034289165,-803.90934770426,-931.840273935746,-724.691725708028,-773.480389960195,-691.117857722932,-753.225577360005,-795.597562126239,-691.816887325961,-753.995730676455,-623.288324128082,-733.645994131961,-835.546247280943,-779.859297859939,-861.239500136287,-405.816781424058,-834.642496427787,-1130.74770423468,-711.517458535653,-1032.83452401037,-1366.40063271212,-1209.3244292461,-390.132575555806,-976.2938801002,-1086.79180655921,-1160.24328988793,-975.321339028859,-795.472510672876,-883.513308107924,-982.86000450651,-902.244568289334,-999.39286430484,-722.286812719942,-578.476189610489,-805.582996991709,-923.281238160707,-791.645248505458,-900.459071450527,-870.328872606498,-815.561725860264,-866.370661577199,-762.485777266476,-905.770883430489,-855.511311947752,-897.15285683493,-827.401619127832,-853.264439801929,-826.187679277301,-821.132953183069,-837.924822213558,-864.368961869653,-847.121511171327,-804.885984027062
-832.379160392354,-880.709402122026,-814.892421864104,-879.035041794802,-955.107014558671,-763.317563544226,-831.364805000682,-891.128990692224,-829.942182288863,-870.046395941153,-941.258539875721,-733.932340121626,-835.654534760326,-948.401251037308,-766.709119414417,-831.708140815241,-723.291226173104,-807.859440193547,-870.704108764526,-737.068783584051,-837.89641992983,-646.12960098413,-813.140772914297,-961.798075649476,-844.758796119767,-1001.51688133211,-476.403424221738,-932.512085085716,-1328.82434695496,-751.408136995189,-1187.66809349641,-1534.20625511875,-1544.30826299132,-295.894650415323,-959.949656909491,-1377.66012305512,-1402.28073467166,-1265.89567945623,-770.843771566274,-1077.10968373006,-1267.64111164238,-1230.05976320082,-1100.28305917182,-1011.31249058561,-887.200607589301,-875.852993902235,-1007.05493449734,-874.215273676067,-961.492258709744,-955.135624256404,-884.656708272158,-937.593405791574,-828.424955438923,-948.278868666853,-911.782355949614,-950.281030219044,-888.325842777143,-905.898246792269,-872.204828510365,-878.071099136063,-893.468599774113,-907.20794768708,-882.74851785871,-860.259917750649
-788.423458498389,-837.782964895094,-763.747693423106,-834.390626469273,-890.868584870289,-725.82279342656,-787.756087166321,-831.66381667404,-776.973933194126,-815.919082890023,-883.249590039381,-697.901599320386,-789.140759212107,-881.60433353775,-741.444033228997,-812.799430232126,-689.117018627094,-789.742729923901,-864.149520120231,-719.09110149268,-852.738180891613,-613.598933387443,-830.891387931447,-1007.8140244484,-843.35000970666,-1065.54875410005,-486.437408674403,-966.804239692552,-1416.17692916856,-647.356017687192,-1231.54014482497,-1635.82593061625,-1729.75286164006,-84.17506569582,-777.792620292236,-1609.38000545756,-1605.63592716706,-1470.50844686507,-596.006706274909,-1176.54564511821,-1501.17381131523,-1474.71238192838,-1125.39589043724,-1278.78365617427,-1197.59560135789,-870.93730360532,-997.622183154203,-868.610812057771,-926.423661225643,-941.195218158451,-871.160556651319,-914.572095131541,-805.571613445396,-903.25009760725,-876.805291172941,-907.850862822023,-860.160831294436,-867.939730117502,-833.028717033258,-856.44573441383,-853.419981494819,-862.910258344719,-833.250885236729,-826.831454521819
-733.815030181162,-787.484441935425,-707.915364046821,-788.96285438844,-836.385828035163,-673.355662244225,-741.037665534089,-774.853358459742,-717.066853969706,-765.887673134342,-825.065007759105,-652.050870521415,-740.781052415656,-828.508174144892,-699.251788375541,-775.080529661591,-641.745724106144,-756.686565406981,-834.187498823835,-679.080093458121,-834.320689638231,-573.201129405468,-813.088698074947,-994.758763659795,-814.977424077749,-1053.54152532875,-452.547320620203,-952.005890946385,-1374.55194196119,-507.31915919805,-1146.72907294947,-1646.16475367869,-1716.57849255824,58.5735101045447,-571.073663662485,-1634.7002471282,-1718.9653536855,-1552.16250174245,-384.644991649189,-1163.44623218189,-1577.7540972813,-1578.7395390396,-1106.37342982792,-1443.7324718556,-1419.4432554552,-852.666213433453,-962.153705651913,-839.152770375137,-877.547569644919,-891.099780431019,-832.815927875637,-865.382717415265,-760.497330534557,-850.508842346915,-825.853729636788,-847.979236702808,-817.649850871236,-820.147405423963,-785.425497083197,-816.739176732849,-804.674314669098,-820.119711522781,-777.276247711946,-780.61053951758
-671.614879105838,-727.225302431013,-651.985110758402,-735.943928424871,-782.255023972017,-610.268678208947,-685.962184117938,-721.935938827854,-652.342703675633,-715.697075370071,-766.380235719023,-602.676008484517,-686.624220630893,-779.80299526453,-645.134247623708,-726.387968462463,-584.794406246262,-714.748378388002,-792.523349132697,-624.600401489356,-793.366940758906,-526.701589863689,-764.414782925199,-945.262091894283,-773.581667008817,-981.718821751764,-411.095259029075,-885.748484328467,-1246.03901178573,-401.001190672051,-970.981887241573,-1564.69323894919,-1620.20149713435,60.873479809218,-421.776764597334,-1417.27714891252,-1720.27459504015,-1532.97443761836,-214.025469792167,-1059.90571857032,-1468.57001510815,-1562.0782669065,-998.286545286601,-1462.84636546739,-1491.89175957495,-808.549306896845,-898.681454105535,-789.131700111601,-813.6660724501,-814.67846986462,-767.522452513483,-800.242625855973,-699.538713143843,-782.731856465628,-760.433611671198,-772.248962603716,-759.389625927286,-758.843914798577,-730.117165258126,-751.38738344607,-749.319190608935,-768.208306245284,-714.405558460138,-720.981301586974
-577.279151111356,-628.550085310895,-563.365762747964,-638.195666602819,-675.692759526397,-520.991342356425,-591.920246956149,-628.609508921455,-555.312008115958,-621.58449631018,-666.070923664537,-524.860627032758,-595.01409928185,-676.329863240681,-564.613585977229,-644.663631727081,-499.153019481943,-638.838649339502,-710.04792522016,-551.732191558181,-721.539965411697,-456.165704211439,-684.749406536929,-863.088622609366,-711.269267822532,-872.461291264639,-388.192104279895,-773.957046247295,-1077.62897505034,-331.65751623909,-778.644778675809,-1376.88919460001,-1475.06391322228,-17.8680631988851,-330.567298853047,-1079.64682094256,-1582.29648992492,-1380.01345432623,-119.635845895203,-920.383411591797,-1213.29708573345,-1426.073302569,-774.031171132536,-1289.36404448786,-1384.06643921912,-712.692475412946,-783.071744732877,-691.022663777719,-696.965492317396,-698.589439442633,-661.199665707556,-696.162043364635,-602.503509462607,-665.621378454203,-646.358028853525,-652.991520242846,-654.1118825706,-648.6424328707,-630.677296177054,-637.89870450146,-645.894340138495,-662.050706778163,-611.142199738343,-618.952836530009
-463.915028279813,-506.791092373081,-450.241844233515,-511.740750728863,-530.236934537434,-417.050758495532,-473.830278177284,-500.857412931984,-437.689488054054,-490.241964083677,-528.396292649788,-425.838762887038,-478.34914869237,-524.300279941506,-467.940724953369,-533.530431776186,-396.678475340044,-532.035399903418,-584.616021228952,-466.626282855143,-616.60564698096,-369.715020014402,-579.384205050777,-740.876724415858,-625.793498633061,-736.101403030073,-378.608212568949,-633.124434066845,-881.866509583224,-271.782053184276,-605.337891401373,-1092.34542004641,-1211.71508949416,-90.7233608015584,-255.408815125733,-766.186843215823,-1293.69142625118,-1066.60908291464,-88.9434148550814,-777.088154492841,-886.853955631319,-1140.74616328802,-511.522018508474,-913.390474208922,-1090.40214568532,-588.703736581545,-635.190288717952,-545.605908399152,-544.933275458663,-556.931863243683,-533.695340222738,-559.726137925704,-485.705131570225,-517.73119688265,-497.2983921302,-507.662087348444,-517.977888617815,-507.920281765734,-493.864625983446,-499.576160863851,-508.245633907217,-520.733750961163,-475.830552181723,-493.368214037945
-351.170892741203,-384.693741865816,-340.205468435838,-388.359951189036,-387.480966098135,-315.83183205906,-356.660950033907,-374.721797942799,-326.813642203876,-356.557055491865,-383.235259255917,-333.76387391914,-362.521634873441,-373.80524709908,-376.179078530423,-416.21556115039,-308.428712092175,-423.343101718215,-447.395774045784,-379.762572138475,-489.5632479576,-296.641151938423,-459.669031035044,-579.147902378258,-529.86102666365,-571.408975338013,-357.672623094168,-474.291135480413,-646.211372897923,-189.222317378508,-421.691690612568,-748.179033464309,-832.212446628056,-115.23170118126,-129.909867100443,-490.052900007985,-883.387414759459,-664.985662431959,-52.2220234909104,-580.593785751916,-542.946342907674,-725.150122344351,-278.343683096443,-428.673838951323,-678.840618204494,-439.91612683957,-466.488423168878,-346.812450154334,-377.650595016693,-392.918702094578,-387.445121104858,-402.533752022766,-354.681476495259,-360.331428774849,-340.582684745826,-352.504588682056,-373.76248585773,-362.38924160151,-339.216265543682,-357.712904006551,-367.897104934347,-376.686987386019,-333.39694761953,-368.582806245743
-225.853355389918,-250.211823690586,-226.374935007446,-262.096197802119,-243.947446040426,-211.600114473409,-231.563819079301,-246.250144248408,-217.244612853653,-226.730037360645,-232.726185120771,-247.77375367391,-248.410570941526,-231.697422141262,-289.601093594182,-302.296640742545,-240.544566291689,-326.568713335641,-317.220107698867,-300.133754035343,-361.219776147981,-247.468921160463,-350.451187871379,-404.574975608516,-448.353861715839,-395.191691511485,-328.884475111028,-319.965037705292,-386.715244465626,-78.7998314832159,-232.6125766761,-394.283391108829,-423.218184343191,-96.2750628626534,74.6403939710599,-237.365562837137,-433.393433997882,-284.661479365241,51.1480942753958,-316.506662536396,-217.381361350915,-288.474858424776,-55.4658428531018,-21.7028344061977,-296.797268232255,-232.016671470814,-245.026144587279,-104.330939599171,-170.542306084966,-183.638247415922,-197.537568077359,-212.827164863171,-175.214002267194,-177.707506714265,-169.153564561987,-168.263141326963,-207.283982997312,-204.129129170353,-163.718453406285,-205.141362353442,-222.971484912637,-226.681242578642,-186.542688377918,-245.062184077069
-61.7428090121617,-77.5916808246947,-74.2620569778403,-100.162597849424,-66.6466053869522,-74.7976937349968,-69.1395434877299,-75.6524319003155,-75.0346726857801,-68.8722772675747,-51.589368209685,-127.846284845421,-108.247717520296,-57.4185152706288,-175.200448015981,-165.526604349817,-151.953672785146,-209.449180776824,-168.027130150475,-209.240964820378,-224.933493930787,-185.262985594714,-243.00893666302,-231.231046479305,-380.630971673296,-224.38978975149,-304.773568887233,-185.646719890568,-154.231184274117,44.9443928248097,-102.729876953219,-91.649411949612,-29.5220114362838,-28.2500500069471,305.199154930292,-75.4307343831126,-48.6368187981607,28.6573858032145,223.323848134898,-97.9708592875447,52.4128999733001,59.0149005686413,171.160806644015,164.863305688467,-38.3054560638688,8.39718476266114,33.1913734366045,104.220548771242,74.3793390967741,65.4561407212696,19.6417602088395,8.07170956120336,53.4530880077209,27.8363246061224,21.919209056986,48.4340009999918,-11.0874008887533,-32.3851269884451,23.8393497110353,-42.3162189031346,-71.0386714811026,-71.7775585465334,-23.2103459208513,-134.679944321132
131.794846871706,124.253571237967,115.891856358741,101.136325558545,140.880450575322,102.282670157129,129.519458522846,137.271317434819,107.906486666156,128.351129154376,159.427093333501,41.6796006060157,75.3779356322718,156.972062970154,-8.76139224650119,15.9569568061396,-10.5995106682727,-39.9130401322253,26.4138207196198,-76.1822089856886,-52.4692788374716,-81.5291860761999,-94.5731490240498,-40.5461898627803,-288.847971888358,-53.1158371115409,-259.150596154933,-49.7536113200388,17.522844274332,188.979687756639,-52.429962406084,115.64086356161,332.974758237188,132.860188224333,480.199316650886,-30.537359995679,211.759949937597,280.339211288862,432.758721751097,-27.2349915298754,250.882354021675,294.606758747044,341.808237282634,155.819935096143,127.778224697342,192.245490039431,298.16545101346,216.237935256684,291.221550686852,301.449955621778,198.091036242325,216.337329101301,260.567194049204,207.227154014344,197.880257084203,255.980215512333,174.249074001441,127.921704568449,189.402524608397,111.277172780871,74.6885955117727,75.5708176194513,150.377361221263,-37.1969482024044
315.318788326782,317.000797473514,300.977015020832,301.318713755362,337.661892870772,282.929244504619,323.660080635782,340.448750248544,297.977498495856,324.568509090643,363.80031950697,219.0735701535,274.198889352617,368.8092035029,180.22233311746,215.253483121131,151.458244579495,154.82399457554,239.339355224283,88.4347819866195,147.075320438327,34.4505568649068,88.4538554786567,168.366873117719,-153.268323118596,118.101860086365,-163.340077290514,104.306279908217,141.834793772267,369.310436875031,-29.0802305175648,236.925098074213,600.363998148137,411.127399651516,558.153489764391,-7.78772960537677,376.512335555798,486.236541833924,646.32917497299,-65.0599112534882,386.428476639641,473.644189016206,400.329396534939,111.427341384685,285.608142636318,307.475229422289,491.948689829352,283.825395168926,443.78926175097,488.879879325108,321.824630321283,378.300109478651,402.80488700952,341.065176672433,337.026764373284,420.26032562403,320.283324503273,276.307300821189,330.169125132692,256.83087843103,226.230453930107,240.292941146215,315.1097108936,114.324035278048
478.822908451664,490.742642195659,462.302409910631,476.423348444337,513.993670491224,444.795392835205,493.779021754472,510.062449084947,472.826191450463,496.13338114974,549.195588294986,375.233481505325,457.134383094293,557.590219836498,350.89349568049,401.48968964381,295.647611545266,332.481541500064,433.547322045217,249.063811306993,338.496439513864,136.718939415315,257.681894952405,371.666165995301,-0.960940546069819,276.845867827367,-35.9593144072116,251.809521617528,270.19407292028,556.698007913703,32.1240457652343,343.373448176216,754.562025682096,728.026971161484,543.542867366059,117.457461350637,556.433382417033,698.542892412573,827.024329523141,-88.4616966997004,486.421378632916,690.014692778689,403.752841088703,181.231363635071,514.021951021882,443.778063321284,648.711674999807,413.555730654943,589.947876051595,653.028055438041,459.45139900949,526.728215825747,533.151947381835,486.644747109622,484.053714623639,569.859840666951,468.013692849103,454.306555393782,491.85911995171,428.287510549523,419.742914728308,458.750612571783,482.263643635762,370.340198248883
647.315241461453,670.551834227741,622.610032707451,648.023321329551,700.801447684292,609.248441527628,663.69143507295,679.070192712579,643.625466996952,670.61669201734,740.770695988446,534.049291847282,635.076588351888,746.324252244558,509.485104988558,582.669354174352,436.567121712263,499.248029831946,616.08247181633,399.947253819352,518.622404805814,247.307801091804,406.832066752116,570.314091898863,138.269347732822,437.040233409981,78.5522359922536,371.715677373165,472.695192111416,667.792989182509,191.746806456787,538.821301198837,927.395456082555,889.377136668561,433.611895953812,435.782728470559,880.370326016733,986.147330228131,886.078618628298,21.0210977177281,645.289111459486,1009.19865976292,511.725093214732,397.635230927014,832.863143797374,643.378669329069,832.188649277302,636.30933679721,796.105732235071,835.073149609969,654.713906444539,716.55739690783,704.348512506706,693.851238849081,692.810860892751,760.592942407018,659.356414607341,685.113690460888,695.4063186134,641.842377168314,659.547776796822,712.345295685844,677.549368710883,665.882761999726
832.55141084815,869.79030254232,799.818765445548,839.836971867066,911.148018349227,795.411083607327,854.921948893075,881.647806389009,823.016392276663,868.733722972526,953.989548038177,719.058034022385,829.801434383159,953.746799490743,687.655147606602,778.574179645333,605.859655854323,689.504909107108,817.813706905372,564.74465336557,719.182006246313,393.325143433907,576.958228638817,799.114939683726,279.035889588414,648.671444196629,158.825570873804,496.441854125043,807.549319022663,637.897716784204,508.043422397218,909.712223948525,1277.17013861273,721.902537087989,199.588070305801,993.05820185284,1415.84590594632,1357.66195304134,683.422898913298,380.386124475864,1033.53815327893,1418.05053345058,880.731334121521,740.722139293949,1175.38070393482,843.319385323072,1043.3653657309,882.889751215641,1040.94163450824,1037.41487049023,865.293280047755,945.201853809849,887.621377472254,930.893994345642,944.620202355717,988.563344709604,867.600927152626,935.492917057808,899.746903636776,868.828134520689,907.795419947711,959.065694438684,885.98552010376,915.245273805601
1014.53741180037,1068.34005547145,980.198935462918,1038.7536953618,1118.92999349718,984.008417599812,1053.2195281651,1106.05485653801,1003.2445007606,1070.62530021888,1171.13317873292,909.056463003061,1029.34962919812,1164.90226718489,882.027703651246,983.8876010419,796.174833489787,905.048343032208,1042.10273193352,750.738983802881,951.230136162301,561.737169203077,785.023788414403,1067.99638332415,446.25703318256,929.957632885934,211.649654964085,658.840056687597,1250.86844159794,486.043696890277,945.003376732124,1451.19063650528,1792.22238663232,248.404364938334,-136.639365446329,1674.52305070637,2122.24386393708,1757.00175025104,188.357291179661,1027.81007561394,1703.98276218085,1864.28758101548,1517.29428419339,1229.82989729394,1479.10329580677,984.098528787479,1221.84143850335,1066.21016279604,1237.76977439794,1211.91205287498,1034.87867626953,1136.95645776261,1031.25393940712,1130.84330027135,1156.38652018177,1173.39633574115,1042.93346879095,1140.17075931524,1058.36605225192,1065.13233734337,1118.53262331917,1178.81080769775,1062.26390322505,1113.11513635043
1156.50331786957,1225.19413423151,1125.75704552624,1198.91805712959,1283.43301721707,1124.81986203345,1211.94472802695,1293.44474578565,1153.09029952636,1235.29536008528,1346.64493546462,1054.92433503784,1188.31496015447,1336.42890802691,1040.88866619509,1156.97128615544,949.365176807501,1091.71732124327,1239.61050714593,918.016074926245,1157.86844479212,699.913094399678,976.470077248374,1306.2412441285,599.158458890563,1193.3538606022,233.857007347904,803.809982574238,1649.27135156573,279.448157202166,1301.48668095213,2001.4725500996,2275.42236565751,-318.295662360621,-433.533319875552,2126.81184184081,2803.2840755139,2086.76022145774,-383.183116108838,1724.46073828481,2366.64333372819,2254.60537811193,2163.44213431042,1799.97264961762,1713.53712983975,1077.57992813593,1310.12045672895,1154.25710800919,1321.37899696013,1300.71551622992,1154.00501300881,1215.57697381495,1119.3322250037,1266.05502065715,1261.41255271814,1244.02668551266,1172.83281812652,1245.49499522021,1169.306329278,1203.13849004636,1258.84669673717,1347.27781212618,1183.16623679512,1269.68077789019
1220.05001140818,1299.41720077304,1192.61112254821,1272.12568154242,1364.93120230917,1169.66255682961,1277.66684684846,1377.06926209573,1225.06840656979,1315.57245952026,1427.20426343254,1113.06023253619,1257.63034016609,1419.78939260909,1107.56604303288,1240.5595899071,996.703054547747,1180.61566801977,1337.0664307858,1005.24923390556,1252.93247870939,751.702689219261,1066.97701686753,1410.60131376835,656.490676336309,1312.68891131447,202.731291488466,843.963927354434,1819.49222521977,76.3411710605545,1375.42698604135,2319.3018972417,2509.64464068259,-748.288065574801,-517.343940735275,1999.69757091696,3165.16963575045,2220.86897740777,-727.905863723594,2013.99188154236,2571.95736594695,2417.39604028094,2439.57910073306,2205.34754362995,1794.49907102352,1143.34191507974,1294.81352669288,1166.25521029093,1292.98848812638,1298.83124880463,1227.96279655912,1197.42208796109,1140.80672978194,1346.02457644036,1271.35716237308,1225.20614713958,1259.31863559709,1252.40540318204,1238.40970854629,1275.73969980141,1319.43891515942,1430.8285742479,1248.36476486487,1351.59159590774
1188.68611968797,1275.33341931563,1160.33224678087,1243.12726117889,1342.43255103055,1111.57657323573,1230.69451478032,1339.29854579353,1192.34250543277,1285.14057970692,1397.33232437787,1068.60419583851,1222.5308253407,1395.37387094177,1066.32095852457,1211.24103645953,925.114712843407,1150.23117416489,1303.67626234378,987.503032900464,1214.4712517381,700.781432247709,1034.94456927089,1359.31674274349,605.263254934737,1268.8887246903,126.606289046959,788.299132027264,1718.98951334241,-75.937745137968,1167.73358134048,2295.15924563957,2434.53151241008,-932.518014219783,-379.883531380516,1281.3036727668,3054.90532797774,2106.48921486957,-736.682342153466,1644.0525457237,2179.46520460907,2228.39136860824,2193.45072195421,2250.47406952407,1648.07654186514,1161.08095078778,1197.98151899917,1133.96276871747,1203.34261790647,1247.0437867392,1241.86271595168,1170.21591011961,1070.7960980319,1379.30733249235,1253.60648931981,1209.66093119533,1283.13440296104,1224.37191057744,1234.47528189961,1288.14652341789,1319.81543869296,1423.81923568752,1249.36740221737,1338.28815915493
1093.39384124323,1179.64875592158,1060.53731272777,1146.39708161237,1243.94643995897,994.953178667445,1109.22221880625,1227.25635828276,1084.29922221637,1176.92561848675,1298.35893266221,953.267474068446,1119.06715502782,1295.44884789923,953.090299459723,1104.39657855172,793.14937315596,1037.98135799121,1177.1288553667,896.261780139762,1093.14598348128,592.851790036408,934.82961669659,1216.46563410742,515.267844875619,1140.17661271394,73.2838762420567,707.604265393494,1452.05505110463,-148.657734871692,803.324111047186,2010.6274996135,2148.21673761549,-853.466251952853,-207.074094758933,351.778287142856,2536.17873861395,1812.92930397353,-536.869702444896,850.697115497437,1447.46669908232,1718.33156752617,1606.24505241997,1933.18409697242,1325.14111816565,1129.40857531269,1073.22123103753,1091.78128995485,1121.97286950554,1182.16372156992,1195.64099621366,1177.26015733399,925.445340435008,1367.16888777344,1250.76605963782,1239.24354385137,1233.92040808405,1217.24147119883,1142.10630562853,1251.0677227882,1289.70274446698,1356.48720291949,1182.95387919617,1266.37730338795
982.438443844124,1054.43103705451,945.588215581956,1029.10384972395,1121.48544360158,870.484241213789,970.20728641057,1093.5192437005,956.318279581709,1048.48742794755,1172.48075609034,823.06368384235,993.840672704923,1171.14799085387,821.464548904326,969.521218540478,667.148768725219,891.015809152709,1006.31458128982,779.925490489838,923.016922440352,503.599580980267,812.190271883949,1023.30493032697,446.96436645414,966.904457642501,106.920772682876,606.628324498793,1109.82371975643,-153.376720207757,364.199410617988,1544.14048496717,1737.03808635122,-528.24251661373,-164.917889478435,-280.150769230196,1693.94091364645,1377.71846777628,-326.65232736508,115.74634322881,676.438367689088,973.5157801364,935.046063782713,1260.51453006598,893.994967096265,1075.94082923804,982.052102440007,1050.01892445819,1081.21303744434,1119.94205000294,1110.40405537717,1169.81441336055,774.78751347515,1295.9777132907,1224.52290216111,1245.31276514994,1127.74491471917,1194.53327530159,1008.16586737436,1162.09086533095,1224.43388599634,1248.99151773002,1070.91213965999,1167.77512436634
863.292778734884,912.018065557881,827.950281003684,898.965082864145,985.149296465318,751.59174982421,831.747123141854,946.31068965605,832.078492255274,913.611355438834,1020.95970739427,705.290266005727,860.638416302414,1032.86717948284,699.922791174699,822.362351581509,570.340073369544,732.416630957651,802.85632109223,665.324125714242,706.252819268951,470.746710080803,674.729171110064,777.992518418209,412.843757753703,741.828217943081,230.091542059992,447.093388459304,702.049376335603,-110.512187238262,-76.5563263111801,880.484584755612,1196.89255047447,-65.146148242794,-240.071935380133,-438.946155295168,636.191138878821,750.911290565793,-216.876753946319,-302.812065482946,-12.5075454430719,129.527645083876,285.407928912389,297.006902793407,370.42688997666,973.493948947503,909.429418349613,950.484861117424,1019.05533727344,1035.43480406293,973.947316131454,1070.13507058344,664.750044711058,1135.20463430375,1098.60019726359,1130.14790517331,977.60919229489,1065.93212818362,879.02978973274,1007.53231357009,1079.83783785799,1075.92849179057,934.879867059263,1014.94685131917
713.230027315655,739.443934470256,690.408163852471,737.988572983056,806.161199631322,629.833148643512,681.260330372621,773.955220160795,699.764315370364,753.490026173546,833.875055765068,591.782505548857,713.903082849336,857.552900280017,587.705737432503,660.740580239559,499.791685882149,578.074185757083,577.258652911715,562.577855429033,489.506188080504,478.287433921267,543.987780411411,511.939607554048,416.778529372915,503.597118412333,413.281523950801,271.004401755112,246.789186822685,-4.77634682644066,-382.895623025496,95.4524639098305,526.045779670498,373.484455668139,-288.861161506693,-422.479374137973,-339.804196209101,-23.6122550792796,-164.543286810308,-442.246281516434,-557.314807361553,-555.057121561009,-316.115647391902,-599.416978531923,-156.175177884222,763.118553949679,763.54999405671,723.847814543186,840.823761556751,862.277576134672,761.363174930726,850.875767526539,569.740622975514,883.529909822984,856.343449554854,879.978907833137,800.611589703301,809.27070638829,749.294508411734,798.591272055348,841.305204200372,815.341914271018,776.866152920868,780.223257686587
530.961903935113,536.192589671256,532.882250271822,547.581055390831,580.767739653349,503.988683855476,517.004115014411,578.047064473609,549.190690869107,566.448973749387,616.903981367926,473.708090922289,554.476145638093,645.895084632589,477.003647806195,494.417676129402,446.948204753506,446.474685845307,372.51853432931,479.152528098889,342.545348914757,503.228756210616,452.795823091122,284.722917224288,467.144283747299,320.719184764841,623.324604566567,194.400614167802,-168.148142908612,187.264922213924,-434.895711105444,-564.63783932037,-183.272778674345,717.052763591519,-173.473943823899,-483.429172809902,-899.215326892427,-712.573045592348,-44.9693990199591,-351.516017369026,-811.53641840457,-867.137153619771,-734.8550270488,-1006.84808958497,-541.352170224085,477.0630142964,520.065413876895,409.515580066029,555.502456260988,578.147377863525,508.405878457393,558.396824962731,441.050781182342,597.546662059346,560.326392839009,569.827023079219,624.970729748587,497.89548942199,598.448915050485,573.379836217764,565.168859301592,513.028896805346,595.583570170005,503.428524894456
344.273801792879,327.045407421534,376.251737032832,353.963320721316,350.973286832895,382.95917049953,356.461775752641,380.165672208549,396.262565345253,378.791780821709,393.811572542729,357.702041957124,397.034018608516,436.873057542193,373.571277699844,346.415261534193,405.070601495087,347.148108978236,229.04182064824,423.590107915172,268.664607676742,541.363491295476,407.588593607413,125.24856338658,556.454753502082,218.74359765731,815.904767418163,270.709562145766,-423.885377581862,443.546965049377,-236.288172637368,-886.045980094226,-708.898292815948,973.035164438224,122.232239218188,-472.297725272414,-954.056261919708,-1028.34692687168,185.186697020304,-27.9993980254923,-654.614270538646,-804.853697696027,-767.918366832655,-850.792196816682,-714.093459802387,219.839734907321,263.373468915972,129.508503357629,269.451376372175,258.095201882932,276.829355582566,267.936968080576,271.075596816723,340.716127563152,283.07108612557,281.50354582668,442.113291927114,218.111317707592,427.152886794581,358.045276289533,318.234548106558,241.312736616105,399.939940476422,250.714399206136
175.949452261068,136.839747271407,234.925138192243,180.582977275352,153.822137208604,273.77889685403,214.494252549145,209.467542119924,265.070672689452,216.775021134977,195.938695968205,253.726396829171,260.633050990836,263.636950852948,293.450110690097,234.022448698774,378.698501540932,279.040560685877,145.765888567079,401.499002321689,228.840689816804,588.087923695984,402.448766842523,42.8380687982655,660.811622706739,198.64484754035,956.989256750912,442.492169236229,-435.108552567224,705.59578607441,110.423040311628,-825.11451983438,-823.386508844847,1133.72088581831,495.15913695212,-183.286149200037,-655.115831525596,-881.014595746264,447.38307613005,444.850425279456,-177.2258828493,-508.502992510972,-385.864408178008,-379.298686375499,-664.56986602755,25.908590419647,47.7281672138424,-68.6001939303939,40.2917005543879,-18.7378252535793,70.0767840803496,14.4093108888232,87.3802654064224,120.086819962193,46.5987245833009,39.0378103829145,216.82902813908,-4.91968050490335,244.916766616355,151.611647104263,105.373451296273,13.1095548014088,201.672224381921,36.4814235278371
30.628609466341,-25.922373829888,105.368428519618,34.0680063773435,-9.79682811370003,173.081131845157,92.1086865001983,77.6829874845667,155.722015294731,81.7724860922131,37.2906420883901,160.563615559551,145.026288327628,123.997265235066,233.430240359802,147.579132432833,361.865867527289,230.296208396362,90.0286822947614,395.205830155536,205.000522635152,620.79133873474,427.437418778832,41.6343943353144,749.155774971197,259.604359224885,1037.73157704705,625.860601555286,-210.072734487183,914.489007357022,491.27022015639,-452.927041519931,-564.986331601519,1173.43699181112,836.577850344042,323.217558901379,-204.550240308885,-489.260307392567,666.139432107966,907.937929067916,405.656553613216,-161.483790668495,193.078813191656,113.920738583721,-419.81851236325,-129.657550388729,-132.140163747333,-216.670133957884,-142.842181590027,-233.343750070196,-118.292483314622,-195.62885803082,-74.082662401326,-74.9758042852313,-150.441618151473,-165.841158878334,-19.0188491901716,-185.273352288153,68.3461977868577,-37.8162715117076,-91.456294137398,-188.004304233032,19.3155642764842,-153.797099663893
-65.5482721537347,-130.601951804545,6.01060046758455,-61.2682123643579,-118.045018631481,92.9077036671671,9.25071744454702,-2.447101409748,72.2142088251934,-13.2070448634401,-65.910665476609,87.1750295028365,57.1798113035725,25.7318139681143,182.378622068228,80.7339052335174,336.399250285682,190.976831961174,47.1896457371624,375.566733058119,190.482339694104,617.720104174088,450.404215784968,94.561150725609,785.206500823681,357.258292883184,1044.91015837744,751.345860059597,119.368680349895,1014.93186007311,786.889770627574,61.4459283153367,-199.353913121061,1092.21617720679,1073.73690169523,802.970950862453,236.445080817148,-107.13796434929,826.101137288579,1181.61476033778,899.007645296937,121.588457841202,661.33390044362,440.343895081947,-47.9584126063218,-212.661171127202,-237.930148030486,-292.009455581591,-246.667410161164,-355.511768025082,-219.918821230512,-313.471514704321,-157.561044428859,-189.318852083963,-262.31289365978,-292.77623578408,-161.022519525209,-292.672905754477,-50.2232478942722,-154.132625603345,-221.475410182957,-312.643062224659,-98.3541757609936,-277.252052214293
-58.4377758051896,-118.657400518524,-1.05439649955701,-51.3591263932995,-107.770237715715,79.8394781684216,17.0980728495637,8.48906598020318,62.8619947984548,-14.5789426896879,-65.7280022297935,79.7735004235618,50.7549537683868,20.5185081438109,171.717251570806,75.4238201615652,324.246978720434,183.697515756035,51.0827161109279,356.099644420988,190.898912606444,594.318840452731,446.788382390824,164.358564654153,752.020876300143,417.620811837596,966.038225275403,758.596915587634,375.659620640642,970.27609419538,892.676380835533,476.469477193976,122.553861670692,936.481440841489,1154.04196743875,992.182741778003,530.719344530467,239.063910083102,909.388326023902,1102.98214445114,1076.87291558563,359.748706837098,795.798680667214,538.00029281684,372.535918205124,-188.538559854168,-229.484839208287,-253.487689381966,-225.33946347191,-344.437756337026,-178.461919399528,-290.045216959615,-121.107211891845,-159.352665288938,-234.681112577196,-277.87913743085,-152.522417258486,-270.582515360009,-52.0004440288534,-137.753310773038,-208.905930639489,-290.239601503325,-95.9547771547436,-263.888654766498
47.9997380745893,1.05978945075702,99.059634347763,62.2793800222283,18.6113932288007,149.740535203681,118.269994676471,111.686310081401,151.712675281526,88.4292445663083,45.8938253772176,162.004935021839,147.986080259724,122.224628111399,237.624708306825,160.360715183336,364.290523676747,238.682412954377,130.375543425625,376.706848378894,231.610258249807,585.183914713313,434.703728602492,241.597848428066,679.031200296274,421.162133502275,836.044734797621,652.678170969824,483.543878957658,803.76783102368,825.88042095346,649.98699103051,389.532292986688,738.22546942396,1105.82185117192,812.245105090686,579.685689842112,559.601970616401,893.436715892588,694.750497739485,793.885687706022,559.326361611345,602.417354266203,458.099366803219,773.142854637082,-112.49085552856,-157.693193466979,-150.588726209836,-128.694495918732,-239.8052546825,-57.6436239013851,-173.043968695628,-6.61415889635498,-35.5976282094874,-109.593578473138,-152.385637073733,-53.4749306869046,-148.201196202419,42.1149592556279,-18.1991829908474,-85.7486211959035,-157.024693134588,6.71135699116345,-138.37810636217
159.926665297173,126.196857024284,211.909850926601,182.943963557077,153.800147489661,233.608660241304,224.691229091069,220.000925465746,261.338190477077,206.863080620047,176.125785440747,265.912583233011,264.88739403684,240.682988262047,332.298936764909,273.12290440592,424.664666402576,327.042916979347,244.187206270743,424.031268797624,307.04165626179,583.963498484028,436.554506359686,323.784887753263,606.691410346205,411.083136544332,724.150825673935,520.877927944331,500.409096710482,595.883453728078,712.263987765029,617.869230542868,528.975608436652,499.796845632772,1030.70459497929,489.071322135688,398.200193904406,739.740288912812,814.173948611363,217.032648056784,212.11272122931,637.938144563806,290.965625073435,262.086064194724,1137.64754080818,-18.2798975486768,-75.3674209139476,-37.5463564642069,-29.8319612103218,-120.67154612638,54.2901595245545,-51.4716776433049,105.645194475381,72.2564529066018,12.2035426780589,-23.7105275940947,40.1243536934379,-22.9580211391353,139.437929707048,102.354342699456,35.4369058323754,-23.0254061422527,111.582463207219,-6.73561746748205
209.200248902193,191.826615551808,251.736403710812,237.976572086555,219.365048937466,259.809587378069,264.264789411719,257.041427937234,300.245956648521,259.516248263649,236.286457943324,309.339752534537,313.406648347709,282.191914002862,371.766190723461,334.157449529894,435.753487054752,381.563934378769,324.766714865772,441.790805391267,368.581409051402,554.65388314667,439.668674223183,393.777776232371,539.958159010616,417.480123905445,661.526337167744,438.46116511762,496.214457825037,425.823711340391,632.352605576358,471.663832510765,506.097297296356,296.712565899988,985.015189877394,291.727798381008,129.587911132542,747.742965603278,747.107546641158,-83.9803854605737,-338.586083902939,583.551782563471,7.02635786944547,-64.735428584871,1463.50519664632,143.364431095517,45.9428551979364,114.375407451301,81.3819780803383,1.72835624799611,167.649056815245,62.0560368046876,204.859758546324,145.20044527084,101.586941699665,66.2172259712864,110.002332707698,71.8181121200927,191.460259052745,177.971093575314,113.396123717363,72.4953146089099,164.808463301245,84.0110996757191
238.442072339928,245.83638970886,257.140787430605,270.549816894476,258.483498749029,252.988869510496,272.743035542521,264.712899881788,289.58113542871,276.841242197129,257.599349068889,307.968397941669,315.4788365782,272.420224951298,358.128740704581,353.632717858622,398.432829144033,390.127586261793,365.17427059382,420.246045533494,397.926426763148,499.20850023366,432.967485934228,444.768962467609,480.061357794777,436.421889499726,624.018094626202,425.942304475007,486.693173081133,347.830211022813,591.417869978144,305.994667607756,445.926506203207,232.969130984467,1001.51305506399,248.893226606514,-51.0537573413439,698.119156820768,735.411294878645,-157.709820476717,-606.468254691468,514.597963786325,-227.258017187724,-408.820064032437,1641.30135478588,380.063103765364,232.419770520554,326.53847611317,242.594880818232,165.031008548025,332.551420121882,215.213016138645,335.688790590001,251.192633247346,212.947314121079,173.574504083774,211.057858519277,187.192706562228,245.479226611356,264.19536129837,205.678646826911,181.506062471365,221.072758723379,186.217968125515
336.022684301338,371.593482812609,328.31422793359,371.426671289183,371.126163775718,303.420532949492,342.357188657759,354.419430947768,332.351364565616,354.102062099173,345.318182520612,344.991108678731,362.34021959308,325.368311521892,376.369704771822,408.943857251656,387.361157834774,420.374133854142,431.680466338548,421.936638807233,448.699346358477,464.935043221709,457.359992002741,517.573552707839,473.558316532607,496.769792461739,578.324077918416,522.228477664266,521.032729397248,423.739498477229,638.333623203059,281.822915805013,459.041474895696,264.500541011213,1173.38474753386,332.847634101724,-19.8597865339395,701.313721057866,811.578007332284,-65.502279212699,-385.392912741248,577.354099936207,-249.703876703351,-357.333478802379,1603.82447080361,630.318149426311,472.231952809294,570.304148923236,466.282838971466,397.345055107308,552.881048737678,443.904167072254,520.174370614462,441.763113186435,406.670429521111,372.676627822901,388.349636554929,382.68222150977,374.61475244127,429.944000956274,382.384219433275,369.258698071354,359.158439052866,371.489069410718
537.505608022598,600.014169962783,508.30626616036,578.158295427754,606.710994657812,466.730326069873,525.558324190115,577.955062863791,490.313570272035,545.212355190845,558.430661985427,472.053029813585,516.263832859817,516.034902134054,491.729259725815,559.181199242395,467.080186079282,544.150993259006,596.03373554982,513.904943793181,593.564363568458,492.189589234479,577.321929159639,690.226036352002,572.019638983082,683.255710298558,501.575685136678,791.602265699497,738.012986256878,688.231930686659,889.265107522609,573.13956443489,580.518654210286,250.783200516691,1511.53922205029,709.196728110885,295.489606147343,891.730865058817,1003.68921792685,180.719227130755,435.332526325587,892.00358667149,213.872216408232,402.636579895814,1560.69389943065,873.536945004961,766.217884099006,836.500181127485,757.822091946868,704.672368019609,807.815323788545,747.991570407211,749.312598192584,713.012481978868,696.396010041811,681.643110245564,636.321943373519,678.252352640135,595.54651270311,683.914037098082,662.095184017237,660.538967925345,591.628207003031,656.190949714863
779.235945473396,867.285758229551,734.102502634586,829.000245736598,893.951804500118,691.971931475434,771.032883777425,853.676706961677,710.428903128256,792.609124898306,831.152063951709,654.841860863345,739.143547860479,783.272400715874,671.56731223626,774.026104649467,616.524728838296,739.735168435866,836.908888118862,674.5054561367,821.145608083354,560.458549867697,780.724402366815,969.234718677994,734.234809190208,1005.16421240152,374.728046625074,1180.06698692516,1187.74149507366,1038.45510356252,1348.12600462135,1151.10381511976,866.796667049875,161.209178269361,1786.45918907429,1453.66961428931,824.336910008647,1379.71454154806,1192.73391408938,618.890257089197,1556.51966834823,1455.98080930676,1096.38815174457,1577.45225487327,1743.95818719834,1105.8606071931,1070.50113007602,1099.91528523375,1058.2297215223,1021.65479239817,1051.00187003883,1055.10179371026,972.443682925919,988.809309047044,1000.31073935477,1007.18183218428,885.776845204123,1000.67532015035,837.194061703986,952.363390161821,963.285756175591,982.005158013768,844.62836491546,956.198710040004
933.512646046391,1039.75829238426,880.839024962948,993.886435559127,1080.50974109081,845.371393883157,942.831639550743,1029.09567972363,862.723359641811,958.767605374225,1015.76467961131,792.385599745636,903.82922350671,971.478157586254,805.270740181926,936.048411381571,730.112667788257,890.241412099895,1027.70610665882,788.89003288102,1008.01327415225,587.199482010333,945.068834803019,1219.09754589288,830.842745692912,1295.83698582419,188.368528243082,1464.74432504279,1655.49689008262,1255.17650799567,1779.35381785587,1697.5202250167,1275.19503218457,67.7916052635231,1721.63043545803,2170.37518659931,1272.98141500139,2007.05549043418,1118.26061922894,1106.64609879403,2295.31582902579,2039.81358102695,1860.63521758332,2483.53577376601,2045.3532592712,1240.35685654073,1258.83867654107,1253.06446950899,1230.73406770391,1212.36947446788,1183.9311060411,1233.11904334966,1084.80301172205,1138.0332750487,1168.67961325361,1192.6869090697,1021.93903899816,1197.85345459494,976.800230395648,1106.08258813206,1137.27745514681,1181.10575726428,995.371774089353,1130.81122553171
940.411239028208,1052.77044607125,890.803228586277,1009.96599034186,1101.9960757031,850.002359398791,965.490638944104,1047.36340904158,879.799642709087,978.590074573303,1049.31700734553,820.938487805482,932.683314465268,1008.83539243356,828.666702521973,970.118441136042,732.360862758818,919.904594520006,1081.89270642779,781.716708124682,1057.45800657176,522.136185086579,968.563357732511,1310.61554620069,789.571443940603,1394.22849889933,-38.2720386872105,1474.81937871337,1869.06447989635,1197.5966554407,1909.77468751127,1890.12564793258,1597.68585845312,-10.5466270094599,1317.63204308284,2302.21940209537,1406.80475024163,2447.95991142042,702.353895313618,1330.66996210121,2216.79550449586,2391.81339238409,2053.71198596994,2734.34934579406,2231.07179642199,1199.55872182536,1271.93882978924,1225.4963581255,1222.41087867049,1223.63974492955,1148.93601825661,1234.14197953479,1035.55756612765,1110.03722900671,1149.50515030795,1193.39892747895,993.573673366138,1208.48617781376,956.237534382323,1085.09934422147,1132.30725236848,1197.79119374143,986.147189737277,1135.51265973069
879.091416798074,995.591067519445,837.429765027323,961.014113447131,1055.97418361811,774.681007213593,912.912315645555,1000.75208869366,832.013682230221,936.156188624158,1023.14963736633,784.453159000979,888.407808869168,984.346731049917,791.988732854779,933.472872331912,664.365354300899,879.445283498159,1055.29946097654,705.627190271886,1018.70891489531,414.019256096032,894.502730407547,1282.9758994746,670.119391970795,1349.7719811822,-236.321855393811,1289.43251783881,1811.79445162478,943.396574056878,1717.56660358555,1719.98269489857,1692.72012734786,-91.1485418209593,870.990677890432,1796.70718371458,1305.08400040016,2556.08134986235,246.796175485856,1247.92088280346,1575.03407055591,2475.28490578964,1783.61878615404,2485.21625899403,2267.47866836792,1064.28170363776,1207.7077870754,1107.54122623722,1143.16376457289,1164.61648030325,1030.19070698174,1166.49030082168,918.239243545679,1010.58738401706,1061.90792192717,1130.41244651976,888.041708231549,1145.13318629576,858.325060986529,981.469517639362,1057.80837829361,1145.4872025917,898.61623969186,1073.35691459552
849.625109740604,975.999244633719,810.463999444768,947.317541856383,1048.62111363056,724.590384514204,880.400801604991,983.187015682328,807.744956624405,925.592661101274,1032.41725297761,752.558532833816,862.471624669944,993.652332166901,762.511740700402,909.928207303751,603.771699462191,843.158854516259,1036.85742774176,644.481417324648,986.249078920383,329.23432238731,826.231353608694,1244.86129685975,564.823351465271,1294.45736596342,-316.377405828708,1099.58127859932,1657.96793825067,701.781662025826,1406.58308226838,1406.24663854151,1586.56120728818,-100.110251408855,676.8255837808,1162.82356997626,1122.02867401986,2363.58116683095,122.296573053891,1194.48250760897,958.49538059221,2315.33788079617,1465.03163413316,2071.66045788475,2158.62505221687,973.868775612813,1175.6267203681,1024.1027639821,1103.59808895785,1149.6177106294,950.475060885032,1139.38612784004,848.00160646435,955.06869152871,1026.75687396168,1113.9599727392,818.672637472022,1123.95034821055,797.039282042648,916.64580510342,1020.42177691874,1140.27192647384,842.791549626055,1044.41357162975
836.225358910418,966.752779880619,791.886155271093,940.256233872307,1048.95294387542,699.227793292592,849.424490310691,965.541796787184,786.698786570686,917.002930011415,1040.24658955323,719.07670159124,842.570574013342,999.453578549513,731.200293657556,889.05068003791,561.834940987419,808.719298507758,1017.73221845687,608.080076800072,964.351761247759,274.882433712954,788.297884081191,1205.97310128323,515.914182684976,1243.59571025652,-247.700784426789,979.834074944216,1514.0096148738,582.461743987657,1171.35348590585,1116.1889813619,1352.61657379631,50.2265146185961,736.0046240145,830.440075355814,908.286171616868,1906.34592039286,300.317072978436,1395.78865765856,676.437535288568,1877.75019115378,1284.31824675628,1669.01449368608,1788.61726469961,911.045711034929,1138.89730941048,946.708065790943,1060.87548974736,1132.24585750614,892.072741785299,1107.45770837814,797.703243953185,909.720504340796,1001.84027231036,1095.24193509278,770.428832270359,1103.98795020582,754.586575612665,876.628505714699,984.95657096015,1136.81967910605,805.746132426994,1017.89243597728
749.420504034736,865.922970817638,703.900637488024,843.316838284207,950.206424630747,626.895836220393,745.688772146216,858.410341533902,698.931928063519,825.169318229452,946.260221410245,635.215267254784,756.552509250822,907.951986696105,656.184332639108,809.594834582908,505.738239624632,738.805581443353,930.880571709004,566.632048642087,901.946159612493,241.515711251218,752.124010755041,1106.79953531368,542.25767931519,1155.63051639401,-80.2769851429459,927.702248903225,1359.30760391963,543.822816484141,1098.92031664735,880.503633255682,1057.274907366,285.218019337891,826.01559125134,730.899331111255,748.820749003715,1261.74934252006,414.405025597938,1688.2150215443,647.318221585132,1248.27532657983,1115.69561175645,1292.72464530518,1162.00225140711,744.67894458605,972.725324723354,761.229205831019,896.228077724201,975.495623444625,737.092428714628,950.753709149376,654.883664371404,761.76843145023,863.848176582021,948.809518645098,642.117206793576,969.723917894319,626.896163768844,754.633542540523,855.086992168509,1014.38556501582,692.019114331057,902.644020929792
550.381322331319,636.242061597813,517.951090287117,624.809184939997,706.877972411163,473.08702275262,544.257731931898,630.282828291234,522.982568352022,622.143281453697,714.471925750379,477.841065846152,572.912213263193,694.246185060751,518.224625196061,640.512881471541,407.773734937862,605.794979513155,742.940591529489,492.549018467845,765.05072700578,217.480847256118,691.987716832743,922.407663114193,617.00917216926,1028.01101139694,93.6387051559908,945.654699694787,1159.57079703098,537.644768841183,1182.52505944586,701.293983221918,734.824057144101,453.136077131961,787.850505270307,682.113959974543,684.174882125932,596.505877335625,276.321109864773,1819.47341459961,707.332351514354,639.840162986152,865.269878360463,887.825594920945,506.985768657402,457.752551445948,639.018187185862,467.672403478434,586.693283208027,640.884735555184,461.72733172511,642.166227978373,395.693472299463,491.871730304903,584.528796331968,639.585571023584,402.898189818952,693.394583802744,393.007501572699,512.945688923421,607.820181453894,745.920054519409,469.9506138806,673.287053519725
273.162482671134,320.14058645544,260.264860246362,325.19769365516,363.951411821006,248.078120995929,271.093619297207,316.839884272169,275.325328853289,335.122676640202,386.613264862198,249.999037339179,309.217759407873,396.009119960895,310.728703525861,385.699456680234,248.194170360408,388.885585564197,466.349639678171,350.669633594495,539.830381040661,152.129230653509,559.153994969152,667.060207107353,626.317229212903,838.336763309013,180.504887850384,940.505979755799,931.726995154375,516.655118736367,1288.602934581,625.552977471946,400.929774931567,502.360242896881,591.078066555158,775.527253344608,601.276702700451,58.5646810530036,67.4992340223507,1752.02670661905,756.094394608829,174.262056339677,602.313001548682,403.727209073702,1.64563364521926,158.778128306097,225.664948895087,169.224143895336,218.558721949003,219.142879371177,157.693050300252,256.973640416294,98.2344897684662,181.104536213977,238.481963508105,245.830080032858,114.307717185687,342.288435901155,121.40479182137,207.137722657182,289.86475847832,395.685782976568,190.15101923972,367.01219814919
-26.2006770119064,-18.9131954820986,-26.3856008857827,1.99504892303379,1.95134826028108,-20.123982827595,-26.264982791153,-23.8785513876388,-9.41881087735042,15.4718478874809,34.0235735284054,-14.3547204931329,12.4773641920668,68.1717927015095,56.6242569854122,88.8514290727559,41.9734620994895,115.603237637854,155.771938219499,146.88357192424,258.917715310094,24.3905318722258,336.348344759383,381.35081815511,509.274531094119,563.238330319748,168.697054276308,793.166604875473,731.476552400582,423.803634859036,1254.12884021522,672.56592334548,162.564797693631,437.839864532053,335.482536800752,1044.81670049255,473.547161480697,-275.013085205795,22.476694703113,1584.49365559486,687.805879595118,-138.45085452386,336.604588441065,-98.0797932948256,-330.410811819233,-97.781663210535,-168.229227744497,-89.5839126888116,-129.299754996689,-192.166143863778,-114.855813209427,-123.571479278934,-177.613628846977,-111.699612668175,-105.613584288418,-140.389738663647,-165.3488815123,-16.5050717568278,-143.856838061087,-106.633416282894,-51.4081815617331,21.2555063758437,-99.7560698272499,17.40832898503
-292.535025820498,-318.300624124968,-283.51853888792,-283.889994960633,-308.122362727149,-270.367749200269,-283.087547644383,-322.096530720855,-263.939187737314,-264.291855807875,-266.879698417161,-243.371766290647,-245.990283452174,-216.500277115683,-167.6562520787,-163.776308761127,-139.166655263772,-117.404957053833,-98.3384811994289,-36.2600495354421,19.4685605624988,-88.9674842927019,118.641938152955,146.395465695002,371.260172421546,289.734269614702,147.853478941872,567.883813765237,625.444556540202,279.396989324755,1076.2784448254,752.420092867526,143.62754798369,271.848537927842,205.501345880846,1215.90680560916,416.641564440269,-375.120440501695,124.025535177267,1348.34185615473,440.509198638471,-285.8387941154,-31.122978745245,-483.15236567409,-474.509082402059,-339.510877441612,-506.349456361448,-339.613820446598,-436.072292705502,-550.257176258051,-365.312471864084,-455.504925990416,-421.654109759759,-382.595179084815,-420.841421436866,-474.395982311543,-414.840460762434,-349.271578930237,-396.664318740215,-398.157227822509,-377.595277153849,-339.817047421467,-374.856466875884,-341.681368047707
-494.288256188667,-539.51036954275,-468.070099284546,-493.167151533973,-537.214082743649,-449.660126279748,-463.289906836556,-534.451328528844,-439.471506453501,-458.37286547009,-476.652460370268,-397.82343066818,-421.669964028609,-411.08377607043,-310.733279330269,-325.068932931778,-249.900381982555,-252.082076120314,-254.58387062567,-145.542106260644,-122.233207670639,-136.412713488348,-7.09325398239235,10.1294048684853,299.114095393498,119.54570240877,159.880657238976,385.497965636707,584.218961603201,104.383393391448,813.253067135717,709.752651312926,241.579130302064,114.656448240153,188.756295183972,1025.37316464782,379.030224355891,-348.034981672292,183.154194354661,954.814035796616,61.0167000441644,-329.771160723535,-514.354476696666,-729.111235828141,-516.194840263437,-573.97782483585,-789.438192045919,-591.769023957059,-707.287198023242,-843.129262836419,-599.857535245387,-731.285219271963,-629.497424423233,-632.021324930912,-699.487557169075,-754.159799393312,-627.749215537506,-638.005345963766,-622.062789080723,-646.838328672916,-654.708373654412,-649.808185109722,-609.240777804686,-656.575765653442
-655.886482578057,-710.394420156962,-607.253264154861,-653.337628126939,-716.269901925808,-589.354912490368,-610.239505806213,-697.670084714791,-572.247832442746,-604.544718546554,-636.034470921069,-524.463369997593,-552.781184067138,-557.998887274631,-423.922461807198,-452.760874924375,-350.379399871199,-357.138213930275,-382.31770646556,-242.741858498425,-240.902844254676,-195.466411447032,-106.077381881829,-105.503034605529,211.34307346853,-13.5056605924379,136.230867924588,207.267275474433,408.731779183309,-123.546542739643,397.587129970463,421.858034607998,188.334185300399,107.845711359747,124.440583586868,448.238509572709,123.236960651838,-452.111265703162,156.388145161452,328.036503699299,-406.591704493829,-481.249867844766,-992.810530322874,-936.498226009552,-712.828797230883,-781.358210008347,-1023.31902262472,-826.730922184781,-950.556853115834,-1075.17485800273,-809.914250221294,-968.420756564811,-807.515096646641,-855.192251427985,-945.789946177983,-993.390110190872,-814.097985494294,-880.917857374811,-810.614007429581,-857.194832598658,-881.420554282944,-899.32723511523,-798.244621350492,-896.561273186203
-821.412223367655,-886.073247965471,-760.210307639232,-820.787189070186,-892.592252775289,-753.43991613867,-782.062450357324,-875.864956785751,-727.555874884823,-770.383566634294,-813.145286455327,-680.70137141637,-709.589742224566,-730.849841744965,-582.034450401918,-623.767311281773,-514.031173579151,-526.651233413501,-566.305620399192,-404.281948438255,-435.37437837947,-340.537340099638,-286.244215389383,-315.430857309327,26.5772697033508,-252.861391953683,50.6248660504384,-46.0974989022275,-68.6493226949025,-314.721624978238,-213.016664535607,-120.443900417241,-143.536151887906,215.098973203209,51.5962514780867,-319.668737765731,-427.045882424479,-833.836285543371,181.111028847001,-414.680890879797,-955.461050987301,-874.390918512653,-1355.72097284025,-1164.66249392131,-1137.94936737497,-953.025090830989,-1203.98579032026,-1026.28908697949,-1153.49822787029,-1248.92951028669,-988.763592401799,-1162.0766705393,-970.711882623191,-1046.49375990525,-1151.39642094094,-1180.41529543357,-985.209168833304,-1075.87553008322,-973.228992977232,-1043.83079829154,-1076.23551353951,-1105.88805399014,-963.135805785456,-1078.79381238895
-980.432997686738,-1056.95008120698,-923.457397122125,-991.025982583133,-1060.51664134696,-925.657852270629,-957.279274730538,-1060.56203980804,-899.359091257733,-950.457313727467,-1004.56192469946,-848.604791471351,-890.672451911261,-923.095871877724,-767.54255347298,-821.138876570288,-703.076308390408,-743.84922992933,-790.978097690097,-601.94066079321,-684.132991476158,-511.945206680756,-529.998330875006,-617.082201813525,-186.445484363945,-608.336995241813,-1.64395947248663,-336.422171182256,-754.487954610944,-329.639544772353,-850.648529107331,-790.506569221631,-675.414792611417,290.403891696484,45.6216930691362,-931.812890710733,-1077.27774840995,-1330.92935910309,263.054266353963,-1008.28330791244,-1460.1925441213,-1361.49598380493,-1601.18824523029,-1389.86661865628,-1513.4895512281,-1067.75201229629,-1304.79568839746,-1156.94247633842,-1265.57330236128,-1342.29995876613,-1115.03700249482,-1264.52779999435,-1097.89745194852,-1179.83259393449,-1276.00126456424,-1275.24877835754,-1117.70977963895,-1194.06742756935,-1107.13018182531,-1190.28973316371,-1224.35768903343,-1261.0097576579,-1101.95481423073,-1218.58158615886
-1080.11065737949,-1165.30889362736,-1034.63922566989,-1106.73179040662,-1173.6534850614,-1030.43945683882,-1069.69820693595,-1188.85198808074,-1024.46237920112,-1078.50577916603,-1143.6837143388,-966.531607167282,-1028.082062166,-1064.75466831524,-899.012858857154,-972.664280934572,-822.340705468908,-916.451273137139,-981.324557384715,-752.807472960262,-891.17877045368,-601.273158056526,-738.52178358423,-920.509741933541,-322.799578948052,-968.094126431712,52.3257438495751,-594.727779961192,-1404.63329351836,-246.551141036573,-1296.83430309225,-1421.82692770451,-1253.50732730179,293.197620199138,-92.9663745353642,-1140.17267912383,-1597.7338782725,-1673.62043566425,199.350652886093,-1298.82688764298,-1703.74477370897,-1685.2325375042,-1775.85544678858,-1569.38130804319,-1602.2860911397,-1099.09157378376,-1307.31992743222,-1187.80738617371,-1253.95758329263,-1344.35583979184,-1168.92539684169,-1259.77135154491,-1147.00794237674,-1233.91526090156,-1302.06096604641,-1277.12975658859,-1179.85395452301,-1221.73144528225,-1188.02648347532,-1267.59553996199,-1294.4384622887,-1338.89035109074,-1184.85389371792,-1298.47626727552
-1109.32694781129,-1202.71960545559,-1069.11990373681,-1149.78521556492,-1223.96176232829,-1046.53664430819,-1104.99800571031,-1243.52152353218,-1075.96450018213,-1131.87838961748,-1206.50594770566,-1011.4020532758,-1089.91470280855,-1133.26762196667,-947.109758800051,-1059.99693966065,-851.687078743524,-1004.04135187414,-1111.66496942839,-835.61971841725,-1024.61706915604,-594.778370072899,-873.44285173955,-1170.35300747661,-386.246244102739,-1245.1000174654,128.233363176805,-834.389956507614,-1847.1582898162,-313.754033454253,-1509.25536926472,-1880.77719235833,-1721.8463419644,205.420936710704,-556.581979799318,-1004.45647817635,-1873.1987682148,-1793.02533872923,-116.251554271982,-1358.61672958079,-1613.85049796893,-1753.56804535953,-1855.00368023846,-1639.34445846981,-1483.62285632878,-1081.09999812857,-1255.25563069977,-1158.56141613862,-1181.6052731068,-1305.90888796583,-1175.45749282167,-1226.35533773222,-1122.50949480296,-1249.5227873118,-1291.94523363857,-1264.26555889301,-1191.32256010846,-1216.91800371713,-1212.58761653249,-1290.04396248364,-1310.01073651879,-1363.47773825756,-1211.54563687304,-1318.32804982212
-1105.15034315125,-1206.23782713708,-1060.42539285766,-1152.1056651624,-1242.90367976617,-1017.70084665388,-1097.88329634717,-1256.48847993943,-1077.84634969213,-1146.15852120629,-1228.64196630743,-1005.42057168536,-1101.93900391084,-1165.00911741772,-950.30856154386,-1107.59731243762,-840.214628324172,-1033.83477728991,-1196.0069692355,-879.12565279289,-1110.44261436391,-559.505279961201,-960.690781326834,-1340.81066075064,-437.877045895005,-1411.08050358104,96.1062240096686,-1081.16827730202,-2004.67556701444,-606.30343365373,-1573.2312692248,-2010.45468832379,-1975.4592950311,-70.2990965596527,-1180.489783141,-805.583375306215,-1827.34614782487,-1789.52075785917,-521.211781794099,-1349.75215541307,-1272.39377408379,-1628.16051138046,-1730.74508159125,-1502.40610957408,-1346.86701340355,-1078.80953767732,-1216.598080901,-1148.9520533881,-1146.88916298136,-1291.0149902447,-1176.2562938685,-1249.02585371258,-1066.92640379855,-1280.06275089742,-1316.2087491296,-1305.39276690763,-1189.96042605329,-1245.42790408227,-1201.92729162939,-1297.64091287151,-1325.04396872423,-1382.42088611292,-1208.63782493674,-1314.51507722444
-1075.10687486286,-1178.09611572335,-1022.87364032293,-1122.61591670616,-1228.48055329662,-964.273657354119,-1057.4428828241,-1231.12182552545,-1038.68487132264,-1129.68251600738,-1215.91239390788,-958.431474543042,-1072.71128302509,-1165.12936750133,-921.391156011616,-1101.9313834903,-802.802015469679,-1013.42364086102,-1208.07226621022,-874.448148286728,-1127.66959813712,-523.526952565357,-994.050484123666,-1381.85964892473,-475.756645217679,-1445.35023271826,-31.3829643610179,-1269.55700806828,-1868.16092713533,-936.908019336197,-1544.05187086359,-1701.40253232601,-1983.79697534615,-503.327158858823,-1652.12548166347,-823.048611528393,-1418.72646487933,-1679.67397091444,-785.316896278583,-1353.62885774871,-789.579960298116,-1350.8579095663,-1357.58588314568,-1104.77922861166,-1254.33666915371,-1091.583621721,-1199.15433481484,-1165.26063790294,-1155.4039508378,-1293.39452906899,-1166.10104876619,-1295.72659310389,-1001.41251805354,-1294.96186073533,-1343.91691892186,-1356.01188381743,-1157.735436342,-1277.83176923901,-1157.50236423801,-1284.53188179118,-1329.28287917657,-1379.37599771034,-1171.46132886547,-1292.31075754803
-999.235838653147,-1097.33963576234,-945.739094773559,-1048.26539804063,-1155.04648871615,-880.337276785764,-973.755836563614,-1153.80969057751,-955.266469845146,-1060.06960925886,-1144.0900841245,-871.03705770791,-993.526041581375,-1105.37199025292,-845.122163239711,-1022.67089054878,-727.072690295485,-933.371764875801,-1118.47693759007,-808.71452142018,-1042.20563867663,-477.603891631884,-953.590258492274,-1278.70686629127,-480.596368045613,-1354.21924686076,-165.94632214686,-1327.96553339973,-1535.2045430055,-1139.94493729863,-1446.14380798713,-1088.14403361045,-1739.17338693789,-885.117769476377,-1836.66930224801,-1034.30233043347,-794.957644532439,-1372.10323071859,-870.579421977717,-1317.56030141354,-338.005599486845,-944.513080954573,-883.065498809685,-555.805412445767,-1156.48742962268,-1077.46150422767,-1175.32214763223,-1145.93214067808,-1141.55582447127,-1264.18395502797,-1119.46533170714,-1275.90979641599,-936.121419177853,-1237.98472372217,-1296.55974077102,-1323.08482031865,-1069.67817284831,-1237.7217843953,-1076.48305933727,-1217.34197855288,-1269.46566939761,-1304.28022759826,-1087.17308912936,-1216.41584831911
-897.851837435787,-982.803173442982,-853.445864437966,-947.006856430678,-1037.87735084543,-796.719148176804,-874.126779921543,-1051.99791508794,-863.925396357141,-957.060060321926,-1033.69159708629,-781.33891495446,-897.924401750089,-1002.43275027494,-759.106575736286,-916.064820419235,-654.176144805062,-840.00487387584,-983.254748502904,-743.044590121564,-916.533009609764,-465.370824243864,-895.726082213993,-1116.04562476091,-515.801681397404,-1218.17319577365,-310.591056619874,-1306.07601269427,-1159.06742485131,-1248.85782853769,-1314.41792837029,-482.027626811702,-1277.08226639828,-1140.93504878081,-1739.81736782355,-1056.28527555935,-292.857317854928,-887.384231858651,-912.728003811994,-1141.12630361315,-112.496592222283,-544.914114321418,-514.299862250917,-135.540474371849,-1019.9308255079,-1027.21206248324,-1133.18022228547,-1059.1463938909,-1072.41958017194,-1178.67590875444,-1042.71115996013,-1169.33432020374,-893.424049884781,-1126.55005108976,-1168.94455279052,-1193.78048968731,-966.793110189932,-1111.72905357214,-991.445119880384,-1107.21668413462,-1142.15220500725,-1159.16419203069,-987.100645986593,-1080.74914453605
-804.778252730082,-867.176321578571,-777.709069683191,-843.034525347957,-909.967506393079,-745.475823818022,-789.574182602277,-954.70875670875,-798.626726096806,-862.884129210498,-922.967690345102,-727.095072037224,-825.147776170676,-903.196934955153,-714.397326881458,-842.4110486108,-636.10046243658,-792.821292695766,-888.494094993075,-737.415541062892,-849.838476623468,-530.353145825884,-892.532922343245,-998.691677409178,-639.357098411141,-1126.61869343126,-494.187703706368,-1285.7379520473,-846.300629636601,-1333.54722791688,-1148.85660630571,-110.678929425117,-764.965659719258,-1387.73675241979,-1380.89233287419,-718.062128275476,-173.472227193056,-448.432625525734,-953.551571353342,-807.139126412344,-152.773157647263,-364.547032656707,-269.647560941813,-77.1982933788963,-917.004329412259,-931.572103084563,-1040.12878284128,-910.317919374244,-943.310762502765,-1024.65963993931,-937.25270435359,-1003.34004652769,-854.523957760641,-993.364494881031,-1001.70974057573,-1016.08191499466,-880.090379194599,-935.130075064389,-920.316800727553,-983.25254598635,-980.560808524336,-978.511209273144,-896.11270168157,-912.890338227171
-694.000440709992,-730.283351010494,-687.795074756607,-714.823241115571,-757.407997251648,-685.960741653221,-690.196623680326,-829.299360884508,-722.611312537197,-759.954415528502,-792.923758409039,-673.94234873897,-745.521349346795,-798.80005711205,-678.601362320281,-778.663744157384,-636.457905522085,-762.675177681354,-826.1779374021,-744.777735906027,-829.526050966184,-607.725178364996,-907.872969906265,-927.815360669767,-774.736318301537,-1066.19304345808,-640.518104769344,-1235.34631212792,-633.620534289544,-1325.61913578272,-927.746608784647,-11.5685701492212,-388.984351376847,-1574.19744370568,-859.613779221364,-365.344459238388,-366.153776395351,-255.019523768809,-821.106774913384,-391.593412595238,-318.195049428102,-427.908903844753,-12.9748424867269,-290.420139276128,-897.190932674684,-748.077106212306,-842.544904797132,-696.94581630928,-732.725299614561,-783.910724428839,-763.244984794225,-776.769890999853,-738.085712189344,-810.746872601406,-790.247805080359,-800.373281852442,-748.22288238923,-719.020587412188,-810.859340305904,-823.417345434562,-785.228070469594,-766.696741336007,-768.603925427945,-719.625000060248
-504.831582469328,-518.265695073593,-518.995879056241,-516.474465919978,-533.581403364666,-542.444745804058,-516.551831764539,-622.355794445008,-568.620108724874,-582.927520502422,-589.163502986853,-545.624514836211,-588.510690143479,-625.234813049764,-567.640167702796,-641.919952243224,-563.113352168502,-655.569964733725,-703.701544168204,-667.34454464229,-746.817979528508,-581.504687417368,-838.627217882845,-810.595689541383,-783.937146406843,-940.508635164362,-636.785026747857,-1069.65696073266,-493.493251211058,-1100.32328365541,-671.528496349988,-79.6282619210225,-155.013068650442,-1412.91817157562,-375.210963292118,-233.557666883777,-520.76527112926,-245.565734198698,-413.67212417902,19.6385049735585,-410.356092770577,-463.923085599093,302.085681285168,-395.621896564875,-803.802274102,-468.890777407759,-537.778454008436,-421.603542429878,-438.515907398887,-460.756808716918,-494.640554992884,-479.005457972837,-496.166344976717,-543.871097569161,-504.084881281015,-516.14340516659,-495.501440542766,-448.768073516933,-600.089337010618,-583.11731787826,-529.782694684287,-501.530873830719,-541.995643951448,-472.294195343858
-232.840996225219,-227.945517427157,-263.821063837506,-243.52207175941,-231.558668537898,-302.84825875097,-264.015306218282,-343.709852759822,-326.520962091153,-315.593318468708,-302.417806656046,-319.281644807595,-334.139337414184,-358.55144981844,-352.085859016886,-399.922051097976,-379.320879971388,-432.111098106648,-471.781688171814,-475.538397678007,-542.212270732745,-409.03754825267,-641.899084851979,-592.594873416204,-615.569646739484,-699.392320453825,-462.999495564797,-773.647996604176,-362.786757946317,-645.20595232642,-401.068695014273,-179.804450104721,2.63603152682468,-791.373421977083,-3.80588270735275,-132.442601185115,-385.52196357961,-222.834002976278,71.8489088040818,349.746732071047,-309.984951437972,-252.527101426621,575.297889064117,-129.503232728347,-497.36928256493,-158.353943658047,-185.203554509616,-120.651372222506,-109.311258150617,-95.8237450758758,-175.895596631593,-134.690113672749,-190.547123306434,-220.65409547868,-161.279534086861,-165.028443642767,-146.128107481223,-130.23934105518,-304.700453554512,-275.640637375245,-215.441478164072,-179.792649498093,-233.603760444413,-151.65057512553
38.037110432225,58.601501497033,-2.16938589864047,30.8156340639713,73.8344937803882,-48.8021614623777,-10.469405895217,-77.3077345827547,-67.6705165829843,-38.3787888571361,-8.72285831671554,-65.2370258794196,-59.227683531073,-76.2630785500149,-101.109815619827,-125.539485521596,-147.241330338789,-165.653830792385,-200.809716838586,-235.204491789863,-279.68820780989,-159.113500258001,-377.996320392054,-344.435314015209,-344.725597693784,-409.057906771423,-215.925093496123,-412.439833162554,-227.100409347253,-99.7096535317559,-117.052325363493,-274.213905373285,33.1694863745666,16.09799231052,352.059537070618,26.0061944852281,-82.3602898172153,-136.296572859407,396.648124586338,511.548391823608,-104.754507531751,49.7899912713983,701.067738411734,346.21060495937,-166.833601701135,108.918909470186,141.317546879629,145.810821624936,189.276118173248,243.093811681837,100.906159563289,186.752070508073,70.4790321148898,75.7085752750758,160.498643784962,178.620497700398,181.32732483359,177.10355610304,-20.1988405365338,14.587625256763,96.8811911762298,141.529038322189,54.5145863124956,185.332639816331
204.050255755032,233.484375507666,161.918899948706,198.457678684799,266.672948158963,109.484657046097,141.536281819123,78.9611031367329,104.161993551234,134.0275649812,175.381936583014,103.442370490387,114.829476542365,104.292693524893,66.9502684561664,60.4367743369628,17.5810994745382,17.1780374310137,-19.9220754604062,-56.6934742347293,-92.3755629192965,25.2957541602055,-172.681903157723,-197.322564351185,-130.749432157096,-202.960063214651,-53.7725690376276,-110.419414529336,-152.025627881012,314.492795313756,103.951145864528,-407.4178268187,-89.6712174158158,599.50463531414,658.597027746213,55.024082066573,111.450454540846,-111.852329417027,564.872944695653,453.918080546689,-40.7994201936191,126.421917030145,607.445839890099,625.094111522024,-132.961629999369,289.221381682144,374.145248244555,321.366971402089,395.556656318889,473.09958120394,259.513925578338,396.458714509701,228.114283663086,260.045226555792,372.196075736232,406.868581645719,375.587039080299,377.157552431447,157.147722704309,197.661079337157,307.349885541946,356.053765362348,224.47660159798,415.036164512278
236.706185561153,259.992955490549,192.145520457,221.924430896418,297.554469394079,134.327593447946,156.712761873356,92.2574816713421,141.63710456115,163.435743331452,203.350926469711,133.345787865452,142.488912336717,150.192643663628,95.1217780475124,103.569767278542,46.329545300681,55.6739675173321,15.4789724746267,-11.9476351456754,-53.5234353090839,44.7657271657489,-114.683139818482,-191.545036823655,-102.412939466781,-157.446853221871,-74.3412933956315,3.96199229510191,-178.216638824876,428.332940188949,141.292111685053,-532.861142363374,-212.761314154495,739.060356372802,699.091964546161,-98.4030617488791,158.151933854633,-250.61353865802,668.746179631238,215.777821809863,-203.070410004266,-114.693587803367,234.946003640679,479.985853962544,-498.055113349671,354.327989697428,467.260738878921,376.784245669543,463.505512597036,543.167092076452,286.530716409441,453.597891633177,277.680924357017,305.927830459736,435.987764638997,471.495589876392,418.491966245234,420.016423601441,203.113094668913,252.230722541707,360.918154331305,403.413552958373,263.463146746626,465.646816812837
188.023051431476,195.066908721465,138.781141297025,163.663035202658,225.728220176737,83.9597248939685,89.2869515725101,21.2543349663406,90.0955809838501,110.737032899947,136.590641684453,75.6284659988961,87.5302476289171,120.865389148769,35.4874583991226,52.9051973947048,-22.3964877686647,-0.301460701766061,-35.7651938288216,-75.3079838809961,-110.545087967355,-57.0202049017654,-169.937756359823,-237.96961505271,-235.882450855048,-215.347788075104,-234.868938191656,-84.9667680995724,-237.921540374762,240.458630668087,-9.66691548217304,-487.195059462069,-199.962718209484,484.206423253564,379.92019266078,-291.844065329609,239.762779144981,-489.613974222101,624.924002488812,-124.39599753956,-366.288312028582,-526.700001758132,-342.189090484751,32.2766781683649,-1120.53376200368,289.322776663717,420.097864447688,314.819636027094,393.496419646339,473.976893821152,220.349099472471,392.06529294806,233.120238877429,250.192206250567,383.667115714613,415.753881096524,364.023758896987,347.488803063009,162.243467034344,220.657905929043,298.554129011321,327.346418518848,226.000521622569,382.673736822797
106.113628104683,101.143799432614,60.6104477346863,82.2384249034918,122.549283538724,19.7283500289153,1.36221094404396,-60.3074324851743,10.8595250755527,35.2842695662216,43.7206975365657,2.12186603251212,11.8349549732782,51.9124209759281,-43.1156193390068,-29.1299842745415,-109.212927141201,-78.9645591808563,-105.255815852213,-167.93355304646,-180.644757540641,-174.141621215809,-247.076399684815,-258.827740758149,-400.908504364607,-273.495583297892,-425.980826688843,-265.700872997439,-264.731709874794,-114.945082103782,-254.408032210207,-254.77060743761,-123.734024106133,25.3305213750675,-194.073766939176,-492.770018955814,383.229784335027,-692.618894681373,287.987419818993,-529.798568151242,-368.135703904586,-936.992257348906,-875.354744545757,-474.619786119381,-1734.23282100369,104.781826554945,265.111660910659,155.049437401714,221.854399324868,317.620342244801,93.5077050584612,255.336852454551,120.733144957712,125.702161848558,259.951904609456,294.165046468041,252.904707571015,218.533923048355,79.8115789908036,133.14803263075,187.184937696179,197.750699995629,151.999851312458,241.092212973492
1.18947367394369,-7.42994241389937,-25.7107852442596,-18.7223020633814,6.07335930794473,-49.6838239640621,-91.7326848251528,-125.130589752395,-78.9117687508147,-57.6091987463155,-62.7078396254181,-68.5217970676951,-80.4512238338091,-63.4701748378051,-122.853048725483,-123.257555572451,-178.321366229579,-157.155805432584,-182.721078065932,-242.135669962781,-243.003108400987,-261.471786984397,-301.139792830182,-271.752669303031,-500.444610097586,-299.682221822338,-564.001068241071,-407.477220679071,-297.051225272432,-465.101332241791,-506.515807996287,-70.158368619959,-103.783159092535,-406.338418721801,-837.765426158292,-756.811133984307,357.805743978709,-801.913610737269,-242.783058149547,-948.961887916672,-384.590885264511,-1224.2950986978,-1140.71039126724,-940.754827373423,-2065.21059768784,-144.313673861109,55.9059332017946,-59.7563297242175,-2.58456973840249,119.900846653505,-76.1995469763693,68.3952701850258,-13.4241781971855,-48.6911543801222,95.9407975477892,133.226299899892,103.882997732083,58.5870676637849,-23.946381891301,-2.26692056991849,55.1356336986812,46.2442788458378,52.2081440204306,75.8750265767988
-96.7582377616468,-102.913765362767,-100.097115423325,-111.448551012135,-93.2679902788853,-109.342281679691,-169.908735277418,-147.897430646236,-157.102528481512,-146.74936089954,-156.395503855838,-124.813251700489,-164.068702920992,-179.091185018575,-185.902884689186,-202.698003177218,-218.478944721246,-219.654715491962,-256.5227523979,-284.70150727682,-294.494107948198,-314.933835898938,-323.914087303563,-303.308219421706,-504.632033481245,-314.147500325949,-603.814355441318,-444.29542664408,-383.680429491214,-656.223776915778,-683.440720254761,-119.110505181195,-118.005652021781,-610.82247779282,-1301.37553263552,-992.810746016125,30.5952624946589,-852.308562271897,-681.901466551931,-1252.90299178976,-588.138780071143,-1322.3542212238,-1094.16453034159,-1368.26962107069,-2005.96043497181,-349.224163829042,-113.774230928935,-241.6055493947,-190.673147015219,-46.7339654876889,-231.487190400925,-104.131637482016,-107.453591326978,-201.916281772274,-41.9948913267919,-5.26102390976393,-29.0169997746302,-80.7249591662506,-112.825742342893,-126.919970251727,-62.4929232744824,-85.6508001719116,-39.0642687665038,-63.2604568646272
-132.578486583263,-131.471674283699,-124.209976203543,-135.691103379711,-117.795490532321,-122.732280450389,-190.208998296673,-98.6686591549501,-177.719496709533,-178.82291606666,-177.398648910474,-136.866202564529,-183.689878111391,-214.276558697065,-202.825048970456,-231.592642089423,-220.460060143747,-241.280463632125,-293.607306288362,-292.432760780079,-317.424350614534,-332.770252447182,-317.09170415318,-339.932672111987,-436.124762082535,-344.961697279337,-540.038236938452,-419.761065539105,-538.583419243618,-644.059865183569,-769.82932162007,-374.778347753694,-137.021355195157,-567.791390216717,-1425.02768098577,-1113.15882188857,-423.30577204889,-956.792202031249,-939.536617638222,-1365.23272801554,-861.958668518605,-1330.62998078353,-843.447847376457,-1763.48920554351,-1733.97365537321,-425.515284835185,-161.539177731649,-314.90855207731,-246.512943274586,-105.514226784224,-295.294876397674,-176.851403873479,-124.268654669386,-249.486934528334,-80.2337213776973,-42.9729077915971,-83.9234366337447,-129.966476787587,-141.803446823944,-159.058289230473,-111.439478141608,-137.380684693785,-76.1851070911054,-114.757379695234
-106.429365745763,-96.9974369974687,-100.890057602119,-96.5251941044265,-73.1512200055465,-99.8356572149207,-161.344390315067,-13.1679349102146,-141.921854570746,-150.66688814904,-128.314989075837,-111.931232883427,-148.429435912214,-170.983328343609,-185.096972373715,-224.357693897976,-207.316521926341,-231.933416143974,-296.14866306307,-281.311110123934,-317.582746790935,-341.403996636984,-310.24755744146,-377.954004315071,-368.504822259267,-428.406864214767,-403.358541370943,-457.203911033053,-800.298500744951,-542.29076557196,-901.090821884327,-757.392031667629,-304.51819843877,-439.936036889743,-1348.30359761601,-1270.00053670143,-795.160016498091,-1276.58310865883,-1176.35753749567,-1352.00440669699,-1035.72058329445,-1483.36978794264,-567.387469619218,-2146.43549994939,-1577.00512465247,-407.319179043963,-117.274675426762,-307.370776163145,-193.293931033926,-68.9502433815765,-271.820833168187,-152.445716668397,-92.1152092627975,-210.097896905821,-39.158832261634,2.05132905309577,-73.457321824576,-106.699439046634,-118.874668831593,-109.395979019514,-94.1767531697225,-108.155947437063,-63.116202984351,-96.8100914691683
-81.2743625942559,-66.2944397745664,-78.3465811473397,-64.1633283844352,-34.3629356752141,-92.1562625695032,-145.892803177497,30.3832325950976,-111.817942565295,-121.057700301167,-89.6620977164053,-95.8861619332648,-127.749430433273,-130.078039968418,-171.307652505936,-222.208154780635,-214.691170881499,-224.349251693291,-292.976927039143,-271.171204855546,-317.601916175791,-367.539499831116,-341.114206352002,-419.934010932865,-360.12783311176,-561.075419519694,-239.677987017777,-614.099335426362,-1120.88351360892,-492.141247627355,-1179.30681523387,-1142.64538781409,-736.000818133654,-341.656854656604,-1288.89918419332,-1573.33212970022,-1059.68661129263,-1794.49666610665,-1406.31097092322,-1320.7088520411,-1069.01645596703,-1808.67275143225,-424.954245824371,-2387.68678199639,-1656.89956775556,-381.661422820044,-88.4544879564156,-295.874680296791,-159.105576622735,-27.655971209625,-238.540113021753,-117.388876152394,-64.4030119789026,-171.81753673148,-4.85729562509106,35.3002728602192,-62.7093310083848,-97.1902327724158,-96.2111107901818,-60.1373179986958,-71.1810146612289,-67.8936022598233,-43.4899004168561,-88.5035001621501
-111.378704775387,-97.4748979693616,-104.809285371937,-92.9302052237266,-67.0481083298007,-133.556197622787,-183.747772443973,-5.0988078512272,-145.846533169324,-147.145705663508,-129.085076371622,-128.749522451864,-166.809197713615,-157.747010390141,-191.384717138838,-246.864182722971,-250.869044221541,-239.407775648917,-303.452601246817,-273.510483562399,-334.600399079935,-390.909886301258,-415.768988388092,-452.158199480202,-403.073294565853,-681.876703919092,-103.603329837542,-823.439247407629,-1294.99070624778,-539.796175078502,-1485.02896039131,-1297.73452872274,-1201.68868658478,-246.657244044744,-1226.78564077189,-1773.21861084579,-1209.59683844462,-2168.75712665118,-1395.48668142127,-1324.04011496962,-951.040858035673,-1998.96252034798,-437.665046845749,-2197.06426153687,-1731.74958929296,-371.242878862149,-141.533602624574,-301.933740523851,-216.140486282875,-58.1901907755941,-243.502521306024,-141.64745279151,-67.5425983349766,-178.885263284146,-28.2686500421626,-4.99764423858912,-92.0959659730233,-150.425255854605,-112.215057563921,-69.0380026575943,-93.54882408656,-92.89549689809,-62.1024486914353,-144.30753520517
