-15.4417412768096,-7.46713310568726,-14.9342662113745,-13.2668481392308,-9.85951555702395,-23.7063351996091,-25.8812283371879,-18.3415987935813,-21.5314420620302,-34.5083044495838,-33.2758650049558,-15.804223466406,-20.1540097415637,-46.1802309545901,-11.0919550016519,-10.5844799362169,-14.064308956343,-9.2795440536696,-5.14724709226986,-12.9043659496343,-6.66967228857503,-12.0344086946028,-5.94470790938209,-1.52242519630517,12.1794015704414,-0.57997150335435,-6.52467941273644,7.32214022984867,7.0321544781715,0.797460817112231,10.2219977466204,7.68462241944514,6.01720434730138,-5.14724709226986,3.62482189596469,5.43723284394703,-3.98730408556116,0.724964379192938,-4.71226846475409,0.507475065435056,-6.52467941273644,-0.57997150335435,-16.0942092180832,-1.66741807214376,2.3198860134174,-5.87221147146279,-15.0792590872131,-7.97460817112231,-4.13229696139974,-15.1517555251324,-9.56952980534678,-13.7018267667465,-14.8617697734552,-5.36473640602774,-4.13229696139974,-9.49703336742748,-12.2518980083606,-10.2219977466204,-16.4566914076797,-9.93201199494325,-12.6868766358764,-12.0344086946028,-10.4394870603783,-15.0067626492938
-71.5307955797623,-33.763958168476,-69.5578165986923,-61.7184523226867,-44.7532761336413,-110.528615891545,-120.848434214055,-85.0730640293519,-100.571279758631,-160.696266991225,-155.645830758914,-73.7582403656158,-94.1078912589598,-216.514270616214,-51.3261375622568,-48.4832013261553,-65.9373643351231,-43.8137355289541,-22.8286483957173,-60.5059576677034,-30.7049891627484,-56.3780303386991,-27.2650497219115,-6.71639776032237,58.8784291748488,-2.7519515526695,-30.8869585296126,36.8457850521119,33.7298947657141,7.19126596712737,47.8506781745262,36.1733723211936,29.4214546139775,-23.7711020886681,16.9822078904265,11.8077332878528,-17.977213231652,5.54233614049639,-21.0546704828924,-3.24676454911911,-32.1193979742405,-1.5920085459608,-74.3367553248383,-4.35953525587941,11.2252955244359,-27.936005908698,-71.1882581798104,-38.6367946663178,-19.2451726231737,-71.242266372217,-45.6246899328046,-63.7099195492696,-70.4462620992365,-24.7305874829999,-19.3901654990123,-42.3083420340298,-57.2650192951116,-46.1107636644632,-76.9991787382075,-46.4022059602722,-58.5315221425015,-55.9430517111833,-48.302688503423,-69.2493426015023
-132.407375866163,-60.4732516120808,-131.230801599779,-115.676500338793,-80.378720200777,-206.21985593779,-225.721171263344,-158.053781221896,-189.308467587687,-299.429238564697,-291.490626273752,-138.258876530126,-176.248013594494,-407.05405006906,-95.8311910691562,-88.7142785257848,-124.707288646602,-84.1358671431236,-40.5764816621507,-115.075893519518,-57.2363521612878,-107.231869526545,-51.146726867646,-12.0984210867489,114.396273559519,-5.85765179061571,-61.349795301024,74.5041413054417,64.6243966346729,21.3946255051774,88.2557514940842,69.278252409071,56.7089671717618,-45.6283744385929,31.0110662701815,-20.1024217835254,-33.6245416498162,18.0228534958895,-36.1817862750571,-25.5483935314614,-62.5579203236117,1.96613732814069,-131.459061131131,4.14725132348027,21.7802207917,-55.0129462972328,-137.384625134278,-78.0919518448272,-37.4059275226239,-134.855948445869,-89.2736495787719,-118.275816479285,-135.186549168665,-47.1910141643129,-37.5139439074369,-74.0752092079173,-108.59550818402,-81.3773291565423,-145.754211996494,-88.0277820473032,-108.189863511191,-104.515437920769,-90.0928018142326,-126.764665877193
-126.052199408675,-55.6789739624717,-131.475845668726,-113.464621105822,-72.530652729685,-197.773361751702,-215.756426333379,-150.777789301837,-186.129328109782,-286.602079341932,-280.338232930886,-134.88673276586,-170.441466571433,-393.863870852684,-94.5318607365627,-84.7440738461764,-122.823819468095,-86.3696013489816,-39.2756615423768,-116.799949170877,-57.9611261993802,-108.979847631824,-53.1669404967959,-12.9645075451648,113.652766577981,-8.99214269187214,-70.3826210726187,74.4447802875991,62.0837218024087,26.7740228560117,77.6384640671916,70.4161489566881,53.213196054517,-49.2264112413791,25.4273682136344,-88.5161920740135,-33.6182019994214,34.3010598029547,-29.5588393129846,-60.4706908255988,-54.2173428556651,16.9933068064055,-95.4726552843534,34.3728164201328,22.6100531790206,-59.4222343494365,-143.386465969183,-87.9215763114395,-42.1791770161987,-132.012533587131,-94.6782117624578,-112.542270440787,-137.050759303982,-51.2243089346022,-40.311666907828,-64.4689408174444,-109.991073046439,-68.9212796463522,-145.931552604116,-88.5615981900482,-103.738124869716,-101.563159730029,-88.9786068847874,-115.481395523206
-75.7957643551045,-36.3711678846386,-87.6595600696407,-71.4764366333658,-39.9266533020435,-119.102503082058,-126.376504910287,-87.6134374180359,-117.751205551543,-169.781610896873,-166.859863089117,-86.624398590054,-104.157544873588,-234.535919546432,-62.8892062272177,-56.5055358681902,-76.4768253460007,-60.6993757561642,-32.2233655212473,-81.6298523697698,-45.4765080073043,-75.3433091855434,-42.4139672160842,-14.6212858529142,65.8040572223453,-15.2148743485739,-60.924795132475,33.2937329774865,31.7268855940169,6.88250980852959,26.1487126692595,43.2895093675114,27.4460258903081,-37.7615732730935,3.15726773657711,-101.097743791886,-14.0356113791087,43.7889904062542,-17.1067974262674,-66.7073665909629,-3.78052866628329,40.0848240471747,14.074984037805,74.7428984115828,18.1509838878403,-42.993943812529,-102.073614149491,-67.7279910311632,-39.5211463548623,-80.5833707856931,-67.7949465630476,-67.9398341377644,-92.3522030433707,-42.4441433688679,-33.0689581371419,-32.8965228774415,-75.5046847655896,-29.3842537751421,-97.1311584446118,-57.930267372077,-65.0852586651806,-63.3501638676727,-60.2952420872989,-58.4156783490886
-51.9420572456287,-35.275093469508,-62.6482169784498,-48.0167169442341,-27.0410733307947,-84.1217237222783,-84.3314285605531,-54.0348513007954,-84.2467414370016,-112.607630571894,-113.947689323451,-67.3756895975274,-74.6411771339404,-153.876025991953,-47.7527732645781,-48.5164806775993,-52.0131558029226,-48.9162828201093,-37.8712996304443,-66.9776669637277,-45.7058936793536,-56.9913680288452,-39.107932981191,-21.0730689912377,40.6104144790674,-23.9775738939895,-49.1810994687336,1.22683630234451,13.3771683311103,-17.1864671999566,-8.14488766275339,17.8252317423379,23.3722235920793,-26.7019106191563,-11.325744674421,-24.7286178287889,19.2150754048082,41.7139223189719,-25.0063784192892,-25.5048701713261,37.1532275043766,56.202740055932,89.5049053038476,104.130611179015,22.7338815378661,-29.8610368843132,-77.246900575903,-50.1396552099811,-44.4881086233775,-56.7844757388401,-50.4955469076727,-50.4174159679067,-71.4347047719152,-35.5197763892949,-32.7039304367581,-18.1970503763493,-57.6423058122745,-14.5956301237273,-72.6134940001251,-40.4663497091342,-49.7669743712378,-45.6656295730192,-48.3444107214035,-31.6760260592937
-47.8942200419225,-42.1898954368861,-53.9275445485037,-43.0714886114145,-26.6708539506757,-84.1689505655855,-84.6974415646354,-49.6718231455851,-82.7092092057703,-107.276889758037,-115.559390141847,-67.2681637025371,-77.7958338266064,-148.720379176285,-43.5594597379119,-48.1851298515754,-46.8165290047969,-48.164515414737,-44.16572887935,-67.6320784073469,-46.3276365508853,-48.9849643696847,-35.9395324597122,-26.2534369767014,47.3724849441963,-28.0928391271695,-30.284806376767,-2.37271652992526,8.82668742147531,-18.7425694386608,-13.5675594074206,-5.1225582859651,33.4823520946133,-18.194151389316,-11.152159442218,50.3273906066694,46.4981500414646,31.4536400343225,-42.9302197783964,26.9836138565089,40.8798334476854,51.7363863659233,101.536279871006,108.469603378023,32.0350581578146,-28.2230854202056,-71.3929521136454,-47.4825430103565,-52.2424654692032,-60.8220507590476,-48.5764664292558,-54.0039488945642,-72.2095347300387,-28.9281929196913,-34.9693215823914,-14.304780673481,-56.8636317292208,-21.645929439826,-70.0310792284268,-41.777473626137,-51.1623953745375,-48.3448479607892,-48.5706792892769,-35.3727230033054
-42.9851816073095,-49.4004827823104,-46.1859552256015,-44.023149493564,-28.5368586870202,-71.8939527221274,-74.1836532345976,-46.4807049491547,-73.6556028955681,-85.3690957540943,-98.7655982535307,-57.7826181947427,-73.3769315170086,-120.235136214697,-39.2496653094276,-45.9093327629827,-36.7899782250462,-46.3836117729743,-47.3533472506564,-62.6519211301501,-43.7875970090176,-37.3607892779474,-35.4011917184217,-37.102566254392,38.5567242569698,-37.5245148379137,-14.388608069115,-13.8170013142916,-15.8647241025542,-20.9134622492427,-25.8780789707919,-43.1803231969508,0.84170464914795,-19.5137673529404,-20.3108629112567,57.7385948571224,30.887618977584,9.01091420259101,-59.9116274515164,45.9410695264665,23.3631562815506,20.1126270151859,84.0353304788142,81.6682981002033,22.7743357193892,-39.1380783815724,-64.8703151356293,-57.0088113319363,-58.755095215995,-57.7067820388025,-53.3627207410415,-54.2549843772751,-69.6454848682922,-33.5768527244692,-37.4283391022333,-16.360172542937,-61.143518629772,-33.7202008514157,-67.5037551240225,-51.7287544551373,-49.7217574765484,-54.9340425061156,-50.950093382906,-40.6870396441848
-59.0298233284716,-73.6683761035947,-59.8489818893788,-65.6757742731011,-51.9338879930192,-72.4751234892326,-73.9125664776527,-61.2942796041879,-76.8762535227384,-72.8779116448499,-88.0309474217912,-64.935385376556,-79.3869279542172,-97.901001716401,-55.3919330423676,-67.8563246634477,-44.549393512591,-61.6228737807211,-67.2317940173769,-70.4863871946952,-64.3979937474541,-43.1700926900227,-59.6354810183293,-68.9448843283069,-6.94271969995711,-71.5248084453931,-29.4193314484276,-57.0727923083456,-66.4119716308503,-54.5149317927425,-63.9795521834349,-89.1876472234504,-79.6968191618924,-39.3667378061099,-54.1429071349819,20.3261018056917,-27.2687232987408,-29.695270937845,-81.0618786500037,22.7595891722244,-2.43573975096915,-30.2439872427638,46.2679528831841,35.9467969390345,-13.8814347245986,-62.1852498966103,-64.4743835465067,-76.188917632111,-71.603105709461,-57.7265373987929,-70.4689518173413,-66.2162611123173,-81.892178272461,-63.7843396505469,-55.4336461634951,-41.5334018279631,-82.9093911035321,-60.6307217298078,-84.5253968268911,-73.0102467617827,-65.1768240605746,-77.0924536514116,-72.3285638909075,-58.423171484339
-92.2534812216217,-105.711293888171,-91.0928504223282,-97.7822545966739,-90.6746013159151,-98.260237318934,-96.3646871137073,-95.9996187720191,-103.019256846567,-89.0312726999486,-107.969192439263,-93.3036711392708,-107.126370879779,-114.256060208225,-88.0325999623794,-105.422793165932,-76.8091357915411,-93.6252021428001,-101.79469252307,-95.3465081412729,-101.239141750868,-67.6039882823572,-97.6109754542686,-109.715310833138,-65.4677059542191,-114.8575470563,-62.9638440646821,-107.321162508721,-108.531989753203,-97.5079053637314,-103.869732337895,-113.215132493025,-142.34877920062,-61.0852810787341,-89.1992460056994,-17.5084116797085,-72.7252551424874,-68.2807224030204,-91.8743698427112,-14.6285884015085,-29.6121851596442,-72.8099531565876,-2.57937764984639,-2.14603842434799,-56.2875920346381,-85.3520379159289,-62.6467447344966,-96.0086148001735,-83.3578874492822,-74.3884902087998,-93.9310329476777,-93.4566844656594,-110.388120106393,-99.1547458852863,-90.269240533403,-89.5957992093354,-116.029361707881,-101.627756391564,-117.056479932471,-99.7431490206868,-100.914090411577,-111.624758833797,-107.714730363848,-90.6947411626917
-108.265593739385,-120.738386452634,-107.491996903296,-111.102795548851,-114.434462522245,-113.193110148022,-107.966184615243,-119.119757104459,-120.801519875972,-98.1644728856928,-122.17260885748,-105.824078057396,-126.858195131194,-122.34056709347,-106.114502219255,-121.713266211595,-97.1345629961121,-113.099530617141,-124.919926798125,-109.908347913777,-119.386349046799,-83.5753843374282,-116.049774008816,-133.097707376915,-105.776280462176,-134.666695861979,-76.8100005784236,-135.885511152725,-122.317465365805,-117.147038825795,-118.652441333986,-110.973688492431,-151.230729621056,-66.2636720846349,-101.958365079612,-36.2541456256001,-79.3647622995885,-92.7541348895368,-81.0213803120396,-40.57989969046,-46.6013164127695,-94.6285286582671,-34.6160707091001,-24.0018068677799,-87.1273445522568,-107.762367197023,-42.5746704929587,-115.596804942994,-82.9009228158241,-93.120368140932,-111.953818187582,-121.109558399078,-126.618875869525,-118.730072923547,-131.757745836457,-146.500128592642,-135.865213106012,-146.135937149645,-131.482302166559,-121.310925627346,-132.214815834143,-133.766585392299,-128.297273701251,-112.43342032282
-98.3420104455646,-117.947378874627,-97.9696806389611,-104.319118727468,-114.320066258085,-98.3127398019181,-93.2603519845225,-114.005009141833,-111.773784333928,-83.3871793450841,-109.792189550617,-90.8330381572401,-117.814720751392,-97.6779729232301,-99.707292182578,-112.462095236338,-86.8201785901282,-107.584176489747,-124.833804050544,-100.304539306679,-112.326257048007,-79.2663808310816,-108.86719219518,-130.762135644873,-115.158461988777,-126.673064457499,-66.306330632135,-140.686338117172,-119.615696594226,-113.328202891396,-111.904332415815,-107.847748425638,-135.07099297445,-57.9339400572762,-97.6526363246516,-39.0192580560068,-78.2368495637676,-108.816214840374,-64.9906548992053,-52.6031302992208,-53.4542352878609,-108.722103266282,-42.2609014913912,-43.4499417562147,-112.97004567404,-139.555598295396,-17.3146787949197,-140.137602961326,-81.7373815492764,-100.880353917887,-123.966670034201,-142.871418208356,-123.663311618256,-131.790110013753,-176.117756019661,-196.298518303588,-134.979554994142,-190.019130172972,-121.660606429169,-135.083173802192,-150.94616482789,-134.748036294476,-122.904005080878,-114.294131319311
-74.287237348337,-101.745810602921,-69.6223121463216,-86.5797660598894,-97.1398898957551,-63.7908055863483,-61.80169780109,-86.7605142618776,-83.3300648024557,-54.8166947472037,-83.7880840650976,-65.4117542888966,-87.5729774738218,-63.5035112609662,-77.4464153298688,-92.7461018793691,-59.6116147115798,-86.5575884501109,-108.259273188902,-75.3811264730069,-93.8812232131078,-60.50777729089,-88.4537760406661,-110.01597231123,-102.55463023591,-107.208149491957,-50.2570129671563,-129.765139432992,-116.475646444189,-95.7543592639924,-101.624054647995,-119.228262458034,-122.682119731813,-41.588849931796,-88.807819216491,-42.9286816973727,-91.2093271479714,-118.951720801897,-51.9828673943546,-55.4231002684289,-64.7078001089145,-123.125067025523,-47.9424965582315,-70.9915650769438,-136.198604746661,-159.881890500763,-9.08519639781826,-148.852591658394,-87.492233916142,-94.7267519580214,-120.15949383628,-143.24553190375,-106.266093421808,-134.336021303982,-199.292559615158,-210.197440949085,-115.87152768548,-207.92712641083,-97.2310801566469,-131.935868269169,-153.633575597564,-121.136327706426,-99.1395823323168,-102.88491788826
-41.6502930833099,-69.856971638124,-29.7020885201453,-54.5334312036551,-67.6679324944148,-21.0165662522471,-21.4593997038229,-48.0530593154938,-43.6907896903625,-14.4527801039822,-49.0363960366404,-35.7263747856515,-50.588030077259,-27.5960300470293,-46.3531514999454,-65.253545415446,-28.7589325375171,-57.7590394543864,-82.5613403119378,-46.2387699759702,-70.7092090478002,-35.1924008673108,-65.5139881845148,-88.0915614617418,-90.0908199709223,-90.8057160460108,-35.0519716676185,-117.759132927746,-126.524291994665,-77.358586702792,-104.495027228405,-148.089513524329,-125.059500456235,-24.3343550916338,-85.3901721542415,-69.1965771795084,-116.382412371215,-126.395551610925,-38.0002240773068,-62.8306376865466,-90.0692144884864,-137.156202008147,-72.361318945774,-108.582824829424,-150.572721168589,-131.845088981127,-17.7230844443134,-113.271282791928,-81.2605396633868,-76.1755385130829,-83.8409233563687,-104.573556959404,-66.9476663641772,-102.775092139208,-164.707242177787,-169.987719092547,-74.3791423549857,-167.87518540122,-55.4331622869599,-97.7747952285233,-121.384641055884,-94.2570983870012,-63.6346958414439,-75.6620856209989
-5.85849022266608,-33.3111487251849,9.55249528506933,-13.86947692435,-34.5759265216388,21.5802168775773,18.197366752549,-9.3133027233582,-1.75317069448194,32.9530831346758,-6.05994131782267,-0.191364328528047,-16.5297745223395,17.165055924442,-15.688191192089,-32.6690495376619,-0.529209267286822,-28.4999887393311,-55.5178408309113,-20.0747281926736,-47.7930526382079,-12.2478382356542,-50.6746366014666,-82.339268014255,-90.6179454104374,-88.1238577887249,-22.3386154118518,-122.986759987017,-152.307789537064,-77.4473440972307,-129.008617733723,-187.34827340898,-152.694359154218,-22.196896890476,-93.7299872236549,-117.333396502892,-151.443233117669,-148.082597085188,-34.7395906014326,-92.1387177099261,-122.906851106662,-159.098610949816,-110.096388031994,-154.370966551444,-162.186732484551,-64.5461321264263,-25.8515005106972,-45.4269202131315,-48.5533217905443,-51.2390937688518,-26.1949966962797,-43.9253385638163,-12.9933231639207,-47.5213371843587,-85.3660902055759,-98.5567424409894,-17.7982664197073,-88.5577773542604,-2.50836082614627,-42.5012863920062,-58.5622233134342,-54.4390280293755,-22.4799536133972,-33.6374460144996
24.3367863508794,-6.43874230602439,38.1044892696235,18.1112225759836,-5.11353584383485,54.7778308457976,48.8957095684045,22.9208139522832,27.4726462579587,70.3572973122928,34.9993123044841,32.1927804027276,9.20392014913046,62.4798985769404,5.26101581073952,-5.5148053840869,19.7958877519285,-8.26508076524891,-34.294712455505,0.68478077867022,-30.2485907185524,2.99674347949423,-41.3929724573365,-83.9319214007639,-92.7761183317099,-93.4173458886102,-17.4932525336353,-137.771353983748,-168.721245405492,-91.0548235472132,-156.806171294781,-202.683733865379,-186.167115853033,-34.1968496655891,-103.310364551119,-151.955601723185,-173.235479343918,-177.644285650399,-46.0879075899836,-126.029772028465,-144.032298834017,-182.031112396256,-134.44185045419,-189.210509843923,-172.00293572987,-3.41129051168863,-7.90781812026886,20.7987658633331,1.71320883720336,-17.3199926478685,21.538721309692,10.7206225612515,28.2058492679445,-1.457461096839,-12.819381401738,-30.7940959757579,28.5924470084437,-19.256598294633,39.5208059312689,4.44848671307554,0.271523465524502,-9.48368507446871,13.2323962371103,7.84234598713937
48.2086311051003,15.3981124698917,58.4272741725454,40.8460059916144,24.7151493409972,76.3541192019382,75.5683518143478,53.9697236198177,43.1934091722206,95.9303493690249,73.9982275523018,55.4914408686484,31.9341150376913,102.80648885269,22.0840927024202,16.3988156219282,35.151252351205,8.45913960693012,-12.2178782430065,23.3528649974745,-10.5260259648932,19.1083350675113,-18.937063495144,-63.4664365102044,-77.6395409733033,-78.3188294908448,-9.65758149169551,-126.361335511946,-145.463149785606,-83.4907909590194,-149.431936176799,-161.34214701447,-175.828882250935,-32.1206185409844,-90.014429521614,-136.898624365467,-146.906910008285,-174.277152194153,-43.0187655171779,-121.857335217262,-132.713251741652,-169.171410250927,-121.790307640525,-183.913646280576,-155.199131471255,28.6042569761558,44.6748456737636,69.7355330195471,51.9571982039136,32.1175905535784,46.6887116029068,58.94658281565,46.8281660885964,31.3798088963023,35.1525903963944,24.0933655665908,53.6051917542396,26.9229302782566,62.7027669927394,34.018921877121,40.2994438327377,33.5154344994774,37.6818009611836,41.0949845381622
69.7005488338292,40.9733825238862,74.9673974362988,65.6588003047552,55.1752002023384,94.3490742801206,104.494216528298,87.5994386998807,61.5434964371473,124.666694761753,118.01395559081,76.9548957292465,61.9299082908977,146.525308603942,47.8962472634802,43.0248126005767,56.7012521486105,36.1318275034487,20.3823934114706,55.691866109919,22.0750973322022,48.9972336787319,21.2115989850714,-15.7151463143518,-46.9643354714247,-30.7623139761283,18.5812802414798,-77.7311136210626,-88.2792653295243,-42.4137583001112,-98.2409104343721,-83.2685601216906,-114.154473802866,-1.70430504806248,-48.2246710308788,-81.7763565343457,-83.9972408523495,-125.871357302185,-8.54142246400217,-75.6867840151608,-88.5810395508273,-111.06653524531,-77.6220405499731,-141.203500063788,-98.5779443244477,39.1747853713233,95.8643644096823,94.1024354949685,81.9344706679839,80.9074491259289,56.9616892895867,99.4133167564988,56.9784665648086,57.1060166375741,69.2469779608441,66.2778214065445,68.7118164267162,63.4943660210064,77.4698876904502,56.5739653674518,71.3637714526475,70.6303835898067,55.6638947303435,69.1803949776132
88.4746380028588,66.0478748934319,87.2812955968557,88.381325632489,77.6683911846355,113.102760275915,130.886191425849,114.751533761524,85.118252981242,155.773423402087,156.085501845116,98.488231137938,93.8648677753546,188.773347964083,78.7300543339299,72.3246998148981,86.9080997422182,71.7565708260843,55.7896217004575,91.5192533605064,60.431466761535,86.5345184162086,63.2363931258272,32.7546486297197,-20.0620256823659,22.5334309565784,58.5589823378643,-23.3605830839419,-31.1733875097757,3.07879050404195,-37.8579144509246,-16.4346986711361,-46.6003494935415,36.0028398234804,-1.69506566815669,-26.4693440458351,-26.7645949502622,-64.7164835537257,34.5409669544887,-25.1361200093869,-34.322589823213,-47.5423190193595,-29.4980319799505,-91.6248798483641,-28.3590799069492,48.2564850821831,112.339990362186,95.6293402942361,85.5088250042121,107.653993510385,64.9304038007205,117.268254867594,73.1799540265827,69.1888170271477,88.8092080776857,91.5240521619314,85.7292931626599,88.4645740114122,91.5544802748087,75.1651818719509,95.7457949635754,98.0105764794606,70.8780535948939,89.8279514794023
102.54358205518,83.7978251830884,97.216239346726,99.0285934791444,90.9262435124925,125.356760544473,147.098097718809,128.362196435796,102.054112338959,172.602840031759,173.341304471705,110.008836317856,111.239502400712,208.574696229339,98.0514212272306,92.1524357155227,110.770313429989,99.0762281463958,79.5843988238134,116.302875238728,87.3582795557668,111.398149856976,94.5802372451751,62.8428692537542,-4.8876765568406,56.9012671724396,86.5434266628807,13.587152604697,9.0699085970584,31.1362876149233,4.59689691136191,26.0826997163881,0.411697717945336,59.1739757801536,30.4723089608596,12.3107083945538,16.3379191668369,-10.6062886783081,63.9141431972252,9.56453120513942,13.4668516370252,-2.47269449335773,5.93236375803184,-47.852776478494,25.4753933199301,72.4604826879692,111.88784562631,97.8060089570714,83.0776125706067,119.053919450992,81.3244286625547,118.868609303002,99.9817034125372,73.2270453987176,96.8657102359502,106.222786508801,108.414964860274,97.4959231165689,106.656381812921,90.3074638399441,110.261916181713,115.913439580031,82.7594730254158,101.770625653942
108.699802623306,93.5137943997452,105.099795263651,101.546086232581,97.0483928271975,125.524615633959,149.474402158487,130.464648977886,109.120156086196,170.320054242696,173.970528512818,106.775392766086,109.422122754697,199.002020964755,100.120388841856,97.9582309196879,114.285080037707,108.121461516372,88.1096305666802,122.232510174076,97.2380429282443,115.567585795098,109.002070189793,76.8724509309999,5.52948460987352,74.9072482347238,93.703148541793,37.5958611922646,39.4293796059406,46.7500809084428,31.9746417360746,58.2389661221916,35.9358177688542,67.6209505362141,48.6993992229119,40.9275962924867,56.0533017822879,35.1642220301155,78.5734431611191,33.6522489130251,47.9401312350878,34.9741930397354,28.5363253724037,-8.55237515865139,56.5975912369894,105.838041723838,118.103568919237,114.915338394446,89.6016864862254,129.116106555906,104.315453075754,123.730655411537,127.835570886088,82.8839101651772,105.52783702342,120.251501006294,129.711696506895,102.898414015376,121.98523186749,103.306086334399,120.22866827731,126.76646260162,92.3224104076006,111.294611942204
101.32528857039,92.8925389307426,101.605845953083,98.8577678946099,90.7738385857139,115.071508412297,137.620424608227,122.006247002096,105.687060124424,157.840061360261,165.877065952524,93.3093122287176,97.5000018038613,176.400459593225,88.3576667896612,92.3367152725716,100.740447112291,99.0200923599316,85.1831310141463,113.13729239962,96.6052190692814,106.209722458527,102.929997677598,79.3165645964815,11.3760932639448,82.3997671428541,86.2121780477522,50.7484900129224,59.7070646570399,53.0423808333299,46.6946132804421,77.5903091320996,61.9184674098143,67.9073237111683,53.9347290186746,56.3261403517802,81.3753342945261,59.6940610988248,80.640457803936,48.6654372351243,57.5670373882343,61.6574523783947,40.7251243482403,17.1363065704558,67.570779070404,131.197496905283,123.917232725457,133.319949415517,97.0824423251924,134.538743719596,121.473045373532,132.930354444477,140.86812322334,93.7924411222165,112.050990396211,130.86271270803,134.866439855097,112.135841850773,130.386440980022,107.36505336802,129.657369981364,129.718066482449,97.1136030892764,118.884540075207
80.9445107034561,78.3261685858311,83.3121409165651,85.571284318411,71.9787654000409,95.338022188877,117.807486296496,105.932231418835,88.8762214732332,142.546240399105,148.701465235585,73.7879733060991,84.375674461766,157.687954232946,68.667566910191,79.5331752182122,83.001086055596,81.8321482696367,75.4798991906616,98.6406679172018,90.5661459244864,92.6698343244283,84.6869408788394,71.6066049800731,6.74160962908819,79.5068525028882,73.5462057926503,49.4205090013588,60.8738018727935,49.7230333926147,42.759400507321,75.0407412098784,69.2218197088318,63.8701623125189,47.0344784665392,53.6363847766161,81.0678956353159,54.6880986188148,70.1750199837124,53.5976237443469,44.6759389487778,60.8067804588827,44.595966370062,19.8112454028968,58.3324431770187,138.03442323059,117.777722309243,136.649848361902,94.9764327788641,127.584594404624,122.58933361624,134.103911746374,136.130122875914,92.4630349196848,106.157390418666,130.230131469021,120.17986173245,115.114422565439,124.702778547878,98.4237638154059,130.708451851489,122.966070869771,91.3944039906075,116.228614654023
60.5991411656529,59.2165966828664,65.7612733463128,69.4638286613495,54.6339564475612,74.6009761420656,101.850804710273,90.2148041487271,71.6272160697037,128.294211210829,125.998303704837,58.0464417692421,75.4873929060565,143.081389224755,55.8189292268186,70.5772558769865,75.7210074685513,71.0694753660784,66.1329275248899,86.4511621602444,81.0584542678004,85.0753738700469,70.1083508673228,62.0493048372692,-3.58061436795437,71.7978480831707,65.0834937598541,41.3435073631437,47.1797368718912,46.6046601284673,27.7184694215042,59.5673826307636,61.9427461771247,62.6952502231617,33.856577948379,43.1093400613837,64.3669187747087,31.7460599843891,53.0114458663299,50.6143886964271,31.4542260637164,37.3853067937223,38.8140533633796,-1.62607339521868,29.6353120023278,116.149577182323,95.897729265493,119.026621345558,78.0115677251621,107.074814606686,104.534691171222,117.503095064823,121.308638846161,76.730681683122,89.2393653955419,115.488373025842,99.0049484372633,104.527080452709,109.726166107842,82.9301674546615,116.500711590688,107.889080116352,77.2411254875855,100.988887956184
50.8332060827082,48.9512791424734,59.2524884989815,62.7905110098012,46.5115106949683,65.9798054045956,92.5501762226198,73.735153822235,69.1309588282361,115.252772694067,105.316590192307,56.7877704563887,72.6263744521374,125.363488392,57.6550770204178,71.4479703613379,83.3988381162623,68.5310048570616,61.1951949716581,76.7504158417624,67.1730042423237,86.397334102651,58.3898707635315,57.6162409924423,-14.1978658527682,59.2428646333033,61.3242603389711,31.4477453176109,27.3416198948942,41.7341882648475,11.3734415597714,38.3848628498062,46.8282029090488,66.6045100457043,9.95762597667388,30.1467056537348,37.5759613024249,-1.12676682075877,32.5523822477236,36.461365613258,26.7685284094052,2.01624583330404,19.4320123299611,-47.2575248183575,-14.9073932366181,68.8440158864116,59.4442788342822,84.2668776612683,46.8593377577887,78.0706510803256,75.3781766213372,85.3201666696539,99.9464313139688,54.1401951818062,67.920944866724,90.0504489334272,82.1249563855647,85.0017830942523,93.8088074141633,66.5656182286497,94.0511460059358,88.0103054685723,61.6891768530425,79.5297396624746
41.9002152465377,39.8671912625606,49.9039644119893,53.9917296138729,32.6067110241439,64.5297773779421,79.2058766986279,46.3362673233936,69.9067299901467,96.1310496365093,84.8402809581537,58.6319572972966,66.8161508081561,101.125681562633,57.3913174043847,65.5497900061862,85.7231193621708,57.0333147982891,50.4780232774151,60.793112076676,39.1233518483878,80.0430762364618,28.5735148093828,45.3085236371375,-35.4494311084988,25.372785854207,47.1984563999985,-0.950171594412689,-8.27577274397027,9.32462499348025,-24.0113868414175,-1.08800487833315,16.0509318665825,56.0612259450359,-39.6800535823103,-2.61270120234364,-7.38301405469542,-48.2018108530319,-1.75894232652607,0.230203541827978,11.8020209074371,-51.8866937687634,-14.7815575593685,-115.25979732067,-69.3820622359474,23.4596454671207,21.6772561484142,45.5611660069207,12.0063343759183,48.3408648091252,46.2567993093623,50.6278920713869,72.5129094533442,28.6587679906016,43.1379150097164,58.7153555379113,63.5047195257695,58.613292228364,72.9754817555742,46.6922952103731,69.2707478168795,62.9822019041214,45.752506552829,54.2115290760162
16.1466543468269,11.5820010478059,22.8189434109133,23.3116745189538,-4.08665360190768,49.5566696980228,50.7388869684817,5.29810354805762,51.783691141644,61.1499591153386,50.226966239167,41.1954315715027,42.3681739065556,61.8124093344154,35.528472635551,34.3927870082459,58.3597760969517,20.6470535660128,18.1929742479764,27.1236759580739,-9.98447106997831,46.1901978716681,-27.6364644289443,3.39458980882242,-75.4275307709338,-39.4904354230428,12.2823947875259,-73.8909373417546,-73.4412789905127,-56.8419627380736,-98.6156933313873,-69.2537766209778,-35.7020990562551,13.1877867682606,-110.104361044056,-73.2501642278726,-77.2888223202467,-109.903375815768,-53.6288468567366,-63.5417681793375,-41.2817565521721,-121.505787297764,-70.0560363705031,-194.722999038139,-128.341367864636,-4.9118872031302,-8.31133344715549,10.1525829370033,-22.1291642974465,16.8518986806449,14.3503389759325,15.6625407626865,40.8211681417071,-3.10122627954591,10.1252878343994,19.6680146686665,33.1022411825851,20.2990746385874,39.2933954488234,15.2703062397466,32.067360342694,25.8297856396945,22.8224176976314,18.3540604602564
-26.6605790098015,-35.9144056103905,-14.4773154009787,-25.8802544812792,-55.3889790801724,13.1582127922492,5.12683080197535,-43.9421209688006,10.6863359236478,8.81073271906485,-7.91567734043404,3.82844155313441,-4.31471493880762,-2.70031869648458,-5.77455741185973,-14.1154096501472,7.79678468862822,-31.0306668289997,-32.9349198298672,-24.7469906343025,-65.4445949067878,-8.11260224455511,-86.4300910112531,-64.1973436879113,-117.313341363462,-112.179908235093,-27.2634749910524,-152.99736218995,-152.966330533884,-113.239666787752,-182.055371718586,-150.170212653996,-97.382023756359,-38.4535840314477,-162.387277002843,-162.928711844816,-161.580884586495,-177.371886593502,-96.6810636894409,-132.008486755572,-133.032491249042,-184.194347218465,-143.854641856015,-263.514926095634,-183.568183546515,-23.8692431229576,-38.2212848094719,-22.823695411229,-59.6916650778171,-22.3583819148528,-21.5180592164372,-27.196241584905,8.97449441511608,-39.0554091221709,-30.4848497775804,-24.8605533937003,-4.92702920719911,-26.1839037224409,-0.9679022404095,-26.5938594857823,-20.2959901805575,-23.0598230155593,-11.5311932630424,-30.7200559442166
-65.7267373364897,-76.2304747772999,-43.3341270456544,-67.8849282522831,-94.990266040909,-28.0962948988298,-43.1285232683577,-89.6226528862229,-33.3944232415787,-42.6065826014331,-68.8218391418597,-30.4034924271676,-51.8489836574676,-71.9328005498663,-45.2495993249498,-55.0719029331058,-34.0685410459417,-69.6731207186877,-76.8939333186003,-71.9811921659238,-100.533795894873,-51.0277102875654,-115.923733104678,-121.615395082989,-134.83521210143,-152.073443212071,-45.645711809929,-178.26558164409,-204.440015012275,-115.738723250717,-212.867162599372,-204.608901473621,-147.83178192033,-59.5995326309224,-161.513444948147,-220.883222331507,-224.889931019419,-232.75168215889,-100.654170956102,-162.960714253699,-215.228549688799,-223.510683498937,-199.132601241314,-296.235619614865,-217.81866330588,-25.3185599594638,-61.3190398045946,-40.4415485021051,-84.699392253823,-56.1826126545552,-39.5323118186334,-61.4049742243468,-10.7844709927179,-62.7424560105582,-60.6916726484669,-55.5314054997016,-33.1716975838049,-58.6154395615727,-30.0974245509862,-59.6732612685543,-59.9867539962552,-61.1342406192246,-45.8938666658472,-74.308798692039
-78.8767882706214,-88.6116311641601,-53.6010859243841,-78.3533069397715,-106.10309707819,-46.8721365867152,-64.1466520513659,-110.41583762365,-49.3207920125491,-62.1864078698773,-95.4005380697642,-37.5979818569576,-67.8715495435518,-100.722091807535,-58.3267269292804,-69.7130415640362,-45.3373747146896,-77.9082661897986,-88.0963881325594,-82.3193893091053,-102.120356988495,-60.9842796443881,-106.641610799336,-136.296455814699,-123.351617363802,-142.998489690385,-38.462539211287,-141.727006420736,-200.377956771341,-76.2418342269173,-178.246912202246,-203.098748810745,-167.351883016206,-49.4389316979313,-115.103868212359,-221.594408483954,-234.101525640025,-253.71495720448,-70.4179986804117,-145.4347371776,-241.243042340009,-235.256416300004,-205.304131179719,-284.444214130888,-219.65487853594,4.11507176532129,-57.0348180287127,-28.7925765259953,-74.4709406700971,-61.2192887312639,-26.3445392772014,-59.538712991317,-7.59261031903451,-60.5845239548111,-62.4356492209467,-58.7013491329054,-38.7520334295912,-60.7024240435643,-36.7702968208932,-66.9542328441459,-61.6208497369869,-65.7966383857425,-60.1133293580439,-86.2064471924443
-63.3340343379319,-75.4008324301618,-43.7741189755043,-57.2669309746581,-92.147065192726,-29.6563323977619,-44.1390518077468,-96.2087959158955,-26.7724883106324,-44.1657951159491,-81.7947100080761,-13.9903839188873,-45.6457944228234,-80.6016131239378,-40.328095441279,-55.2846571024326,-31.9760654751512,-60.6419847535598,-68.5304763105745,-52.4942134015843,-79.0649677975566,-44.8833897687739,-74.2799098148157,-112.628468256139,-97.3521717865751,-105.420043645009,-21.2434703013171,-88.6741977475665,-160.311251313006,-37.1832185269786,-128.489832052653,-162.961811606888,-157.026067290036,-35.4546200078701,-58.520653325544,-190.392286792205,-203.673612355259,-237.522766591951,-37.6926149351577,-116.601328809432,-229.586461723054,-225.598602823555,-192.048942385139,-250.216499884951,-203.75668187811,30.4850777954476,-45.6452006495675,-13.1858163968006,-52.3206781654873,-48.6973390217039,-9.97483349142996,-37.1034553623851,4.91568981581079,-45.0781493813929,-48.0150217134494,-51.0682119365404,-29.9495678018312,-48.5063717341454,-26.6159508572796,-53.6446578183528,-42.6974334441845,-47.7788333332434,-50.0205778655936,-70.5947942837571
-30.765546177277,-43.882352563769,-15.892309056181,-22.7886853396472,-62.5949527509036,9.68381083375922,-5.07339608434653,-62.3962964228265,13.5811571683573,-16.1578322439211,-54.4981264930363,23.9166468880453,-9.33451091394864,-51.458279020846,-9.49780471920913,-22.8514251325287,-11.2747033240984,-29.6632296778453,-39.6312387237002,-12.4537242165227,-46.7221676941571,-19.0300787945675,-40.0997969961481,-77.8388832249826,-64.033414879038,-66.1382760381415,-4.9985561941772,-48.268835403003,-122.65040283667,-14.2932806557377,-99.3168011242029,-125.970535979953,-133.445072509942,-33.4094026224446,-16.8826982428963,-159.580216577961,-172.656691283418,-203.425357083363,-22.3481761591859,-110.078360583352,-229.461484900461,-207.695878807386,-203.783885727953,-218.776556900338,-189.665707833389,4.86463941286735,-69.2755368007801,-29.7128746473512,-61.1403610321531,-52.4832258682584,-18.8040242841633,-33.5014264110973,3.93577941944964,-39.1122472979901,-40.2337289176442,-52.1147478445014,-23.2124765919456,-41.0540823401643,-12.0230541317308,-32.1374982115867,-31.3577652301676,-31.7373091620853,-26.4522045593923,-53.1692585396206
14.8610516856065,3.44740910230551,25.7703046778523,18.7078364811525,-17.9617716906154,53.1322354461874,33.8592810993645,-20.2550519610371,55.6561344467456,12.1719522293454,-20.4851507697334,64.9841053620817,28.4846389439521,-27.2017546992789,24.5784456824317,17.7309547007727,14.3291223395345,10.3167338988286,-5.92905534818545,21.0333483883362,-8.01523757299992,13.1107646294716,-9.16600499682109,-41.3922989844857,-21.9239540173057,-29.4710202826223,16.0765837508401,-8.87468082550245,-91.0687453257167,6.06434634199748,-68.9482322885216,-94.5720410677738,-96.0438402507845,-39.890859093012,16.0876378877828,-128.690906017297,-137.147392349761,-153.964792896176,-13.6898435591434,-109.554119926744,-239.639084826704,-172.325286804483,-219.873026431309,-175.444843447073,-161.570932301597,-46.8103093622811,-99.2650737976819,-53.895452100189,-78.9176323164901,-57.4760945824438,-28.7907111114581,-36.8539951710215,1.7549242337905,-32.9058864571004,-26.0389970472024,-43.0150487319304,-9.96860666576794,-19.2630130498139,10.4643043709336,1.79003076543957,-13.6390637943348,-10.2601053893158,10.2421064562532,-29.8535895269091
77.2656337076087,62.5150028685257,80.1061456161301,74.9665326978958,44.8991319306691,107.371365326877,89.2949713584808,40.3341328521838,108.023333922021,68.8548613615949,46.5008145916156,114.691773191419,82.582078006079,36.8931918871839,71.0763994001357,66.5152968060393,56.8013922713337,58.0476028175868,41.1021518787474,63.9618906526028,41.1261191338524,58.1136054024539,30.0304922218775,5.09524637975832,18.6101868931671,14.1553939130637,53.4929988146401,38.542547544676,-44.3953344023365,32.7550559380229,-15.5756701049621,-39.6455943686903,-36.5293128849607,-39.2569423364399,62.2650395287513,-80.4265244390395,-63.5701902884118,-73.5009216225769,12.7262040870056,-77.6018712467193,-208.32883026101,-92.6845047656114,-176.255379477232,-84.0548155313433,-90.3216176397332,-49.1460652213074,-55.5823457138188,-24.5777119679701,-39.8214143152647,-5.77240891673569,5.46144876745267,7.2432347354236,37.1769628134946,8.31988241893723,24.0768993999117,11.080375670835,38.2301354895721,44.7311726495685,60.853003479946,60.1263182962604,43.5454849264789,45.5626283796534,69.6940847014444,29.72962248409
147.189019443368,124.766390520908,141.579717326333,140.235650067391,115.52259097503,179.0519679724,172.417066722289,118.59274835976,173.715869065357,164.267068595036,153.266841592788,169.517218377575,153.791253369643,162.785711908357,124.418007465985,118.368436871753,112.697473754799,105.858983422105,88.4906500005133,122.723769267739,90.955089887296,109.533987114739,78.7214360413412,54.9737683198946,34.800587892477,60.3481515741163,101.783029963226,71.9239260339222,10.387675916121,56.2585000931385,34.4862155099871,31.6287018064736,26.388971922876,-15.7929153526934,115.875581501068,-15.1595602351554,41.6654926291476,23.8453188496437,64.7248512355096,-12.3592010638208,-107.984024067838,18.7610019861023,-61.422233742264,49.0395540418714,6.67901691436634,17.1488070072246,69.2799094593256,66.1127504819458,60.356149041618,110.828462156975,85.8165427296169,109.229338470691,118.006041622648,86.5909156425043,101.803030067995,104.959062086656,124.237477348249,138.298824794801,143.594286103793,136.814641812173,133.566869617873,133.532549457057,143.4922030325,124.644461520767
200.501999272274,174.195276778736,186.742649416889,191.472931111567,168.051566308657,237.520829098525,242.863376024163,182.751882956949,225.613684783734,251.420172823764,251.328539037413,202.190888078326,206.860790498928,283.625853910823,154.035440088033,153.748959081812,150.538602966888,137.51412852973,113.619416144453,167.068698901547,121.134440523337,140.757396928228,113.300043621447,87.0001450414203,19.7772212429691,91.6483548960211,135.94410562588,75.154610973562,47.4246812965133,64.3339367095516,55.1735559063828,83.156987881775,67.6139978189498,21.9748899485659,143.210188219038,53.6508895113265,135.608331163981,97.9220636318506,121.199540422346,56.4433264487455,31.0445755830424,112.344738530903,57.185892218241,165.700268907886,80.378053819508,107.068755455484,192.558340829671,164.495811147975,154.391269512083,223.967445051747,170.48456880554,211.960845899403,206.337224705625,164.228154487458,170.370733257965,192.180807074058,208.241186829032,219.212378628509,227.435752314661,206.53064265269,211.802850090071,212.396455745308,202.629009433873,210.272066494987
220.528840328099,194.823239011778,195.900776649905,211.865542985132,183.974659648563,245.266184911499,252.143377703732,203.256964342493,233.025129433201,271.151559750218,281.505398452657,191.820824694533,211.384689032186,314.365167111392,144.001755578154,157.567343246105,145.716187288104,141.617769167428,118.992497449792,170.674819759357,128.518149957397,135.197033730151,116.450201531486,99.8768773952586,1.52551589662685,105.988202221194,139.744309832743,74.9169466502371,74.9340659607213,62.4599477993539,70.6828290717996,118.137438079257,99.7574163689155,45.7527711761206,133.486790235397,121.053719546038,199.136044911896,146.004533911045,152.84641882713,105.060561556386,168.076846662578,173.515990227718,114.854344156125,220.91200101999,122.845770812377,177.019701141058,245.224351265909,223.893238798121,196.496957182522,269.369053443366,224.332389107433,258.911897787584,261.868561686683,214.134412296023,209.758119960972,234.41634319616,249.89799025338,256.245325019841,273.233067220344,245.450431946232,248.839833486436,246.340522252205,229.642327186555,246.547319415853
212.016070386434,191.434860087862,180.021329358767,202.629797819172,174.148230788961,211.374580496028,212.267201941127,187.769488278816,201.258067191864,226.430704179614,246.392324411377,156.712107214775,181.068619902827,260.302474361869,116.855778638926,141.627954617273,114.075165738023,129.401404112216,124.385053925331,148.450564147324,131.142445185911,108.366029068972,106.075496129818,115.256266788106,10.4687500662343,121.152264520527,119.310863692561,101.722261368727,122.151985786617,69.1010919250235,111.102911448386,170.363641405765,154.880115214543,46.8956820492698,109.28984881906,171.682055764414,245.77993894747,210.391958710627,156.175314937597,114.190899270426,284.533563944577,236.467202959154,116.506035088878,237.050630557735,175.216607840619,217.895676254201,239.944874201587,245.57666539453,207.431848995522,258.907637025696,249.370005953617,254.94761864325,278.423855993657,239.206051236948,227.029022115555,235.323823269124,254.101681888606,253.970630542626,275.272194634357,250.481348175144,254.183669473502,241.594668494816,233.666209648211,238.02989428605
191.668276942404,186.326034026,161.377699503911,179.954011167562,164.691165607855,177.593739282619,174.195752801281,166.54839804325,166.35631931553,178.32964344894,205.606198115028,133.875538587564,154.027311460313,199.756438185042,102.49066020131,132.932484696875,89.0196974140063,122.507687490898,136.665980627849,127.464826125215,137.690172032832,81.6180272923404,105.295448682507,139.622364768446,30.7960299471653,143.599264890977,77.6809337013851,135.113127407485,180.590444293024,81.5647011590295,154.799778387672,235.966987160804,221.641515833705,37.1101153598696,78.108389326001,166.888663752833,279.015373055137,306.680916007071,148.954443311062,55.1960233006503,352.627615618078,318.729394014255,98.3802271241521,269.295459910211,257.424641423232,244.858652614212,231.157979996132,257.304044644768,221.314606581986,246.369159279794,263.92956623899,243.353111818743,277.023345975505,248.412389141924,235.888853311708,224.815907530468,250.652837170799,243.066905199384,258.329037106824,239.566245498666,249.445610022182,231.061528524741,228.8769554417,220.372732087022
174.6261742829,189.27605861653,148.519064064811,165.533827159739,164.305252730671,166.055021199231,161.764174068109,157.791904787206,155.056307787449,167.577891201691,197.511781840539,133.978835598789,149.23924322282,180.59653031308,105.427302044163,138.377819882752,80.8050165532725,124.56773766216,147.291503165956,114.472518684426,139.798695492274,55.3643606783437,106.889253364065,157.420197693071,20.764360825842,158.482925060802,2.06244716598515,132.876178328774,215.305775173362,68.8030776050855,162.800642305732,273.303150439685,240.27016818077,10.9011718074909,22.6427567186596,103.525843999151,278.166641425011,395.37341319206,129.328331486489,-65.1076345258394,342.623900573834,391.218351161704,84.5984232263199,327.98540691659,335.949685010329,262.0945461795,232.221576214872,266.823864077964,232.022217452357,245.06647468889,267.952581137946,239.556938781835,271.33671710355,243.499595084406,235.541044515014,217.210506814561,245.463985880248,240.014269044871,241.404818267472,229.709872802391,242.635794530249,227.220590980866,219.284227038623,213.812456126576
171.312107942201,195.043705814187,145.080761868503,170.844332776452,171.01078735456,170.668232883303,166.071394826273,164.46761630351,165.448888268142,181.545038012059,209.641694899024,144.297221110461,160.613111674108,191.570212290976,118.697838693177,149.543454673774,84.4595728033951,132.066475650827,158.12556893785,113.966189417067,144.455838415251,30.8651274093946,104.559968065933,171.130521166147,-13.5024433007425,166.329538033559,-96.1774093331764,105.05945631996,233.446361736384,24.5859492255991,152.057487243013,269.99580770204,191.699157790434,-38.969024022512,-43.4933515308881,60.723496061125,243.423657772403,448.365575482824,80.49268041304,-151.747400693123,291.606187491557,431.798308547383,118.708324850143,385.131752912669,387.540302866395,254.55356457152,218.102281548186,258.094821329924,221.346670387437,233.235209329188,254.35923956774,228.860522057487,256.838982134903,231.240248492924,221.358355742378,208.271480339315,229.740421557731,239.616493314464,228.184995915482,224.378234659073,235.269132927194,222.641041760247,211.112800211319,213.344032370282
182.745599237151,204.880324548211,155.842438243016,189.890401463067,192.584077993271,183.580739139514,176.811870311222,187.472804185508,182.833041692001,196.821303591345,225.117153259468,160.653159637974,182.579951293423,213.887066122275,145.587332788826,173.224027360213,105.356463851489,157.300545360166,187.787713054646,137.993016282796,177.398614721439,28.3847793520243,125.106040911225,209.887227562979,-12.3634936918635,196.567060188908,-160.135580343981,109.568864907013,280.200208249551,-5.43706211169082,181.399996352492,262.055163929738,162.585746926988,-75.0847611213357,-69.8947603829855,118.171584746705,230.537572766255,489.954491285996,18.1973386216249,-108.001893017267,279.798595505083,466.322263254551,239.728471075965,432.685057719319,441.199480134945,222.424305016181,193.777894148741,230.096520127796,203.34592927452,215.206864673104,230.754091344232,214.970840938637,232.231188447471,222.887673510415,207.372332226782,204.85904093513,211.52514628687,242.022706042588,218.873748466599,221.346699205485,233.333973226155,224.034420647268,212.114237349477,217.324251633092
197.103772662319,220.917216034436,175.01523459303,208.816374242781,226.518027432171,200.960018929018,189.665061621135,220.425723378208,199.002643701769,208.337931694105,246.28919364689,184.095154215099,213.392561373335,244.420402013458,184.551471723812,213.697582468622,144.436271654692,203.260394666813,238.69093159635,179.822374370082,237.719338997713,56.2147132398522,183.814583368013,281.876027000972,50.306734116038,263.710923758289,-155.363179890474,171.503518370448,360.837643849498,18.731670750667,265.568690051405,275.950709852235,248.203664532352,-50.06199339694,-27.5437629195463,243.003368004226,294.187712931531,540.737304578284,-8.10860871535985,38.7760209458523,313.688094190446,519.918360147314,393.151663395795,464.674727120089,518.018010136196,187.020833240432,183.278157252464,200.599821458439,196.619043937177,211.440071184438,205.11728229091,214.483333340812,203.862260448978,216.886218409723,207.8431520534,218.54044024606,200.419753573662,249.839237980085,207.01511892713,217.065451679591,237.041781789652,236.365517122058,213.516668062757,226.727426321657
204.655838611073,235.941761679777,189.631692305103,221.046272865215,252.717731205576,213.694329527391,202.096304756915,249.055966570868,214.350871965084,219.025080048266,274.080141736602,203.152303675475,241.216675265793,277.9165218487,215.990405403978,250.217166273033,180.272929779889,243.515279932557,287.436922390473,215.010012353653,291.359024262906,91.8764867932416,250.537826642737,356.118584348649,131.661167402302,346.38090512178,-113.727206659456,265.743322636341,434.918780096172,93.3736040232178,365.778888711125,305.115341681634,413.73524376285,24.4177563928336,85.6181382802142,342.013204971464,421.768169016039,583.824671296834,39.7787191299688,205.492117487179,340.633980272872,577.864752384947,481.683559452459,459.792099917486,599.493674517345,167.856652375916,182.878923037187,184.20827485056,195.459019358002,222.705948437033,185.004890620665,227.864033020863,179.336980302528,210.695266189122,222.043895760066,247.215178353042,193.152554838111,263.862129220511,188.639691153284,213.376187027489,242.833147076824,246.188309798192,206.459958275768,234.793237999988
209.729558158769,248.639818601394,195.145894274329,230.936744432095,267.993379214952,212.898680590999,212.794949874853,270.195284439184,226.843585531879,231.154174463677,301.647987406102,205.170859123761,253.851742826657,304.453897536303,226.818040582,269.445947498189,190.453036795228,262.158050391761,321.407734727954,233.809937528084,322.559855599845,114.334976039307,297.730713596187,408.002257929295,195.651146763775,422.296862932173,-62.0795241609855,376.756291754077,491.907227818603,209.428397878935,464.567215820749,356.817890116101,554.137432000322,104.6211775176,265.710398526679,403.076188821142,567.723582788773,614.100787318786,151.01499813027,376.493792007849,381.44230712797,627.606488249443,508.473898852391,444.162392149784,675.260219567662,180.576550259008,189.693006798856,194.873674525256,204.852124833089,246.649499963067,188.914515136473,255.763453767194,172.117009470364,220.539195916951,254.836381101267,288.946954140651,194.410338968995,295.560062438838,180.441045855406,225.334940810334,263.432294725707,256.433045047152,205.398828674042,247.029627155679
217.662911355212,265.810873115202,194.640964092862,242.633862696437,287.879447231361,198.384697364773,218.965980111197,290.957896082697,229.27071871613,242.932948627878,324.948240003709,192.369314489757,255.20597471358,322.566396431954,225.206643314252,282.540264448981,178.666442977084,273.956560081514,347.264556277176,244.644430222735,346.7496084318,128.830982757196,333.462668409396,442.508600844587,256.883400479262,485.804409260783,16.942756679305,495.816954779945,555.839048479688,355.040880145076,567.052643087119,450.35652655831,636.69359813055,169.775141181154,462.283461525388,486.891422207725,695.314440429964,649.224577217183,252.70615946169,559.929798251779,500.784729720012,674.657882060531,559.802678236607,483.885400806272,743.947580065633,225.83133442648,219.936384015011,235.153894237354,244.519105427427,284.547697513933,219.397574837687,299.713467898838,187.285804076748,254.879454390522,306.41130665479,340.084456237977,214.280307472683,342.949122811115,194.879543032152,258.685297162184,305.806093960078,285.7082033756,220.207049835878,276.117031424847
224.804454927648,283.187826747213,191.375181578336,251.622664869961,311.483113353189,177.714255908946,220.275562677708,308.734852289385,221.695016514401,248.742592840898,342.763822334445,176.159287660694,258.272014511779,336.800816761523,221.664905396162,294.539569534271,168.236729547509,286.011291268388,363.98830580576,255.072508806818,370.259390637229,149.579662576126,367.124711294891,466.570427882856,326.995167572588,528.2043466687,125.02135157554,576.764071886236,614.277179852131,475.13902951939,632.868153359783,558.907220673018,680.72624353578,212.230653082051,569.392894948186,601.848501908301,762.947240008734,683.83305799417,270.147827239753,706.917512166771,663.712522095359,707.536917518334,662.198570126941,579.57465109384,780.60569012286,270.108241678732,266.187626122718,274.010531984711,297.455587595743,319.289097789734,246.639677191866,334.945913066935,206.597428073039,288.402489720938,345.045998346116,373.433527210483,239.625552962322,371.233295234019,212.391363412907,287.009224588548,336.207754636565,321.51396092325,233.604386173176,306.633829795162
224.128012139254,283.248367039543,186.606562884197,248.863623416139,318.103562402001,160.00808577943,218.874424580263,311.640682599898,211.014971470899,246.029008567967,348.058501621161,162.599595243349,264.808398619361,343.666314497959,216.768309841252,294.711284319501,170.236113309766,287.602407408097,362.596780635061,265.510287782757,377.490790073627,178.661429392776,387.540035655804,474.485304616538,384.868358645309,535.831589775138,234.045518571462,584.749599138596,624.782908901592,525.184354436259,618.428771757906,622.846201311436,674.453931024677,249.731072312785,550.048233012277,683.016453977228,740.755592869742,686.338209853215,237.563144078543,760.828850428798,765.27282657742,698.979616888032,750.004189297885,653.794123182482,761.939893738737,276.153313682256,291.907165705309,272.95978401161,313.764515264144,324.911224472805,244.775563882545,328.217020722231,207.706725311275,289.321625389104,334.800381646544,358.408971707456,239.609341188942,351.494623893112,207.178056328699,279.863274422909,317.675387227821,324.88951990123,228.676597523674,304.123975888614
204.556282048755,250.250411941272,172.471363895034,225.455018221917,288.313280706889,143.067654781919,203.889583640447,286.617283928348,194.424605479036,227.653310702753,321.060651364613,144.544572205712,254.887967691776,325.175972417348,203.882132953998,272.880802284452,170.119968517877,271.329276958504,336.977508221746,265.146307774098,352.208007973952,202.973951945038,378.042106629201,452.351721800374,410.883895105762,505.851403644974,324.537617119573,550.059542089106,583.788967568968,538.179512742008,567.914360791498,610.373083638603,588.710105494495,326.749120122058,504.421957678171,684.790826954487,633.526274344774,625.589478850738,255.425991163306,739.544037090356,755.453996174616,625.538283905671,757.792175051224,642.394804635969,685.345510462869,239.063664827049,266.208001671786,224.256680110777,268.096494131844,286.431447292987,212.006562844747,270.301514472076,181.331785920975,247.401240581969,273.387024962499,294.30507249549,198.892002249134,286.871200619395,173.148956441993,233.294060032135,254.785334285788,274.781847406402,201.968210158484,254.57559295096
156.76634709842,183.861410903058,135.759006937088,175.044661198514,217.743883061779,114.626550861219,156.775845285103,223.278341124247,159.897427911565,177.619412925834,244.986325966158,111.72019247383,206.63761086365,263.024683772326,172.191595339851,221.906457104188,148.208489876428,228.725931551492,278.847786967292,232.843900210665,288.250544782347,199.388466976332,327.862912574641,383.646872845486,394.97251333182,440.640858326677,373.816928780298,501.27110237981,514.992662876,541.765805785125,537.375994004991,522.769002272446,439.527399261905,423.154784985122,512.157006667653,618.18138266218,466.488858913929,493.724036057661,319.487363058633,693.559223684497,652.506454998145,481.079265689488,682.023746893257,540.370150193168,546.024968813417,172.518977536606,181.875160422082,144.328443932992,177.067745033532,199.889068998448,152.583666237841,173.437033689614,129.706008606799,171.006019039512,181.426974665497,199.509064164467,131.080156958799,194.476581125366,117.24281297785,160.018458521995,169.815784784009,181.462578328606,150.955884442256,170.315169349459
87.5776349143071,100.289903605602,76.357511919888,99.6270799990761,122.103189654037,70.7318229100907,79.1358303131198,127.06159665115,103.213618537907,94.5166372806658,136.475304295589,62.6289592030375,125.511246443331,164.234510758141,114.853454805325,139.439948779677,98.7623208988834,153.232229690284,186.063948348346,161.421459834385,192.492045714496,153.564381929461,239.496190482283,272.243234921823,327.871474584485,342.599442204895,352.249864695606,419.85151181693,423.568533849296,490.319122426101,497.425503914223,386.63836637349,297.691719901537,450.782847571991,517.809758909369,512.092199425141,288.349489390671,326.451651335292,337.949782755287,624.609856348392,499.466044888182,302.69763151242,564.872811603357,385.645473828126,353.078520454635,91.1451017849658,67.0163802195989,52.6068008732078,74.2322979662937,82.1189861808726,73.4818994644745,62.0809099372086,62.4056020880566,80.883003640859,80.1856442948543,90.9206115979039,57.8377489661111,92.2310813572416,51.1438928471819,77.3498448544175,76.873143512944,71.8961175537321,79.8183603985269,71.4877948209941
9.89195373806835,14.7348229421244,6.57788627457326,10.4248816731544,21.7210470223437,14.7471054739499,-9.57735753317256,20.5868026704925,32.0954083600538,-1.40011809634989,32.8260479562469,-1.62194895852607,34.3241328747523,59.7490284280621,36.9815528350245,40.222284612468,29.0510630579061,59.1133996091982,76.6662446615574,71.3568306421122,86.4572010210668,78.1416014823441,134.068812545369,152.907374479473,226.073655886403,232.80736648466,268.265655055905,308.788564829208,316.90059968475,362.956538774102,415.157094062146,258.543675283742,215.153489748404,386.375656989958,457.293231708146,394.797556020897,156.154407317238,176.196844331773,288.295784413289,515.549454777068,339.204282368438,151.614867786331,439.823757555301,229.136651317973,155.715195938257,5.88777577109309,-31.1702039840185,-35.9478888871843,-16.7379455847913,-29.7361136557923,-11.5294551800005,-39.5442870554708,-14.6335553193211,-4.54978069262002,-14.9221212486905,-16.2465932994514,-17.1795633574618,-7.22423260976437,-18.3775131269241,-3.75035632214822,-15.8968730287946,-31.0192578889399,2.14598306211118,-25.4700690278572
-68.359670026018,-67.3735068048471,-62.5452786014611,-76.8613272993931,-72.3638479716682,-50.6292889147703,-93.9069914360645,-73.6419192607587,-43.1999602219448,-89.3087902737365,-49.7450819773971,-74.9376781630755,-51.3805016655953,-25.7533307061213,-45.4508711999447,-47.6692273138246,-45.8911787122721,-27.5733885379912,-21.592420546311,-10.6166597586818,-4.07722060793557,2.16531244202099,40.9723398516,60.226783066176,131.413291176389,143.758532442514,165.432456090713,214.583200362878,218.766086289789,222.068624370805,318.608258388544,176.764579017706,174.466133432914,290.878960798384,357.810313595044,288.243984144009,79.0574447005534,59.2531177315493,217.391350308874,387.390500833775,194.692145669976,48.8278465573966,297.217994624648,98.1216346188951,-1.89818311020649,-78.613166737858,-96.3845106527206,-112.982065323034,-91.9466524095241,-113.843754358921,-90.8653575846723,-123.097638004367,-99.5288356110228,-82.4719869823273,-97.7143405566487,-109.023047918465,-96.8831152479213,-99.7986754056329,-91.6521588761963,-85.7225847758988,-106.746506211317,-120.749488673866,-73.0179500316194,-111.209804911352
-132.713761474366,-137.775012993958,-120.384146119492,-144.645702090778,-146.87605203725,-112.299549065448,-159.939550604289,-141.787379460601,-109.807949267261,-153.871624122826,-113.426433034625,-135.064084188959,-117.033751886176,-83.9447832227304,-108.827698819031,-106.74116065044,-105.070565123912,-88.3687987804392,-90.3743810163111,-68.4037198616274,-62.3136040426377,-49.9212431388635,-19.6881945442968,1.80450449844966,69.6672443120059,82.8954773579954,75.6918058509404,158.282563696873,136.296952779616,118.219754084024,229.875572229188,119.972187457273,135.765977466956,196.70145543998,260.043633085045,192.662144041275,20.7685056931225,-40.5696037125936,148.300113387987,269.708063356945,68.4117213190975,-33.6397490952221,121.293410522531,-14.9631629518845,-122.230503037986,-152.293175198709,-148.871705880034,-176.282673903512,-154.647316206234,-178.852531149364,-158.565562897417,-189.970302597831,-177.90767274431,-151.284098838162,-167.573764407868,-181.071199138586,-167.708413788649,-177.752281300112,-159.151358127676,-161.196871307256,-190.352423066828,-195.866918453935,-140.370794704113,-181.56140923831
-165.512548058002,-179.736328322994,-152.031470637303,-177.597222142159,-184.014103476856,-144.543651887437,-189.324029663074,-174.357135987846,-145.017331445407,-181.161188025456,-149.264716880245,-158.090595275468,-143.418582981983,-105.47753534949,-131.585577185157,-134.083348823673,-128.238360535326,-112.94943187216,-123.45055217941,-91.0113949647422,-83.6621903580449,-66.2993468303913,-41.9119971610896,-28.6005706920946,40.1954159926718,38.8865324127967,16.0831650955503,119.919909798926,66.6489236466753,34.8266814101789,147.656901822999,70.3903593070013,87.1078542390778,91.2630010936389,160.937655817894,106.657990563961,-36.2604908944818,-127.718919025725,81.1232202675916,166.172211161342,-30.6710537534629,-118.703276296063,-54.5006512161224,-115.509379639912,-221.2008002079,-198.536748751129,-196.714639138386,-221.923173623294,-199.723581430193,-228.644537156728,-207.660794398661,-237.009520895166,-224.040061025512,-198.260881126978,-216.721530559132,-227.047320239872,-211.219545381084,-225.872919093003,-197.604144736958,-204.190730240746,-244.903301686812,-243.590743153329,-185.406945525594,-228.327975148631
-163.41462228553,-182.828425933852,-148.192594706096,-173.780129131411,-180.71843380294,-133.718825358016,-177.53753053294,-168.778705801152,-133.914026612766,-170.058321707797,-144.999708884915,-142.930320060693,-128.053203906403,-84.6141919108127,-114.271696542453,-128.027774283592,-111.891490699905,-101.444490812506,-120.976023667367,-76.5934422749304,-75.6695650254902,-50.2795076404708,-30.0782189541079,-32.6403863655695,37.9908677199078,12.1876677416008,5.02722985962531,87.5058002667559,27.6915796109598,-37.9571726806304,89.0876060611982,59.4775843942057,37.7916994156352,-11.6844547233139,59.3109187970919,53.8389247816289,-75.7290125771502,-187.873583259562,31.6115226566256,85.6940202897053,-78.4754413225691,-192.901882530713,-166.880597476968,-183.025723684286,-293.668234994145,-210.526372388193,-220.108202377953,-239.131504298271,-215.835180327205,-244.930928384512,-226.811047161146,-256.485675373014,-226.173062870743,-211.992226004096,-230.741798311138,-238.587217437687,-220.466735047327,-238.251443581521,-195.710974074436,-204.490202308863,-254.126959456046,-251.466668954269,-191.587446600974,-239.973366335786
-140.365438504191,-161.247937856909,-121.210666281422,-151.19157716778,-156.454397854804,-99.9502533880688,-147.147567668748,-141.701946594604,-96.7502320114182,-142.360450356065,-115.937252370032,-112.268357373066,-96.4789268654849,-44.7395326026546,-83.0247107882042,-100.717352002611,-80.1943487504029,-73.3756897677735,-95.9546010284888,-46.4142542141649,-57.968688306203,-20.6558485579031,-5.05950706832257,-21.3555047953559,57.8397424884691,0.292137139879136,40.945600913833,61.7070042390794,24.8326260936897,-62.6750106543177,60.311777744138,89.5987001063828,-4.91003567133453,-84.7752575406519,-23.1681504557866,49.4835198469564,-90.4171862147331,-217.011093581685,13.5228203853402,45.8773122691389,-76.6324327436786,-231.094299264329,-200.71088436742,-204.553231167208,-323.509587572253,-197.679633571624,-215.04149211571,-227.547099532393,-206.646822572453,-228.891833102979,-213.732569704533,-249.970913862865,-203.73741971932,-199.350208116173,-212.34147432205,-222.674620216471,-201.978259099023,-228.515784998439,-173.701458037442,-183.902613263365,-235.180718423472,-232.495145016486,-166.330011368395,-223.02193999079
-118.808110938555,-141.806641550753,-98.3014057980183,-131.86708025373,-136.369045923931,-78.148194417036,-124.745398603563,-119.716542777443,-70.6560751979442,-123.379082438119,-94.3755971310188,-91.1590534311601,-77.5488574879006,-23.3507474229575,-63.7021700337948,-82.136060899601,-63.270406964752,-55.1098521422001,-76.1753787729317,-30.2934136738567,-49.4490212498441,-1.59884574438048,3.9714715948663,-22.5912288855506,82.6750215993051,-16.5046370793546,85.892352975785,31.155586243118,24.0778511931841,-31.4384383216526,28.9416565166033,105.374314119869,-42.8459331229731,-131.834021784252,-69.982023946728,64.7736185615404,-91.1322644381651,-223.057830386947,20.0436056017871,25.3568832568827,-68.5567660982894,-229.152351347314,-208.074188374188,-194.58389043952,-305.135134549058,-177.265898231462,-207.621307780369,-205.563017596106,-193.558957001767,-215.563846169223,-187.159098336369,-234.088919887515,-184.095571372446,-180.609397517026,-186.986851407041,-206.978924296453,-175.512340987424,-215.248221165925,-157.500700411332,-164.824896767496,-216.595671285129,-213.381825256421,-140.606391471381,-201.741656167231
-108.806361639725,-130.812033250685,-90.5212363957233,-120.431857897259,-127.310110827292,-77.109483146938,-113.481087054659,-107.260130428015,-67.0725864828453,-113.426316708771,-86.9913286691899,-85.7239206839643,-74.8814586655888,-24.1180834129082,-59.0801997098813,-82.8493840216407,-61.4406663438248,-53.2076325833948,-76.1110352830147,-33.3725959237316,-51.3865933228363,1.74609305866287,-5.5000249017098,-44.3081527711945,93.0860365237735,-43.0873551037483,105.563671113342,-5.10271624204187,2.31439740775513,0.188330149668618,-21.0272667731838,88.4723747902781,-75.3697062531494,-147.624195313976,-70.8816348363209,58.5748172065227,-81.2302877919292,-208.100319759861,48.1851274517124,-14.3217064959154,-83.4706081817194,-203.178175399853,-227.58230647648,-166.786860899925,-254.278834912905,-151.630844006619,-201.130591975745,-179.16308566395,-178.126977390183,-213.907691454711,-161.988903404021,-215.614297302152,-164.254359897518,-161.413725653035,-166.556450393317,-200.236370829591,-154.762360484787,-199.291638564415,-145.450926388228,-144.241153189421,-201.206313905038,-197.888007928492,-129.087912338799,-184.271854358374
-98.4855496550288,-117.800451758506,-85.7791994421799,-109.409706375076,-116.598065417583,-80.0806986262251,-103.609670426191,-90.2654000171735,-69.2058119106805,-99.3081409355076,-76.7819482584197,-85.5590142182659,-72.4878932050169,-17.5865307013842,-57.6779026874148,-86.0165878567328,-57.4887145100136,-55.8978890366328,-82.3700316483748,-38.3167716309486,-53.0518060787901,7.0196834147315,-12.1098257593541,-62.1281808932101,89.7226381297251,-62.8874175806751,103.481709165794,-23.3045460900817,-26.6018290309336,1.04811932947238,-67.7253539480625,74.814901655768,-94.7427660298254,-98.2089941238102,-24.4412742925387,21.9515184954897,-65.5616970718961,-177.787197629309,96.6785182283372,-64.0924161895392,-106.55841032104,-175.175330106372,-240.834508171095,-129.307962860043,-200.926980409101,-110.800161084949,-167.717425193664,-138.306775795814,-140.706705255477,-191.766127400361,-130.715593684946,-183.016021757801,-129.620836282665,-131.681773096866,-139.077406208297,-180.63954609058,-134.706115660124,-170.375158616284,-124.67576697731,-113.601411730125,-176.75513777012,-173.551685150589,-117.085811363434,-158.246413328533
-81.5706249542409,-102.788509327326,-76.6445714479387,-95.4978136892375,-97.2611867298831,-78.5552007363063,-91.3540729937565,-71.3459215730657,-62.5987233127692,-84.0086970192019,-59.0323224127224,-83.7203362912437,-60.530245441416,6.33729835865099,-55.1942794141839,-84.101041700741,-51.9555463321423,-57.4828636628197,-83.3225181280502,-38.1061098314493,-52.6875139650381,16.0586177527024,-14.2214827734409,-65.3438960456658,82.2681583424225,-73.1967019179908,92.7248938545533,-24.1254257722859,-49.3896244355516,-3.82317559946311,-96.5930661144352,66.0114030493845,-97.2678339115383,7.56916805607099,31.1765164478992,-22.8287466944656,-64.9866207868395,-148.375287066212,134.605186807761,-95.144244741147,-118.479488504006,-162.51996079179,-232.536166428121,-103.655294306427,-169.338116894103,-68.6635239819407,-112.900034239125,-95.3929797487604,-89.2496401912595,-143.159658682732,-95.4642859998548,-139.211295394589,-95.3273996918747,-95.9473917310056,-105.216332754723,-143.06063388335,-112.822430751,-134.385255320136,-99.4914486906895,-82.8872892769453,-144.178451390897,-143.210431135585,-95.8504928029196,-121.633579242305
-72.9916635684848,-94.2296646975865,-71.0937973939472,-83.4669413994417,-81.6919425425971,-78.5329329026503,-78.4923924587678,-65.688346543007,-53.5276605004107,-80.0148934117012,-44.892587840901,-84.9351090385896,-48.0923470508059,23.438081371279,-58.1093324933231,-87.4136984407725,-56.4727362813517,-65.3071080677602,-88.024623071294,-46.0667824275639,-62.9333896594898,6.6531695035745,-33.02258937906,-76.9767358342581,61.7942983729752,-93.3124577717097,68.798240178586,-49.59111548952,-76.9703347365905,-8.51965120151789,-119.764786892187,17.5704333828482,-93.9775246631339,99.1492191629239,34.2656702108562,-60.770193146036,-94.1392007106906,-132.93825298524,123.251656885498,-123.026279182985,-125.657375314022,-167.133226637171,-225.192283597119,-106.539134934971,-164.772160927,-55.8115197842107,-80.3044026121355,-79.2898581993043,-59.1674633600958,-106.674973930818,-80.9516957391902,-108.881472450457,-85.3194568188313,-74.0812024232513,-85.3161936403114,-113.851086218426,-98.3096774848515,-111.318897033534,-86.2320532224516,-66.8752841694712,-119.312801686859,-120.330277580548,-77.9878898739978,-92.7432251717808
-85.2017499098377,-100.788901451431,-79.0168924861547,-87.4719573735283,-87.5045280904568,-88.2347769230946,-76.8212329331958,-76.3150756149607,-59.0766851038779,-91.1664714809949,-48.2291835660544,-97.2417580955541,-55.4183346226959,14.0888997502104,-74.2261191686679,-105.685594134335,-75.30785956256,-89.4675039018136,-111.935569457811,-76.2553838728045,-96.3814922446956,-24.7723178779789,-80.5796735562796,-119.146549646498,11.9747920182492,-141.924873855425,26.93800622892,-123.004878420316,-131.702540431964,-40.4737079747901,-160.947843095243,-86.4560946619812,-115.592551878089,123.949419059438,-35.1487580735084,-111.409526242562,-150.304691228105,-140.891331049836,63.3813681904937,-180.445377521103,-147.698226179458,-180.03659107418,-235.620236553599,-127.544772963735,-176.424878810369,-82.0718236488899,-89.743836703939,-99.394590636917,-70.934534651286,-112.688264969893,-101.103445799379,-112.465000647006,-101.597118916495,-81.0576770958363,-95.7265767871433,-116.421162968836,-102.170962902142,-113.994830375727,-95.8791969898964,-73.5688573124194,-121.666251520652,-118.674705341831,-81.1438908352583,-92.9873091304245
-114.47555008129,-130.575681904395,-104.309425922865,-119.442304545055,-120.567694943912,-113.858123887066,-104.115680931074,-101.375118870417,-84.6463245792067,-116.317926163118,-77.6239242467628,-122.831827348941,-90.3062570301005,-18.5761040916215,-102.828976410523,-140.619298509954,-104.295659442252,-129.512992636514,-158.883095209963,-125.209571491696,-150.917358880624,-60.9062672105001,-147.90940226674,-185.481001478225,-59.7483929929671,-217.686408803332,-22.2084418290633,-216.895744093358,-215.766821611462,-100.439768904631,-226.897562931833,-207.328008461176,-182.380484330472,93.5417676751252,-135.408237010149,-189.088688244949,-220.786462806239,-173.755797258547,-12.0585933126039,-255.189689717498,-186.364560082305,-194.936771111348,-246.818298907084,-148.388352366331,-186.759993423526,-130.007800633746,-122.423858860822,-140.52294342406,-113.315490407228,-149.822829422397,-142.528088947346,-148.154256093009,-136.107527027128,-116.019554762402,-134.736583345691,-149.532386075273,-130.615597457788,-142.540820969196,-126.609547653931,-108.048651869564,-155.282195593342,-148.288140910005,-112.179693288574,-124.921500594416
-154.419638625604,-177.909875510034,-143.538912166891,-169.433122666513,-171.378712514843,-155.379933390673,-158.789889302655,-142.313593232099,-122.177802996654,-155.425173442217,-126.075221315146,-157.54903373038,-136.092370700096,-67.1001418684197,-135.209972225858,-185.348128017883,-134.814819743006,-171.760342995221,-214.674982851453,-177.090502853982,-210.951001535572,-98.4643969105586,-214.009989006771,-252.01511619514,-128.269189592279,-299.298582191693,-65.0707808331314,-296.279856735253,-300.337033775367,-159.740068162554,-294.806188076565,-298.396104551331,-261.671167337263,48.2719835771391,-217.047677487426,-266.009809468307,-282.004554961861,-216.434203616909,-79.4125448804143,-310.60653729985,-219.924152483679,-212.098623152166,-242.441404368072,-168.296183010966,-188.258566722091,-167.504621690675,-152.246818237295,-177.950676374101,-154.734607380749,-184.142247512553,-180.502646749994,-191.562453731564,-177.378185737859,-158.324445496757,-180.553506798152,-190.438659486951,-173.350284613563,-186.758165877059,-168.285437358864,-159.876837879681,-199.334133797922,-197.530792380904,-158.605566629643,-170.541597414304
-200.028533945479,-224.138454922433,-186.785081529182,-215.537068709853,-221.64787050073,-203.108824635426,-215.972246741235,-190.430268306851,-164.290476608701,-202.329269223624,-177.333898891996,-195.556024695135,-174.557512797844,-123.144713106658,-166.581215019917,-228.816946813346,-162.923532653373,-207.654504783287,-260.503629229496,-220.320011101824,-261.425762749211,-141.217622514439,-261.887035330291,-303.510345456226,-182.40684572369,-365.99707027539,-99.5355501580609,-356.203632173734,-362.028748783064,-203.251611361382,-347.131369437116,-351.142850852245,-312.103744093639,14.7808272033049,-271.807068623192,-321.608513182425,-322.466853213435,-263.047344218612,-136.166851705519,-344.019536125498,-241.79424703141,-241.061545155052,-239.866527813362,-201.16207588986,-201.213480249866,-176.452654259508,-168.67702342236,-200.589864110254,-176.624171842015,-204.587218247068,-204.76390877935,-221.957590546336,-210.00927851901,-188.366677083446,-214.684389324672,-218.095944143833,-209.81979303945,-231.932189847851,-209.703557845719,-206.430999593707,-234.323854902837,-241.643138875135,-201.378525915309,-214.580726340619
-234.899664893718,-256.485171997526,-218.394214562329,-245.485284776998,-256.386838266929,-235.682315522091,-247.508261065714,-224.252192259588,-196.963071876179,-231.994200106861,-211.988623713815,-225.316966187333,-200.378705402794,-159.359530891359,-193.797513259008,-259.747599922062,-185.533243442603,-237.90904361709,-288.257901962999,-247.609598005553,-295.152866405621,-174.856951214505,-289.77552446628,-340.300823197467,-227.402828956551,-410.127572535308,-129.612200664664,-402.695344082874,-406.999419384537,-230.763983204205,-390.073894183761,-393.55299150716,-353.148507262814,-0.359374704316478,-313.719950070891,-370.51154501987,-363.331683819254,-324.071429350044,-182.414105275806,-376.81750839874,-270.959541037994,-291.045986479059,-256.399751923176,-255.300203328666,-251.38274929479,-173.990670058816,-182.631710185037,-219.715798603263,-194.135262248063,-227.90338363961,-223.482057561102,-243.540875959245,-228.525890427789,-210.379977374436,-242.112206018071,-236.177419305361,-234.463797845536,-268.716460834068,-239.585677898502,-239.430745234544,-258.691984038586,-269.836697233154,-233.251867416272,-250.014011874671
-240.090878232177,-270.96168364868,-221.715051362418,-254.889756311045,-270.244901602277,-229.331698371972,-237.520919200189,-227.955404568382,-196.798084387206,-215.274302349204,-206.639654397949,-227.404472484561,-203.739787598486,-140.632280617423,-206.490346269912,-268.101993715721,-188.951425154408,-253.723105726895,-297.813760887655,-251.975334316585,-310.294645725695,-179.895776335002,-304.136370112758,-364.919297209188,-263.477632743187,-432.331029588137,-152.848538753316,-432.388823375411,-447.155672850775,-243.66578642178,-426.436697713067,-446.277897613214,-413.720224300005,-6.1289540209719,-344.665304238688,-410.295477176685,-417.136809819659,-388.833791499414,-220.082163743182,-409.313909080656,-310.016457308186,-349.800726668965,-273.000547361276,-319.476184703352,-325.196793745356,-185.3368335801,-206.323629636211,-243.760313146871,-225.152610499918,-254.878135944922,-240.531480942437,-264.147980551602,-236.322535251026,-235.972513676294,-269.774505566017,-257.67831076274,-252.111952252078,-293.838924980862,-249.915772544085,-260.746355513941,-270.985533377112,-281.889954914251,-252.990962076905,-265.209874164154
-221.437255837242,-267.457626161269,-197.022644705522,-243.319391697633,-263.231892937297,-186.802083015442,-197.33216224652,-206.744821218518,-161.552607807618,-160.281944646806,-163.631332619567,-196.477146070391,-175.47198382701,-73.6231053347622,-198.295399212384,-254.059528377582,-165.776209904812,-243.275676569659,-291.709229642951,-235.181380157068,-306.979655995551,-158.904162571464,-305.077553942897,-374.689117321031,-281.546420055305,-435.707961412488,-161.560055400284,-444.96009113206,-479.644909031131,-252.074391549702,-449.898190926149,-494.03031668682,-461.615140059222,-22.8234785661872,-362.052153668339,-414.158000062581,-456.503837461361,-429.464542694787,-262.129714083522,-423.278793292817,-345.825132704547,-393.104198903626,-271.543899301851,-369.949803634196,-379.69526038778,-209.92048410987,-227.721329948751,-261.064715088426,-256.554925079545,-265.41035150118,-250.769888890832,-276.760466093679,-235.132372901256,-259.289020044351,-287.08636003808,-277.014398390259,-258.849577409525,-304.845472320247,-243.597239891094,-266.545207368459,-267.168335564674,-277.53448399608,-258.578917799922,-256.024219573201
-203.683226507068,-252.107286292424,-168.522864560405,-221.783034212725,-241.182006942593,-144.246438546124,-161.794700662625,-182.160059980731,-120.426935051959,-113.177254446738,-124.703373852062,-155.616211162841,-134.053038318599,-17.4047385947818,-176.72621460905,-229.574191800084,-134.814879596976,-215.617716753316,-274.670369659281,-211.046640333215,-288.795842046523,-133.954383955919,-290.452417620671,-369.464699453369,-274.373060405363,-422.95896654147,-156.155580774766,-444.023363622829,-495.426754725753,-264.449376848258,-459.403791157688,-514.982597147091,-463.021744406114,-60.6858597289945,-366.711489250989,-384.291679067016,-459.821020610944,-443.330330418529,-311.848002819706,-409.691226389899,-389.796773472529,-416.794600513637,-267.846830923704,-390.355540771479,-393.437322924648,-230.470341798181,-226.634113917352,-260.1324832398,-263.502813147371,-257.26913510188,-253.118846594456,-276.47447400251,-231.049849555206,-265.577220286706,-283.041367657706,-279.690831974755,-252.587789333541,-302.485279225602,-234.124311427374,-258.934429552653,-254.663765850594,-262.10518834661,-254.166391315983,-240.043013962121
-197.059811388548,-232.156869832251,-155.339719245811,-204.926737760528,-216.409598595758,-128.752164897404,-150.741036391517,-171.031232456568,-98.6613994723321,-104.162183748585,-119.679505253069,-128.889722765317,-109.257399208781,-14.7564723300608,-154.426206240152,-205.421987177713,-118.681690341427,-192.638409137706,-252.761242650711,-193.545630241239,-266.407876710876,-119.951948337832,-268.162433581432,-356.096664776447,-245.773048395926,-399.463399665171,-149.105877562157,-425.034465015523,-489.283496797024,-271.666519961959,-452.417907253571,-515.247850966264,-446.30292793281,-109.382315914973,-351.919392215457,-350.705535749383,-446.253349375007,-451.88507812534,-350.974297581289,-368.40312175221,-456.113293350495,-437.140673768259,-277.111891995186,-385.974386705891,-383.489837323438,-241.043334571071,-208.884746645881,-248.719777176633,-245.231214584678,-245.756565075633,-250.870557780565,-267.356600958313,-232.189383123303,-255.56590857363,-262.514829884574,-264.316033186626,-243.570794160442,-291.499850060853,-231.632647270287,-250.193477629409,-242.496485734975,-244.456932786322,-245.096770295153,-232.449266288052
-195.447102358113,-214.049716476739,-154.087679465923,-197.570727712488,-201.103853042763,-134.920460213629,-154.824149308932,-173.132778166717,-95.6304032317784,-121.391960142306,-133.888369545212,-121.493125318327,-106.792578114212,-44.3023461101955,-145.117033363099,-190.922660457398,-120.095954607677,-187.086573523564,-237.125014537454,-188.134082330169,-252.930318419225,-118.648548648168,-253.878111225019,-344.571125123088,-217.182862005289,-378.481947932426,-153.041593830901,-391.422373441559,-467.76645721113,-269.290060524452,-426.57933462071,-515.568145136611,-447.48670320154,-165.391984700231,-323.051281449934,-328.200158158644,-440.792921855445,-469.405641193047,-372.87128297106,-300.774339144397,-517.282669696841,-466.93965367007,-289.20436970112,-385.071328615703,-388.334722806933,-253.087487169832,-201.389824620546,-245.029772318791,-226.720730088846,-240.624139221631,-250.742117911038,-254.427844308235,-239.550817615867,-248.548173648257,-241.418048161077,-244.247745813781,-240.520315856013,-276.095111624968,-232.439231292246,-246.82093042112,-231.733471301667,-229.504795666979,-233.484260389907,-229.048945124899
-196.013029856566,-205.788167535269,-158.615450837652,-196.086877941057,-198.957668857251,-150.013148936301,-162.253798260786,-178.788884570326,-101.670696237981,-141.044751813337,-142.446231597835,-131.33639600636,-113.436420386112,-65.8186209658904,-157.363754801161,-195.089820841858,-133.059354438309,-196.60210448896,-236.301823971891,-193.313828244417,-251.525675065034,-129.090995591948,-254.995908499537,-341.028184381944,-210.728709803153,-369.676748947324,-165.104507438862,-364.798390755237,-448.176908604809,-273.166827793534,-394.579541302707,-516.431010828951,-447.670221872878,-233.939820211534,-314.53575077896,-309.631489408233,-434.554754591623,-491.37315772281,-387.638954833607,-218.74094042003,-530.092726590683,-500.66675280478,-288.631863077137,-409.092351604538,-428.562435673799,-268.571121251104,-209.309908277167,-252.328007806277,-222.794517209154,-241.098179344542,-254.787200142123,-240.451506162058,-247.798378323824,-253.586879007387,-229.5729044829,-232.003048483884,-237.241594931434,-255.802068383517,-224.954358166217,-240.647752990363,-221.105297175403,-215.280045607103,-223.157688895112,-221.8714831632
-181.452070773703,-189.925801832765,-151.844520403598,-179.707814158255,-186.762813848664,-151.648539814983,-154.542114274641,-166.854788068415,-99.3182610075579,-139.873788308072,-129.452499066484,-137.371123844426,-106.634471047237,-61.0705835158805,-167.324698478533,-196.961827247982,-137.554844113842,-195.569250633942,-228.126305292191,-190.041661269736,-240.824024751469,-129.492097068792,-246.613331380902,-326.418570913455,-207.055084892236,-354.316060246676,-157.064012939755,-342.298872873556,-422.765473184988,-275.287219763916,-361.391753121134,-482.888184376299,-394.110208793531,-289.48978039605,-330.152038402336,-279.526112079643,-386.829130621492,-494.707865542593,-375.674621704954,-137.984976931955,-475.488771034282,-507.632206351511,-265.504912014652,-426.010454780278,-462.26417143899,-252.170572069857,-190.984147403813,-233.82626214426,-200.00411087996,-219.756142502073,-233.951319303551,-206.31245568342,-230.764630352933,-237.491613703205,-202.278226579428,-207.910773418507,-207.560942705905,-215.106233169313,-192.470304380246,-208.552723211863,-193.523112312386,-182.218429671106,-199.240833451145,-194.126835672662
-129.38601617602,-138.236914553856,-110.815633481804,-131.729622287226,-138.973259251183,-118.036502215679,-114.543693384719,-123.07689387199,-71.3349084258718,-106.035130150733,-92.3611196126169,-112.762286735113,-72.3264044428916,-35.0091634313091,-144.03328455428,-163.157703511752,-113.667301218781,-162.73873856303,-187.088819722281,-161.365117878292,-204.002559541628,-97.6778412394805,-204.564471195467,-279.70674019681,-173.195541923678,-310.955100643463,-112.524042574498,-298.948761391018,-371.872494775544,-243.809753449754,-322.892415466014,-396.83793980795,-284.083768582711,-308.189351450993,-319.547629615708,-259.662404530134,-290.029298647794,-473.047665704319,-315.203174395797,-82.4507014634106,-378.734189466278,-473.484011871115,-239.112683685406,-394.255332446904,-440.977524101522,-179.174731609328,-122.019609491935,-158.37562432016,-127.667360921339,-153.084692107474,-161.924408844494,-133.063164908134,-163.530277911396,-169.759480823225,-132.150230682229,-144.469258788933,-139.108289554045,-148.594286327019,-132.70860576331,-145.853058646757,-136.500780143945,-119.361497459042,-142.240372942688,-135.184640680896
-70.7588927189679,-79.3168946677059,-63.1030858268793,-86.5540457573915,-85.8537383108799,-79.6129627667424,-74.0032468492865,-80.5588711927688,-39.9826330135106,-71.3317839788201,-62.7261320989624,-83.2337411621008,-40.0780922182443,-20.3649677911733,-114.466816509509,-119.251382486401,-91.9094349077925,-130.504560663937,-146.293693364439,-137.147144359334,-175.786932682266,-70.8716019074621,-169.142480382769,-237.382022528536,-139.328088236482,-271.553483175575,-75.5575372594398,-261.749658633809,-333.684831231658,-204.035044350382,-314.266811562306,-322.611088877218,-211.110057878395,-326.485059438325,-271.632178627302,-337.658749712854,-233.608992101734,-475.727934816949,-250.428300499885,-99.8290595401846,-322.654499847386,-451.868335253017,-272.733190266505,-354.920577822593,-405.130287763844,-98.7098939042104,-61.0049253640606,-73.0658820305814,-56.9368259001997,-86.0154482042659,-82.4923361619663,-59.7872918115334,-82.0576007669334,-94.0058262112025,-60.5248877575825,-72.9670151437389,-71.6467236609417,-93.6261888845777,-79.5392050256706,-92.8261840357314,-83.4873432953419,-62.947774126443,-82.0288335397262,-81.4958749678543
-43.3695324682375,-52.4196184216395,-45.0904829712994,-72.803002040936,-63.441523963098,-67.6513584820094,-62.6089216271907,-67.2659711616956,-28.6229531519079,-61.2957621279449,-58.9427091389685,-81.2626931932289,-34.2120641213359,-29.1012654755575,-110.191275882102,-105.330138794588,-98.7346138573062,-128.537132419959,-139.743218039066,-140.433909954015,-180.368457727706,-81.9207225827236,-177.6149234966,-236.284021753725,-145.431655453781,-272.886376963059,-82.4084754599995,-273.498329830424,-351.820668014505,-208.808983233154,-365.410133495691,-328.801530417216,-253.98178352198,-362.67731554163,-231.547013403907,-528.572603005942,-309.625879751932,-525.618872741668,-224.533226621683,-197.440187855195,-364.555389435147,-487.635147348014,-379.179512599238,-367.622348617541,-410.920103994699,-53.6616979685071,-53.9312232132482,-28.5518131221966,-36.6504088597173,-61.8056559700595,-40.8718958926957,-26.3059695167139,-32.972363084308,-55.4902039779594,-29.5059742377175,-30.9163880186353,-32.6780145775346,-63.9160146662079,-48.1786320061324,-66.1806274773862,-53.8519106639948,-33.9585681193564,-48.796372891247,-57.9478986452104
-21.6976239086619,-31.9918571369067,-27.7670406014647,-54.4020838708139,-44.5228694340058,-50.5121797114134,-47.049059188621,-52.1756496185685,-11.7563662577711,-46.0791233879524,-46.9035033065228,-73.8303302985416,-22.7488119713453,-25.4242382518113,-97.3606080934901,-96.0065155812701,-93.3871931646885,-123.066626247496,-131.632660010175,-133.052403017496,-175.463681361615,-86.1842709770428,-188.484282971592,-240.70013993462,-159.469262232852,-288.791521947547,-95.4999267038878,-309.856291574712,-389.603507025708,-244.741911867538,-433.321092486688,-383.791766247894,-363.531506313648,-357.964598115511,-222.545044104375,-680.078770377607,-478.018079198011,-548.318097232576,-211.505093551407,-313.650679131143,-451.316683870955,-533.757755510806,-476.004521389274,-413.570727189644,-429.52726989078,-10.5344654134022,-52.8752846414103,5.64539970880352,-24.4836541865246,-42.3299071439831,-5.57808451641332,-2.12614877702155,1.43885691370135,-21.949850051048,2.05758961864299,6.32012544295528,7.72270337602555,-16.7145394282426,-11.0419141843178,-30.7033077731098,-14.6134327223733,0.972771438763045,-17.2569619799686,-29.0879182198645
13.3591803549665,4.02968603701553,10.4696579099672,-14.3279175604665,-7.4367363113259,-14.0223118117011,-13.0770582785207,-21.6328696749898,21.6083019088694,-14.3971694713934,-15.767240992177,-35.6119434886213,10.5056450152464,-3.44913087073493,-56.8904090773878,-65.8132792141451,-54.8728690254569,-92.2711920725884,-94.9165362535424,-96.958239551136,-141.639491556506,-56.5667484651678,-171.783637502431,-219.297731032199,-150.58766530803,-286.148915234952,-90.7913269281904,-333.72797640023,-398.288283477712,-274.597253301101,-464.654159622704,-425.198377211403,-444.492449120974,-289.383702105259,-243.766049811116,-672.584489304367,-626.923981525435,-485.371087603091,-191.231232774225,-410.341413293382,-512.683182359216,-535.166499715848,-515.231506779868,-475.456812569109,-430.538253770865,42.2340519849773,-22.4428796296476,51.9652940809761,10.9933324969544,-1.81605763487063,40.5925667435423,34.6281874936631,39.1217792971171,24.1787136443856,58.2948605445553,51.7203474243676,52.3475292785061,47.0159021724364,25.1109180565851,13.3899451169092,33.8952146150327,43.1356520993454,19.1206513134758,14.5153116078094
37.0215676827175,31.2854039130133,36.8180469580878,11.6207090871306,20.0698210859438,6.66909399985954,3.38720260596165,-5.66427417698067,42.2627261145566,2.279528162593,-0.630010732328637,0.0427536051863546,35.6378032031274,2.66897080677659,-26.2241616181341,-37.8952824506136,-23.7727166050302,-63.1339393559933,-58.9483032797299,-70.9035251512445,-114.27199051809,-34.0095004790319,-155.301969814222,-188.693838638807,-144.338104981944,-264.418201452263,-102.686009554927,-339.684652476711,-373.175716165505,-293.281640377126,-439.202346349537,-437.343539678832,-457.682171103459,-224.977700324311,-284.477441295459,-580.029400125899,-693.182908457852,-374.734670780754,-185.597510615312,-490.32989247043,-562.998788381579,-495.151938631019,-537.547650739137,-586.844375327624,-441.946256696457,60.7171969353206,5.8624239013886,74.9459352005144,36.188571798499,25.8603600678393,58.8830209494486,54.125657263728,54.5031256679263,43.5880857984766,90.2822299650137,75.6833856551604,60.6617567007707,73.9679002719863,26.6135095706601,27.6762720153614,52.3255514073249,57.7950418940633,28.6221979622968,37.0101787450616
39.0908960236947,38.2619660258086,33.7584818511013,13.4848582745925,22.7919457310282,0.845315145954156,-4.11117091754442,-9.80375838450348,38.511930182471,-2.1642480397864,-9.07105175448776,7.1846453906513,38.0535386555553,-10.1738232423024,-23.7076477543768,-27.7093578067674,-25.5653167853148,-51.01703000769,-43.5440307804476,-77.4133471162375,-104.350608820063,-45.8624173529397,-150.659382375312,-155.272930920901,-160.141549208684,-224.989260265954,-153.078792885257,-319.586802455276,-316.997146513517,-311.104881948126,-355.590724091949,-414.963166029076,-397.935158654296,-236.662373832713,-319.34613762263,-535.898577203829,-665.399649372518,-266.0217297553,-214.70249687715,-546.118750969357,-639.486983315952,-414.340730552823,-580.376610157209,-720.916275471014,-452.817022944522,34.7389280864602,15.6271147432832,56.00771664092,34.3739821335927,30.6822955517892,39.4533549408504,47.7138168893927,36.8495765014232,27.5526806946197,73.2379009990786,70.580983900021,31.2059159437698,55.8825026925082,4.35885326821745,9.50731495736134,42.264985925955,53.2477577727581,10.7007451644007,34.4947887198341
26.2683358229744,36.5857139024212,13.1900117264856,10.4081354086261,17.2546488236883,-16.3578146784595,-13.3343640696779,-17.4597076097294,20.3128446845362,-11.1889997082241,-18.2370233606829,-7.62531949722677,26.0414823232613,-24.8634973343345,-34.4433448177025,-28.9480533260279,-47.7775744139011,-49.7517933485601,-38.9497992835736,-100.983504600951,-94.2985772562725,-81.0135881490143,-143.691227251932,-113.940279955109,-181.286692394977,-174.415433619553,-227.227357895365,-275.335730787398,-246.199554470697,-343.912954988675,-262.347634305503,-346.768628856006,-273.167851526588,-334.575257455272,-340.326239845539,-552.530447391257,-552.525876185758,-157.645202250791,-278.14862590793,-567.995390654947,-703.833646966302,-275.360704983338,-621.62447141546,-744.322895165492,-389.296651854695,-3.66396974004883,21.5397316050156,16.331429270501,21.1054266865015,32.7665120556814,7.97075421380506,35.4831990049646,6.02293671670568,4.50627000560754,34.4187760227383,48.3573375150161,-1.83279764053716,21.0980105624819,-17.2379934037341,-17.5529038874569,27.8128000585281,51.4081593025047,-12.7566895477704,26.6155231387882
-0.47525830594528,31.4790396411599,-14.5060856171345,0.922879500144251,14.5088647692357,-42.9173164993434,-22.9824385567583,-24.8528732004395,-7.91095661583559,-24.4932834126822,-24.5900549962308,-35.7609076056876,5.06790584902886,-45.132686822558,-50.7272147084258,-36.8595722882557,-72.1666986584507,-54.6643464231611,-35.288780183911,-121.69163640821,-80.2393311205091,-121.436301894029,-130.34807830872,-74.2239885885278,-185.44599559828,-128.005972974089,-292.412540040755,-231.984970488411,-197.428987740931,-380.548589504422,-228.319335553331,-240.116435795135,-125.26849973536,-457.260725724305,-352.772315896154,-522.917401224709,-378.43696644,-35.2057014143638,-341.80875674692,-547.903517156685,-661.560211854503,-96.2432743004085,-603.173511764927,-559.807601704778,-224.218922484581,-30.7776445654992,23.2079861329375,-16.8814012463226,4.94777454014625,28.6225684676026,-21.244300461489,17.1085009984524,-21.0757119743209,-15.4010673524149,-3.47081873523569,9.18261940612787,-24.4801011950685,-22.511256479815,-41.5090417110468,-40.6800736984484,4.21219890067289,35.8550499244156,-34.5294483588411,12.5959765291854
-29.5284490211905,23.6533649212925,-37.7601167509261,-20.4561046254807,8.82267383179869,-76.5856122423404,-38.6272247509485,-31.2516012540025,-40.2900912910453,-44.2090400569308,-40.3944734506616,-67.8229737283693,-18.497741318157,-76.436130138487,-70.8118976858282,-43.629615356534,-85.8542310729859,-59.6219339604358,-26.7213028746993,-129.134973246182,-65.2346347662417,-147.846602484494,-111.870151511974,-43.6143206598367,-164.744641791056,-92.0600717972868,-312.435324060133,-199.410304167464,-175.508206522581,-370.138688388996,-249.772770374092,-118.895332087114,-6.87264794105851,-512.889279013545,-342.625499975894,-384.921634146779,-171.625197063065,83.2393015761166,-349.956949043766,-479.500198042745,-483.86694853581,71.7352138090751,-498.480877360114,-250.640801175303,-14.1071259716629,-39.8031650007179,11.6111135937106,-29.3308873028963,-12.0338292169752,8.09301874650932,-38.3605927064862,-15.5309243452489,-39.4689787688503,-31.944457198029,-33.1837648219817,-37.4595106690145,-40.5805396015066,-66.538557386097,-69.0171723959738,-55.9022417007392,-31.7903449797515,-4.74570726921416,-52.2863574822871,-11.2499613740445
-36.8876846007355,18.0674940869494,-46.0957535939222,-33.7716817509817,0.337976565683366,-96.7199326409581,-46.9802314358585,-29.1943935208677,-60.6848843999993,-55.664835378843,-61.6628745395233,-83.2425409831109,-31.2261018505045,-104.466088054478,-81.6983447778968,-38.4847696790232,-81.2742546494058,-56.7348292694121,-10.7525596796901,-117.873852144681,-46.658639416034,-144.586192019623,-86.4002822338421,-18.247916056022,-120.497958158476,-65.1774539636575,-274.924237409736,-158.242370336607,-145.488119826144,-288.195894061861,-259.847783728117,-4.16953106464222,70.7581156815694,-456.275362130011,-288.920650867522,-210.294795256949,40.5370044326961,165.853512974376,-280.629487733385,-374.706410797504,-241.918893942323,193.867898218499,-331.509553446363,13.5038435794529,168.061973284099,-30.9707760458495,-2.97121006202842,-21.8467708432313,-21.6745094568252,-11.3863010438073,-32.0421018940514,-43.1612103358625,-45.5070256346993,-32.1907355583954,-43.8951022990702,-61.2848493362807,-45.9648522598451,-81.2078517000691,-81.2589750731934,-59.4636709775294,-51.4176769609833,-37.7939236308175,-59.4257761004589,-26.8047582683303
-18.1862606416054,17.4577298206293,-41.2290787093885,-22.6764348524285,0.864130156210039,-87.4689781156355,-35.5437570806434,-15.5403445406694,-61.4064024255961,-48.0189545515045,-74.6741646232261,-71.2104214137339,-25.4189905125513,-116.042335911982,-69.6304352842754,-22.7585392124559,-60.2100396181201,-44.3148451472481,6.022651687109,-86.8201185771038,-24.2537620338763,-112.501842227699,-54.4481753484705,4.12452334515422,-58.0634620123986,-43.6260635712417,-197.172340990827,-95.1898244076782,-90.7282119357241,-167.095969740961,-217.010885834382,86.9397947453565,120.62330476611,-312.163949891506,-192.975176987906,-85.3431178533475,215.137055861704,208.843691619734,-166.666464943759,-252.084977850198,-7.52918201444512,267.563721748922,-128.451288378396,179.33219380918,283.991136389933,-11.9359037873747,-5.43221180625572,-1.82251301731465,-13.0649195035699,-11.774914146799,-8.992250279105,-38.6462874569355,-35.9233904493495,-10.3401111498416,-29.129289622294,-47.7373396379565,-35.0035510575083,-56.1066761870833,-66.7308088552254,-48.3377858742909,-36.3069236585967,-32.112747723281,-49.4699304054812,-16.9743193363225
-5.17067097974768,11.4750974090643,-37.0388505269721,-9.40755869152077,3.36689238109167,-68.6099548225782,-20.9226023120912,-7.12358462234249,-59.884136909672,-41.4691982567334,-88.4285212619478,-52.2625995543485,-19.0551061977033,-125.466982233293,-47.6304002890522,-15.1847328372045,-38.1526785115321,-33.0314654798586,8.36330077895527,-53.7337845309283,-9.80451237552099,-72.8561693123106,-27.9240002949118,11.5938466200985,1.53003346092258,-29.4293898636351,-107.016666033798,-33.0670167287445,-37.5310161553983,-48.5092461909504,-141.238838489458,131.846595738772,127.60567614305,-135.925353755054,-89.0573527569841,-14.355299347818,299.090304875239,223.925005152881,-55.875598366899,-132.578417298131,180.91934530361,295.071477024231,76.2256338539912,294.292830654043,332.002717664126,-2.66366523499154,-5.82142195321288,15.6127616556406,3.80742065491963,-9.69600300142117,3.02862937719763,-14.6202380896419,-24.6315844293356,11.729610786971,-7.2951882107172,-24.3793427879342,-22.5996253438264,-26.1206134736072,-45.5046128997395,-33.633679453885,-15.0898342980431,-11.5316407912235,-32.2216356579358,-1.87289643300078
-25.5600645809413,-11.3459880186647,-47.822025988694,-24.7420911528586,-16.2888887569023,-72.2999580240215,-31.2789894579895,-28.1526422548358,-76.048916766088,-62.5900986941041,-122.789382117355,-51.7763549861019,-38.3472203480794,-158.234514826961,-45.8977301463311,-31.4718051150909,-34.3705253737886,-38.4781980794057,-14.1590720229954,-47.4528538200755,-20.5431029391217,-52.3295435235531,-27.4910601213293,-10.7640007648312,28.0159991703579,-34.0324294258916,-35.6868719576121,-3.76052869707047,-14.3168776724089,49.1576106328968,-72.5990481036948,120.748762661396,78.8437162247994,25.0239493118733,-18.4415866667592,26.1890767484033,285.303142508775,209.588355018787,31.2024717569988,-44.4180295925658,283.992094801835,273.682756643064,221.138169116521,362.44249485682,320.897805284101,-22.4102237914571,-26.2782542310971,7.11320768666506,-4.33627200487906,-30.3826765847265,-18.6510639929567,-15.1529524173586,-38.2491675540584,5.93797159183163,-9.55694426702876,-30.2131845817157,-34.5011397411053,-30.5659449640595,-51.8700039426314,-38.7492137382626,-25.8517663113084,-21.741157953037,-36.7790097582998,-16.2954483074066
-64.2055156566751,-44.3845212622913,-73.1663048612973,-61.4032913561968,-56.1435538528926,-97.6719937132469,-65.8677920601168,-72.6210950931749,-107.399433467475,-102.861982624963,-169.393097355793,-68.9378491212334,-78.8066699978162,-212.738789018221,-68.5789834107523,-61.801619093622,-49.9137350222167,-61.3291708801029,-51.8483403697712,-69.0707318991013,-54.0382978078642,-57.4394552840243,-54.1042218575458,-50.4388445265909,14.3227413092639,-54.4590389730971,-14.3497986423383,-4.03200179811817,-11.8635803720195,114.420699036278,-23.5678220191869,79.9322233853975,15.4234484283743,141.710081062691,11.2105825698629,47.8778882511343,234.442452210918,167.782077938256,92.5382992708323,2.5731611609898,298.750800695002,220.236773414293,273.907703636413,360.038577522148,257.552637392747,-64.8626612529405,-65.054036482022,-33.6746860947442,-44.9439177179955,-68.5602101134615,-63.5587373429545,-53.8957269597699,-79.7101760569677,-28.3416759793318,-41.8194177558864,-68.6557317059922,-73.040415140962,-68.1018561534874,-89.6141119371026,-69.8583154736638,-68.2861987445851,-63.217894940457,-72.0461434065769,-59.5324580294338
-97.1612908541972,-78.7678254344826,-105.994254993471,-96.2752623072308,-92.3105114638026,-126.479438459055,-102.106645302498,-113.901540279767,-145.546246844292,-140.360964735041,-206.574763019071,-94.604473249645,-120.917025388979,-267.135785708434,-97.0408741458696,-92.084287597219,-72.4890263288258,-90.8090092854721,-88.5505482623683,-97.5194041963553,-89.1834214910269,-80.7362038128364,-85.8645697369353,-78.3016556603048,-21.3306368282931,-67.7061222425065,-56.8402481507883,-12.4680625909548,-1.68189494369786,118.027472579025,12.2914172227373,48.4514830081257,-10.5301753238212,193.020692787105,5.72193292675456,73.4395931902,208.819161325211,122.735339043913,104.384912269314,26.063213933049,284.332221904601,171.552621289047,268.081972067885,323.589866790471,169.782080902069,-107.26275072485,-100.213566244603,-86.7459466533707,-86.7263189931317,-103.237704570421,-107.787775648468,-101.228422244708,-130.359305840025,-73.0391375574581,-84.1210889401589,-109.412293979168,-117.926419065361,-111.84078880144,-134.182019622094,-109.927397258583,-115.56469901874,-106.135658025997,-114.440203974199,-105.972724748409
-120.46978342079,-108.830089840445,-138.708545899143,-122.203240003197,-111.618092455508,-150.466250112907,-125.586028827493,-139.437964314422,-182.775828429337,-168.583374636008,-227.467960034898,-121.815030402597,-155.945047328025,-305.878128344825,-121.098607428659,-121.299980678902,-95.7638075716077,-116.926953447896,-113.031745726443,-121.681291068884,-110.248966734413,-117.469748307306,-106.218331593949,-83.6516641474803,-59.0774144251989,-59.7409903246484,-140.007866929675,-22.0129367624506,29.0422031853042,40.2092528695708,42.6822044627334,47.7772588230911,9.52761183999412,168.251563892829,-54.2357801617365,136.454765402217,220.251669895867,109.173535827567,31.5827552714247,46.0260265648511,298.0809543545,156.746022503594,268.553486273515,314.788454958656,114.124165705916,-134.922971505359,-113.232641494086,-127.795662559303,-107.660101291312,-117.966747696588,-145.827221493506,-124.354421972931,-174.899315568198,-111.870414996162,-118.117824867468,-121.289971516741,-151.648670320072,-138.271051513555,-163.679296824363,-137.822657363537,-143.223166432055,-133.338281242328,-142.34101150483,-135.873934915285
-118.346913179745,-108.362483818579,-144.600671649438,-121.977683733789,-101.037229352277,-152.09336948162,-122.22404004157,-134.246313111513,-190.883267712652,-169.876351633511,-219.717665638052,-124.907373948958,-163.216243743306,-308.72879411484,-126.528364243103,-129.671508420168,-106.658748168695,-118.373616284735,-106.323283876236,-126.679288618872,-101.53558222256,-146.373324909856,-100.305610369116,-64.8305953345977,-79.2580526879247,-27.7364552648924,-208.134872122851,-20.8536972808403,81.6992158811104,-67.6178540183078,86.3648836363442,80.4433349826523,57.7215622801541,91.4924719212886,-164.132242746159,244.74568395097,252.523247426791,147.235851287083,-104.855015923449,78.2589631328369,349.051085309173,183.760777730986,316.470339718256,346.901244422133,128.091485625212,-133.488546372375,-90.4148301740245,-135.762534580909,-103.359845355275,-92.0086603291326,-163.606771891528,-101.766462353861,-185.119183747026,-118.826926877768,-122.110505222837,-84.065546453185,-151.5644016787,-123.152699480105,-153.285457857852,-130.481910073078,-128.68885951284,-124.544978359923,-137.075740814043,-127.737416492841
-74.3041260780131,-58.8855768168785,-101.040866689921,-76.3026280530819,-50.1666882258947,-115.841514190813,-82.7511025961219,-82.3287969798538,-151.541688286354,-123.511628826807,-172.178795588719,-85.2117225987616,-125.469050428572,-264.093988990947,-96.1016795065646,-91.7244452067609,-86.7311451227878,-79.0894464687003,-61.4254291780631,-95.6684416696217,-53.8369750555968,-137.128348608923,-57.2603417267062,-21.1399150737306,-66.6916825614196,27.6133428244074,-216.362002544886,11.4227995861278,146.874227969099,-113.037205255978,151.095688540792,121.157861202398,108.536123860182,10.0419714645248,-239.953981051597,355.183769463673,284.134453131738,214.85945405557,-222.382019857895,137.887111502656,412.101495154966,233.198678167978,397.58553977662,396.442795665882,185.197957979829,-92.7603560634646,-36.4044801915515,-99.3439157685452,-66.0863543853869,-23.798081144451,-129.084910086794,-34.6142869399771,-133.693161053809,-71.9308156013519,-75.8202173679117,-5.11835457652833,-93.1575458372262,-57.4238361805116,-87.4165347187806,-75.8803396070523,-65.7702814008419,-66.0422807971598,-83.5045272781872,-73.6082026821976
-11.3343430601841,11.7588038514399,-32.0835029692258,-8.83262883131808,19.0724338727758,-60.8400919765462,-26.8154956976775,-6.75661561471201,-95.072492342065,-52.4858367371176,-109.050154102823,-27.49812486934,-69.3664520345678,-202.083449872833,-41.3079525978764,-28.0437332905048,-41.6121676329438,-19.6765039525777,-3.10901317153213,-40.5365057125637,9.23191800089737,-91.7295265089771,3.01897122849181,32.1191242828285,-24.439248728094,88.5481885157624,-165.506743156084,70.7845342810478,199.123236592214,-74.0424133180264,215.198392337962,140.301569201821,139.710651690317,-46.8696072650898,-194.918851335005,421.972138339488,300.354884867572,271.966046995364,-254.907496607479,223.248430944673,461.880782359368,275.565657141015,475.223567244567,454.566187410408,241.465662143862,-28.6233323052106,18.9238607982477,-28.9987431646738,2.70259106777269,47.9445597589366,-41.44520030679,45.9533483592236,-40.3603958530617,13.9045084350499,8.86098298710898,73.5842332753867,11.2382449681031,29.8137992073318,10.5020344771912,7.019002282101,18.291888464205,14.5312862076751,1.08854454497552,-1.17950165118857
43.0796043785621,72.061485922766,24.8939906579861,45.5104899343667,77.6507957334812,-10.365286264524,23.9150192708635,56.2452799926168,-49.9712162385161,4.69195225192459,-56.4955226052356,22.2207569506319,-25.1438608216174,-152.143988447636,15.0498769191892,27.645218673493,11.3491312167659,35.0285801931388,48.7726268099526,17.8318638804359,60.3337038935279,-32.3710725838718,53.7310584689787,80.2800778097628,37.4404139977076,136.716437181267,-81.2561387280993,137.214615388596,225.9613899234,-9.37580642629643,264.751492595477,155.087824211571,161.508705353373,-66.4502534272991,-49.2198451999595,451.664830742212,312.135658358743,320.043071160056,-194.209709595633,302.52223605209,490.650274672762,306.564545648241,536.216036252249,517.54878159281,297.631682264401,35.2434941049369,62.4173138884431,54.6731588761988,82.401570024089,95.7452176946078,59.987151835641,115.971072740538,48.7031088252745,106.219377087728,99.9627564208094,127.880290318613,115.509525895582,105.237792273692,103.880709001754,91.6135987575925,95.5996007379279,83.5103193670619,84.4496492297379,64.9861040130298
84.0956781435656,118.394611532379,61.389285270613,81.8707544052756,122.132675022195,32.8230497412312,66.7283716884715,99.1100277510419,-9.53913520671496,41.6762699928479,-11.6562134114241,64.3270130152079,10.1110966793376,-109.183640708684,61.6302237086667,73.025384844147,59.902276900281,80.2323038463882,93.8822876973064,69.9129385866163,97.259235616454,23.1058621627281,90.1891655189472,117.567311793092,101.022752804667,169.403573465765,4.03782108671405,193.631880169004,227.36802153161,34.4283657826318,295.647959705196,178.670820319129,190.779967027641,-46.0449180042342,99.1321135954251,448.986143907507,320.798523855997,366.716607167261,-81.270988995508,334.161403995734,483.946464495238,325.911749309212,558.383594309804,533.081570385565,351.158811369688,82.2379548140967,101.110467794212,123.467115795238,141.656092574706,127.194968198655,127.957252362126,165.051654182593,95.3959939228083,174.972399732515,167.168811556132,165.846600940471,175.554280523953,155.066824980601,163.506377629113,157.613466143999,153.146203330721,129.867144481429,144.322302348994,119.005207335347
103.745724236948,145.272432490371,80.5752682226194,100.615865148766,154.982232652287,63.6696562627579,94.9981217639924,123.050361912457,23.3565358822447,64.6814537459471,22.5965927873862,93.2045205815944,37.7926019420356,-75.6665134378968,87.793393715888,106.035795730492,87.0878745725363,106.552001140104,124.671172452222,102.997809104244,119.149715804719,55.4401882292443,110.955128108797,133.390243897951,133.502468732378,181.946313877051,52.3341854583096,220.303123026787,198.132278275204,61.7861001276551,294.854303117958,171.916333787952,210.695063072086,-5.80244765346565,189.611854203961,392.365621806918,297.372137356982,374.953717378272,22.4937694120783,319.705561500382,425.590252036681,317.779061379013,499.445161166988,449.375174511442,365.153389691296,100.308097311164,125.941982061836,152.187192155946,159.318991650137,143.628336863321,142.291149261329,178.026853772031,84.6403726882657,197.525250210442,189.420877822929,182.393797798749,179.66152539308,171.557115993141,170.164285055918,184.547581029835,175.157958137811,147.882654228141,163.996347184782,147.813820068247
99.8784338889476,146.228085171773,86.7489455595813,101.856087730353,173.499023224736,77.9479998896823,104.259670302846,128.146612257274,34.0043121200208,74.1095622280402,32.2927755050978,104.872489945095,47.7930921309804,-67.1599047064804,94.1465439812316,116.691505244231,92.7293443917012,109.205323272929,135.163802425589,113.719274310554,126.613173577112,65.0796404661675,120.951932769476,133.79204372814,131.645304442988,181.234575195166,62.4729355131855,220.269346480048,160.779776235128,98.2673193564005,275.466821213591,136.035874410524,211.097938387655,36.6937994085376,238.769839681078,314.724557058457,249.846389722269,335.873122036693,94.5118947158588,307.158472401571,348.093623689138,295.979135224293,376.323553603091,320.209111926016,346.422851806468,105.838049036872,133.728692742594,156.354527447048,155.769371145322,141.574558574546,136.804574730182,165.727416632852,56.7065245027518,187.228853996875,179.581605691469,173.223721844426,161.772398369298,164.169949901417,147.675215634667,176.373357986869,163.256554275646,143.874960522881,149.435670096109,148.113286390129
84.8938327382902,129.9512346831,86.4769335142037,96.0172164170565,172.96670201858,80.195602348255,101.630022325443,120.145979698865,26.3955860966947,70.1046174408103,16.9248729211827,109.959703039115,37.8548357893706,-82.0521015095987,93.0267637817557,111.591768553449,96.4181448111229,102.152250033641,133.829386133635,114.802058350908,131.01713828031,74.9779808778694,134.802332316423,141.047621816445,130.948602074305,191.047846930468,76.7596647244225,220.372474037368,155.416454955106,149.2486178334,267.496869082586,128.612191827247,205.174010902939,77.2344873328887,275.593556523276,276.311267392169,223.558023346922,295.155982908092,156.12297643355,313.294530314902,301.100360117032,289.678060989664,266.330769347356,244.938453531249,339.277885769892,126.331525018373,140.34258086771,167.055435128749,164.505341953307,130.218671292297,148.414753958552,156.793445032442,66.7565754251473,175.093225312913,164.974038266426,155.497909665266,152.82271588118,152.608661602077,136.525419671403,155.31919621603,142.431326749357,130.936325302088,123.782279602358,134.688773104384
69.2839977532811,108.068807550796,81.9965662658857,90.1598320202808,153.69414185642,75.7351286049195,93.4824029357663,104.607070035349,16.2076572047831,59.4665150661986,-7.85043127251751,110.690212148941,19.1771775849643,-99.4999710423064,88.7951587355962,105.987033930168,99.7371868378527,98.8677583694555,128.582432955781,114.434753877975,135.875491480741,90.2579145767171,148.729056826477,155.125020005357,139.842407660803,212.860095073771,109.474612516097,221.713454812251,180.602638498552,188.842565922074,267.825535750966,155.410030352906,192.163362453246,106.446241341297,298.124392423023,267.64452381961,223.309593775362,269.315427981904,218.38026880388,311.889013071301,287.554190169747,287.479542146429,216.899834290233,238.648595835453,335.799043824015,152.063501367281,144.84117711981,178.882447612803,172.779046255264,115.270795079864,160.951227881922,148.484176103742,104.373763388138,162.412192333647,146.514812837727,135.36208928894,141.582115819403,137.097379978336,133.396199747918,129.716295651368,124.172212558187,111.474827668061,95.926916963933,115.895758904459
61.5165455146579,86.8636235601826,78.2763649270298,87.5264832693322,132.015292192305,76.050362455036,88.5138363902357,90.6811862777989,14.8194679586319,61.4115817888081,-17.3794799906385,105.882528078246,11.2241121598998,-94.5769257848488,84.2627599272206,106.019320441616,94.72406043873,102.867594101373,123.485550249821,116.239999653281,136.965524718886,99.0005232501677,148.653497678041,160.297072493991,128.057717555516,225.340576099112,126.790589446345,204.658998146103,203.919866070963,197.737551413583,259.415209057659,173.273246661562,168.651688227418,122.182332589614,299.911549303185,249.841290394353,221.579653282051,237.314988716138,273.090367847354,301.144332688171,285.771493338028,266.008337020548,219.382818297846,249.679077429864,299.780145883757,153.3905106457,130.709783798732,171.4856280554,145.427406428864,96.5170167138788,151.691112640828,124.689235051585,123.996626339278,134.037523651363,113.201616597894,100.799548499922,113.667651252874,109.647516482376,118.100281072637,100.746861787913,101.739754499718,88.9852336319687,66.3991279784095,93.3038225164273
59.786525090946,65.9321113960096,80.4629797685194,89.4820067853281,114.730621176008,86.3534670908678,92.4232233415472,83.177992648699,18.6859409799561,80.1773779218969,-5.49048308299652,100.680695797682,17.2906201167085,-69.6233783906123,84.1304437546673,105.495580645186,90.0398037217461,107.760447145063,117.700453607552,121.468761413765,133.523749686285,98.6529100149868,136.214491643376,154.510188707881,84.9486890634648,219.39404385659,108.842968695552,172.508861718413,210.304673216618,183.567869433661,243.758312333356,168.530224947859,144.141796575411,133.90413110743,284.973674316441,226.68541676005,207.964223231055,191.736623173672,311.459758989153,292.288522906594,273.251649769704,225.167226926138,234.226891626263,236.914238162602,233.26753278661,124.029119773537,94.1583415406248,141.927998933006,82.6830050904028,67.9045996563099,127.638682457809,82.9155619558676,113.694106643082,89.5732578748154,59.0668888639281,41.1904594077305,76.0580942046087,69.2292967011434,92.8050068467715,67.1042752339389,71.2879616476347,65.4190334450592,38.1970768257557,67.6512160045597
56.2746250744218,45.1583405392478,84.9202141643767,91.1264756455121,89.3854542723419,92.1579368151258,97.9065821388641,71.6021565182873,16.5778140779202,87.8824029054813,1.5345772478746,96.229116234213,19.6745366617819,-57.0639122411671,88.9171781210611,100.615923310094,96.0289457844668,107.553578777793,108.131649273195,126.429406437343,130.378166703313,98.0222072492978,127.754473420206,150.82113512918,43.9132524612201,208.263156823594,87.6707644211801,152.328744929712,212.168704895821,167.769484622538,235.323106294833,159.596250816334,120.248529903046,154.685550465649,269.347077552349,217.391120872191,184.081377446961,139.902759298416,333.063818692251,275.63598216285,224.702634805741,171.463881255485,219.388127680468,189.617456467762,161.96900085375,86.3857569528334,48.4228802578744,100.06951843032,14.7005710510736,21.5448096967623,98.9214153006292,21.2764424912271,90.7067330867608,44.7730599185371,-10.4735546873689,-38.6055347923904,39.8552305218236,18.2242696514085,68.0216173672444,28.8441734599792,39.0454197450814,37.3562037222684,14.82149065725,42.1165024230147
51.3843839006339,26.4859629371578,82.8809691133537,83.9924768867396,52.0612128673272,74.5129535188183,88.0850465709902,40.439527259591,1.66713058636755,59.9540008234474,-26.9467279169174,86.0606709977987,1.40173659498963,-82.685209471428,92.4309526536986,92.6695152118546,102.290578685148,103.380811224496,96.8426304845498,127.150652850461,128.88533203809,102.330592428117,131.342269214379,153.447188598148,33.1209653976163,200.457050183007,96.9422970329547,153.585437264329,215.529359684784,164.693961687453,237.94226380947,151.027298010674,80.1716062418329,192.149529970235,270.179329666362,205.602892546675,141.84681376578,77.5049142393095,341.795479005818,246.64945727288,135.315428493009,102.126028279401,160.940014804398,116.019324101206,92.8090348443396,58.3048293152007,6.56094646683478,56.5944839557844,-40.3146791250737,-30.1227479904986,66.9773744240264,-55.2425402077703,65.1130446787732,10.9482610075125,-71.4018596066504,-115.933934246188,9.34582378817134,-36.1810802003901,46.582326585286,-4.09884426582878,10.7129603283335,7.94863036861685,-4.05751342352951,19.8835903309304
43.0746002172206,6.77057649740092,68.8906487976401,64.3625278929193,9.83543379590743,29.2851876138385,50.3175951841621,-10.568147170516,-31.2928906877208,6.10901908866455,-90.1438282802439,61.0944922733816,-38.6121648612886,-140.816426387872,82.4416258549329,75.2672121832972,90.49451405455,90.2979961149054,82.9784391196022,118.98459477473,116.546897784107,103.346188197718,129.758967993134,145.244219368841,33.4976592220627,181.874200832178,117.869396539555,152.153851258515,201.456329587966,164.94770318894,229.841398346333,129.84045990356,11.9277453074458,230.152293927584,277.634407654768,158.705034463896,73.7605453182443,-5.89340240717745,332.506471865374,210.935769056842,35.9508977704311,13.9616457047927,82.1047221387339,33.3374766887643,12.9970589534404,33.5365060225522,-22.41074271481,22.3479935177679,-71.4591456527771,-56.0895501456513,36.633714587594,-105.895029473764,39.8977624819345,-11.700316147263,-97.8231937417541,-157.00698610635,-12.6053224045559,-73.8700843154139,29.4735998336224,-23.5753714220637,-12.90325022031,-17.7009787850248,-21.0780986328407,-3.77832427826468
34.5528121860697,-7.22749081952371,51.9589400948258,45.9836254711935,-20.6095171424604,-20.0336525499715,3.19831672163565,-50.7576607844906,-73.020682914476,-38.8880762455368,-142.370350543891,25.8384554868409,-76.9228117634218,-193.353149286755,60.8580124822762,51.2733475218703,67.4759757516961,66.5221901868716,65.0448456591238,102.094043970995,90.1406940429551,95.8537350017881,110.335014706466,119.88098245069,22.6466155773035,151.360441533118,122.696103748987,139.720311386796,168.829020177746,160.493327819103,199.397239529303,108.28346138376,-53.7460810179047,256.642452811032,281.053482624787,86.7181410056679,1.12240715602033,-91.9500537707184,309.573988059044,171.651034283145,-30.2373323044232,-72.2789039620491,18.2357869338649,-35.9651568567989,-72.2030702976089,11.5861726345886,-20.7061536033149,9.67338673389126,-53.5694504559381,-36.5073400356,23.6026848307581,-78.0429556546289,35.283681077372,-13.334510376013,-78.6463082587453,-130.688625038833,-10.1242799760155,-63.7088333181969,28.6601548469164,-21.7999181527425,-18.9526123962198,-33.2324111227345,-23.0879999097108,-24.4791165003132
33.6095427398261,-2.29499079473394,41.2222640259249,42.2681336703942,-22.3096718086607,-43.3717689196324,-20.2325175062007,-56.0843017233436,-101.296205940044,-57.8552230569178,-147.885989060262,-2.24212715969603,-93.5384154827201,-213.898889775739,42.1119450103388,36.2684921220555,50.3082437327148,43.3094784974948,46.0143514594215,81.0611087610964,66.9794191003288,83.6247273945854,86.4618842257676,96.5903049677628,11.5265063751099,133.969818530335,119.274510759128,139.228992302374,147.552394846958,159.975540181715,168.662953967953,109.014281088661,-70.9076153431268,287.876818501038,296.098393886288,24.4040938371342,-42.8118348794629,-149.294171688618,295.771180412927,125.941795682565,-62.0062362519064,-126.836562260157,-36.4907522702046,-82.5214563363409,-139.336764410282,3.10094273826054,15.4381903582194,7.6051730670647,4.49434223902652,9.11662856900673,32.1945002472913,6.76849270587759,61.7064415358981,9.37264999707547,-32.2617715839257,-55.0126137072981,24.1858850941785,-6.97185257725214,46.1276421809716,3.27977502823062,2.14553832811033,-33.0232702803528,0.00705791370396724,-28.3109609301776
