-2.89985751677175,-32.7683899395208,-1.01495013087011,15.0067626492938,-12.3243944462799,5.43723284394703,7.97460817112231,5.7997150335435,1.88490738590164,-9.78701911910466,-12.9768623875536,7.0321544781715,3.84231120972257,-9.06205473991172,10.5844799362169,0.942453692950819,-982.036748054753,3.04485039261034,-4.71226846475409,11.3819407533291,-0.362482189596469,28.4911001022824,1.88490738590164,1.66741807214376,21.6039384999495,17.761627290227,47.630159712976,30.9559789915384,10.5844799362169,17.2541522247919,15.5142377147289,-10.0770048707818,-31.1734683052963,0,-16.0942092180832,-1.73991451006305,28.3461072264439,14.6442804596973,-14.064308956343,-20.4439954932408,42.1204304311097,28.636092978121,12.4693873221185,41.3229696139974,22.9088743824968,-5.36473640602774,-15.2242519630517,-10.2944941845397,-14.2093018321816,-14.8617697734552,-10.0770048707818,-14.571784021778,-10.5119834982976,-9.42453692950819,-13.4843374529886,-16.7466771593569,-8.26459392279949,-13.1943517013115,-6.74216872649432,-9.06205473991172,-11.4544371912484,-14.2093018321816,-6.81466516441361,-12.6868766358764
-20.2844371760839,-167.084692792914,-9.81816943360289,65.2620385159412,-67.903507423735,21.0872773415224,31.1696615606305,21.6473040552322,3.50660970222883,-52.6013796744377,-68.5345740312322,29.3801084905565,12.3594675649726,-50.1038939265517,46.3808046264957,0.41212074960748,-4629.00347687985,12.9253204552097,-27.3618605818709,51.6871632077215,-1.57497684457985,132.507251821875,10.3212748666424,7.83936427600551,98.4503948134583,86.67089875184,224.046617439161,146.957910561654,42.6834862926118,75.9258507825355,65.5675994248674,-68.3316501587926,-169.303845142177,0,-82.3113634959606,-16.8104343324851,112.172729257579,30.2662037905668,-72.3895473099402,-97.8762494866313,184.926215301248,109.126422320837,53.5847326626086,177.227474268685,85.720715510029,-30.6027989544627,-77.0234931602477,-52.6894512696061,-72.7875494464304,-76.4634664465379,-52.7449160061445,-74.5800156047682,-55.4613476119202,-50.7364170781807,-70.6525458881408,-85.5523018685524,-45.3775068486803,-67.8266413534202,-37.4286696437299,-48.4364758544079,-60.7307297021204,-73.4400173877041,-37.9176564636522,-65.6361730585923
-61.4801533652384,-352.068024276947,-37.1763160438008,104.002687742867,-160.784726482825,22.7688600524779,36.5708748189867,20.7809964404351,-12.561892520319,-122.577629931887,-155.533797772584,41.6648739762342,2.82383259508943,-120.524947283818,75.9110930685053,-12.717330663627,-8760.78267812896,19.5414949894138,-68.9366204891903,89.9567976617313,1.44923823210948,241.391021088347,25.7182461329296,20.2665697257397,168.702853719403,176.170602220589,416.529531119553,275.877982053518,61.5572451886862,119.378948201655,93.0626078960087,-204.129240254062,-403.640120614405,0,-178.795428347764,-63.6014736176692,132.929926089348,-86.0426650629625,-158.005117873064,-191.471093337514,297.712001483499,107.987959793218,81.762848951486,266.587278139888,82.9655996646151,-74.7645378834145,-163.345104549793,-113.215440017872,-158.311044358141,-166.637904044383,-117.918644267709,-161.808595605925,-124.82785710407,-118.446098988343,-157.97833143049,-184.550849304069,-108.506229864068,-148.967087470621,-91.9373440483631,-112.90307232157,-138.275467524579,-161.189500541137,-92.7050704690838,-144.873623986083
-102.425394883109,-395.602053581311,-71.5528384969747,65.1704579111667,-213.725055112916,-12.1870823482656,-4.79175172868087,-17.1669357420017,-47.7189321427465,-162.072996824703,-200.025308317272,14.4656673919613,-33.6323908116093,-163.7185814865,53.6466477439759,-32.16705406147,-8520.44178233068,13.692082964992,-93.192228902205,71.0535657499868,27.2040070315377,207.213717289272,44.7487042229348,55.3775935776367,113.081991979191,205.384067677155,374.692969700318,243.239998856666,46.2291244540191,51.7600988725105,16.1397488318302,-346.45455745018,-563.171496422491,0,-220.353609701088,-124.242071582099,-36.9090738055949,-397.21367314412,-191.655916829878,-197.373827384647,175.754804281699,-114.433042296849,40.076032865561,100.049893016533,-84.9137356030328,-99.2250455433087,-187.507544058092,-130.986569168263,-188.219169558507,-197.736834752383,-145.756958800695,-192.879409930622,-154.327196379111,-156.537013647057,-195.773176164934,-217.487852723632,-146.409489816851,-182.120575018484,-129.055782350522,-149.848729999038,-175.715221475107,-195.444464062843,-129.15542530548,-178.578652448455
-98.1922207879137,-271.42900990973,-74.0529992305987,9.01065052159161,-175.355590579909,-43.1153984231167,-34.9109344723392,-40.592205334672,-59.2070614245941,-132.0238128799,-160.713992429252,-15.3031004461639,-45.6778902783031,-132.397884024292,14.3201281454031,-19.6719964417925,-4977.44830920882,16.2838999653176,-57.910899853809,18.5156437449626,90.3257236346758,62.3812572263657,71.7161964275294,141.652962948925,-25.4512505176978,190.919101054908,147.681847286498,66.5550640793394,70.1074786834921,-77.2282736431149,-103.844257683278,-348.078765472976,-504.30009864271,0,-178.502868391641,-126.463848146045,-207.984139341502,-647.400009850573,-140.624978612706,-113.296479947131,-33.9766021004518,-356.221421612929,-12.712411413179,-165.72464390507,-251.81973298344,-68.8164975938251,-117.82679859612,-81.3469566369021,-120.186381720945,-125.2438402081,-102.153076849054,-129.036818577889,-106.727298039373,-123.056335790476,-140.460114155564,-143.662691542877,-115.312314709613,-128.830335163079,-104.866228438294,-119.026756438346,-130.439512989651,-136.697437647239,-106.838701673137,-131.567819271118
-40.1615259197573,-156.462136785414,-27.8654592764109,36.3605175352643,-81.6340685749803,-20.0919830511623,8.76758038344819,8.54111789650783,-20.0734706794928,-55.4676446587305,-65.6076908253761,-0.476054819922995,4.25259321901607,-43.0360418277539,14.8156035235178,41.390545108082,-3026.55687555333,51.7590990679585,35.0461291149494,-0.915750155256664,179.082470787832,-39.8001725650857,124.803224973487,269.84658193899,-81.2147290704612,231.721494276637,1.42671640760671,-38.3326044747576,166.383032656237,-119.269929761929,-136.980330001761,-150.386223173651,-241.205521287347,0,-92.6242595208094,-17.0271992836393,-98.825616734,-560.485909824397,-43.922879860064,-4.19970591172401,-25.9735322810579,-309.56191426762,29.2723484276483,-202.826642828819,-187.611930292661,8.23865888391972,3.28017319434884,5.10398537512625,9.42497703924866,12.9049854158534,-11.5983828215396,-6.61259482736044,-12.2547574000837,-31.7036055224708,-27.1362710030645,-11.2590134400348,-26.751195014434,-18.5681720413529,-20.7593644254533,-33.3654645337629,-29.3064921106354,-20.7062009928477,-31.1875785881764,-33.9326243368763
45.8875744931809,-91.7576187442518,46.348740270039,129.844783145494,31.3365428386229,43.8249035789509,100.069978339977,114.086968020654,45.8653336608111,40.0186900672574,63.8540715510054,44.213673336977,87.0046340229825,72.270509315954,48.5459595219122,126.559701169942,-2816.85030212917,120.383495323018,158.829338178886,35.1713818152883,277.747684507682,-61.7835725542469,230.289337269055,393.23246737168,5.17828106063438,363.673187476175,-16.2623300669019,48.2388962716975,268.208568517971,-33.3100861843008,-55.1017220873387,162.737955494382,126.331952438381,0,28.6536370379597,169.314789164586,247.321222877709,-202.909739164487,74.4242952479495,135.382566408522,171.876996871796,0.254016804025506,162.200260409024,-10.3829930471221,76.9050864270179,109.441136211728,153.227770296317,112.687149057915,160.020456695591,178.225434080624,99.3627662685448,144.906926796967,96.7715232818984,88.1483588694058,109.824555329592,146.263355881152,87.549749611409,119.685004784316,88.7140626428505,76.7009796988945,93.6823597022333,123.501172731293,70.0528582671762,90.6462914862983
136.074871433216,19.6045780230337,123.491421817306,218.708982288867,160.351866519915,108.581513110528,189.128257968307,225.414986478349,114.137338918779,148.364683393677,216.527809253701,90.7113967243189,171.146079997364,200.82681534167,93.293566579867,215.535509699097,-1941.77495898454,206.518984924997,293.043674143762,113.796863165202,373.206140614079,-42.5389217395778,375.082584316634,473.925206439808,161.063562442059,522.665890969096,-25.7019506887172,244.812381066547,363.801314358774,90.5189031807324,105.403119797051,465.046939773554,466.960055486979,0,179.244993177923,327.82647718524,581.321618831905,189.755100835853,195.254181101863,294.784248852187,329.587547620686,335.429957582767,293.125292911356,190.341292707879,346.689882565499,213.443270029187,310.385286268614,231.572085721702,301.465260855833,336.045645906863,211.737877886653,298.282353227346,205.356993279753,206.138700661411,246.564562769059,306.40069559904,201.203415741971,257.66094226879,187.652629052258,181.113147781064,211.506397880446,269.738867228098,168.199662055757,218.801732182677
208.333476583819,157.504843983051,186.562762908198,276.933056961404,277.376842095864,155.013664863496,256.614248363959,310.603324948733,178.116494528471,249.746306246601,348.967376700929,136.98512585845,247.810055357372,318.751934789438,145.676021446574,298.394673876235,-585.648685472423,282.70946863787,406.10916694056,205.653334298618,430.40416554868,8.92128305171798,485.128272385145,480.13283598938,294.646148918604,604.36906876548,-65.9054214886456,400.96537278239,442.654481458147,154.584420206662,277.388277607387,638.414802434062,677.050920234313,0,304.244412787385,372.263472137679,733.18539268162,493.91582716099,268.576385514219,380.097163984963,364.211146516158,538.198937989481,340.938329001923,280.537682166018,486.696463067384,290.174141233155,411.02475917479,321.337157073824,392.352461022386,427.422731151998,295.781812245277,396.967294187818,290.401252400604,287.994633431379,335.560568049575,408.474303347397,287.321793921626,344.115347079371,256.968870928611,250.095888326399,282.97386218871,360.252498309733,233.193470750745,297.037377102235
246.619013206198,232.43246147846,227.497041942623,304.441197087902,339.854576008488,184.843355836124,292.38586466653,356.341385505714,225.36462637763,311.457371837533,417.519158157686,180.80630330167,296.868928823902,386.412451479842,193.235418334167,347.230019108712,201.214145518634,315.126984490525,447.695736525757,268.662561425734,406.039467574621,85.9903799751561,488.21746117012,374.706657911281,346.848304484223,533.46108462166,-108.492358863544,418.522855607507,356.227889450879,134.61094148504,322.308806494519,612.853474302135,773.354606713161,0,340.418196214449,319.285519789594,661.727451767305,723.566312474198,266.314495511371,344.472728700171,342.710958927068,580.343502764169,294.795737752807,272.617640049892,491.407137334942,323.664785310575,417.558408830792,354.250593371078,411.107062041639,426.777585964746,340.016096276456,412.939010027789,343.2877315964,325.975170379419,355.562325280482,416.932837782698,336.492584567439,356.84978214981,301.137203626086,280.697296914157,293.362481574285,364.180776809129,258.918374233224,300.911940404467
243.283835490202,235.688044272309,236.249712285821,288.511939097403,330.609284016034,193.183436272582,279.716928641709,342.900072097415,230.429823578198,306.720074801637,404.415544804386,195.527826678581,281.402969228338,371.964787957532,195.722201376945,309.466162962096,736.430567288681,259.401169354624,367.951789004903,239.647689147449,257.770342862291,124.17492503781,331.514683683604,130.015514413162,254.019877874862,263.72533694451,-176.283270279445,226.245890104046,22.5415208018446,26.8605160432607,125.492607906212,466.24346962953,823.569112252042,0,230.542608419164,242.171585024673,416.104981721198,906.574497459249,186.321204530447,224.235512258144,318.4212271496,512.119330035506,199.77256653937,210.973637190462,434.852795216935,313.133019379891,351.874908708818,334.030880481604,368.828373625519,362.119899956968,349.265738461777,368.170095048848,367.973998196371,327.428849017804,331.137443995054,357.950731739507,350.703725899456,317.502079237963,319.52760972624,281.774658461326,262.10199584668,305.426096763492,258.678514874284,256.28157226853
183.524137340077,184.203067707138,188.230962872715,206.090008651565,245.134657372143,153.372020439555,201.014291911426,244.251527523509,169.492301319813,216.917185203865,298.823863495586,145.837264216806,177.014202200818,260.94604800982,110.554061212624,149.947726652276,1438.90144575405,78.0104548815574,149.782400115497,60.3106641447316,-39.1595017393093,32.7659590420977,-18.4994511707716,-241.480279633829,-29.2439229956011,-218.943698903146,-316.884729263911,-209.613695880533,-408.789598035482,-185.049151709506,-269.091310076775,311.928347012644,764.031592302478,0,-60.1980993634986,133.296867297717,87.5699739551924,957.721774367365,14.4797174679236,23.4817728851378,233.461055967828,385.72330962584,72.3932490541228,119.079827651301,363.374360569669,248.983001516951,237.082374520383,260.631267079811,274.918224121373,251.276923804722,307.294839880088,277.623086475885,341.775472814441,276.702437221338,266.186598656417,254.641828953222,310.013525058567,234.445228032565,285.829067719248,235.0830344323,192.981696467481,204.986982445105,221.110557404363,174.735722652964
62.0569312555053,66.5658298864418,75.7263325071372,53.9332704056335,86.1577339433881,52.5862588136692,58.2626832690607,67.5634532032704,45.1289448068704,52.0103023378065,110.030077873307,32.1678134603954,4.07955637259027,68.7445515335394,-49.4162156493656,-93.3218583711167,2000.1193393154,-193.600069771276,-156.395052870337,-225.747472144131,-422.971362771293,-171.428780173479,-480.006632284794,-654.121288242889,-406.624038618044,-795.644148297474,-472.953628103264,-743.15333083915,-792.938412142283,-428.696049971039,-693.281028588933,53.4966666886954,446.311323158702,0,-463.815209520975,-107.193669975992,-268.097042716667,753.968932333598,-219.864066931569,-284.655354315829,-33.3846856820223,189.501716434691,-126.193801295664,-13.5526819939253,251.357939052431,133.820001334585,82.5382016059474,137.67390152557,129.697719364735,92.2665117515222,197.337525979862,138.83757208187,242.679404473751,161.092222488772,140.99523819108,106.514669063297,196.91191897362,100.317679005491,187.021950958622,125.921308382684,78.8512863861679,61.6890352683016,125.372827075671,46.5043310863603
-83.5757274536722,-90.0980794828296,-58.578564656719,-127.147878535536,-103.977150173542,-73.0317048648858,-107.059896072158,-131.088747004035,-97.5992347118168,-131.751239293491,-106.022741356966,-94.2587653128713,-176.845706041474,-146.735620052424,-208.999995352921,-329.239020765416,2324.39637703503,-444.449284641235,-450.699946471028,-469.66471310448,-755.42045395907,-337.257841780499,-853.559010660074,-987.008178861916,-660.200439835485,-1219.00321987814,-484.060322888816,-1077.49261106753,-1114.0726067487,-531.845451382298,-978.329057107717,-443.435748522645,-96.5058067206127,0,-806.599263401572,-505.556615486663,-640.064323652392,378.015260212134,-396.125428630024,-637.857105252792,-506.732704541933,-90.6618906069672,-409.403935446151,-208.484597351173,73.3422670365879,5.28230662292293,-80.5006351409718,-2.99157231300962,-39.3948129454104,-82.2152568904523,50.51199433943,-23.5052028619862,107.509993761973,13.2738194477524,-18.1678822616757,-59.3508978741867,50.4013158672722,-56.9874412948815,58.2428479531375,-11.7238064985675,-56.6707013396976,-101.197893894737,-2.85117735950993,-102.472310572087
-219.21816630154,-237.756342913684,-180.10835496922,-299.346680707902,-281.000956905061,-193.168427438713,-260.066480923029,-315.074109735622,-221.373357071638,-294.922651062937,-305.910457746091,-198.532912370717,-334.281522972209,-342.56714161321,-323.031632316093,-516.381953911403,2705.72424712046,-613.75980147206,-683.50281346805,-584.808082462453,-969.650492769016,-358.619287911322,-1030.24648228047,-1202.81070341982,-674.725622920238,-1350.11165754003,-268.670070850768,-1053.67472769852,-1330.87195060987,-405.046746892807,-1064.04046681811,-1032.77671868016,-660.433622343017,0,-959.305686016403,-953.226932118244,-1046.66083534152,18.178077961225,-420.653620472052,-917.677957719209,-1101.41971791145,-444.414039233011,-744.154660313424,-502.354680786963,-173.147254401317,-120.431936001385,-237.798018141863,-149.772091119895,-204.845402244337,-243.878976461613,-98.8668567347809,-188.233674714784,-22.6002894069918,-137.021125848269,-176.319791896032,-220.846748150088,-88.2430549722709,-213.183848366047,-71.0689267415317,-150.808155523505,-197.68010523084,-259.559307960545,-130.832823659904,-246.244717930248
-367.926015275558,-391.74072043541,-316.366743347659,-479.811154659702,-466.194949470884,-331.016353552775,-424.860273025838,-513.56977529972,-354.379763516502,-469.201088020636,-518.010812249707,-311.430632501849,-502.977649167521,-549.440401986683,-427.320540627264,-700.350856523249,3104.06708690682,-753.834323254474,-908.04265376774,-628.161761186653,-1130.29261836512,-282.025285649408,-1096.76397660384,-1374.59297021793,-548.697222295417,-1306.52124730978,63.4914103422484,-817.534554241391,-1382.4224096651,-151.441263200912,-1018.39821064584,-1464.50429933379,-1165.47307486526,0,-931.927152641289,-1340.60832091791,-1535.7464720049,-428.629538266813,-343.034161604222,-1076.3480037093,-1718.34872515999,-948.069585711011,-1084.25019927966,-943.376189163113,-532.024096722652,-275.849380370791,-428.706407345387,-333.93191215608,-397.27520746464,-435.345048820121,-270.454202152304,-389.467633455281,-175.001016367899,-313.052557361208,-365.420287433146,-427.154413347257,-249.027782267403,-405.54356353365,-223.047869797009,-318.984872590565,-377.906287844371,-445.869071053389,-279.475238555642,-417.867482068178
-525.143443055966,-558.210403269868,-464.53672315322,-659.407705226529,-662.071704270342,-474.465611181144,-602.415941996156,-718.119662074876,-507.275569350601,-655.764326675792,-740.863377043401,-440.196047080555,-682.542533104743,-773.215606969726,-535.187350478569,-892.508072243175,3271.40904088111,-893.137678485428,-1154.09239397417,-655.492341111318,-1280.72608052146,-185.083073226675,-1153.03253168843,-1538.46591218354,-434.595664797448,-1277.80786276202,341.078883000559,-640.468041083041,-1301.18077997418,47.5480807295177,-920.399857385123,-1656.53805831288,-1640.37527080708,0,-795.631019259058,-1579.11451243511,-2031.44518754469,-1208.03683955048,-262.441657277616,-1098.44386529335,-2150.30543310908,-1654.93182771618,-1314.65085688775,-1445.00275872661,-1030.10760824651,-446.668763274083,-648.471144205089,-531.267789996976,-619.690170250092,-666.420653704008,-453.461411647259,-624.868285109225,-352.997280272882,-504.484408977914,-581.407917431711,-690.206676676417,-432.479136944878,-627.238004883716,-388.487980487319,-500.138807811734,-578.070676058146,-656.341016120926,-442.245337849054,-609.49715355021
-620.158052177076,-662.527690404345,-556.931262228663,-764.662116098069,-786.688852515085,-553.550642021141,-721.075844112041,-838.001310550607,-614.750373345904,-770.666767516024,-884.24330866603,-527.967467382242,-793.569108276973,-924.682063489563,-598.669754318248,-1012.53162623021,3333.58479248852,-965.058031265655,-1328.95912644857,-648.292452101647,-1353.46041698542,-104.323827535027,-1175.76220416256,-1616.8607179704,-389.03005911289,-1296.89023083725,482.325876385857,-646.308310379466,-1176.23349666395,87.3704236622668,-800.1076477715,-1623.63112205148,-1980.90726127262,0,-623.848813273179,-1564.73371717701,-2273.11301387434,-2167.32697018065,-217.082069018063,-954.836518465219,-2114.64779284619,-2366.63757496528,-1281.8724302919,-1773.23603483313,-1578.58994721627,-561.008937796749,-816.05238734077,-653.322320549721,-784.489101848668,-850.882442606924,-576.291312805793,-799.804907664819,-488.435275422319,-632.315340325837,-719.117265034735,-889.392779117908,-560.415806796614,-765.393551812314,-506.950173698706,-611.593774166914,-688.986203260344,-785.490951059065,-552.035822594529,-721.26177923051
-618.2975737934,-646.964769077093,-566.73100612723,-758.969074139167,-778.710105374236,-550.457445215275,-734.686975798187,-817.937060044487,-632.9104525396,-758.754952279145,-886.222116144767,-549.360193080196,-786.689223685169,-927.679684173504,-601.122295083234,-998.224203127959,3519.75798657152,-921.569724602173,-1321.13081044817,-604.623889246234,-1274.49162686133,-83.7235427561513,-1106.10611580095,-1519.9273796603,-395.332846772858,-1258.41567856466,485.686691181492,-733.044674921683,-1021.37482354103,-0.312782728790437,-663.090682882152,-1375.07646061164,-2011.53655125511,0,-468.595942319273,-1287.22004378474,-2104.22965403941,-2837.99477539925,-193.96057184226,-675.069330666557,-1603.06674175428,-2775.66528091331,-969.023153247802,-1820.40134564607,-2021.49513582741,-591.18172857766,-871.28713334696,-663.425891218559,-819.588714526947,-913.811131816895,-608.574210496375,-832.557047284787,-551.016034733902,-651.080736195059,-708.463583958214,-899.161903882642,-599.112226340278,-737.678032915874,-562.245818869263,-621.875948119619,-653.070899604899,-751.333423425693,-581.338446633634,-688.680141454733
-530.248653814352,-517.110003209024,-506.220180949299,-653.9314262087,-643.453061901739,-493.211941499493,-648.272034715514,-673.480591982743,-569.388675785863,-631.989843738007,-752.901505375253,-518.187823347274,-674.685573404971,-783.189488265209,-555.933237022266,-856.364040675545,3674.11803158772,-781.601532817193,-1116.58372273912,-546.48278972313,-1047.18505292194,-140.794662163077,-940.213405233978,-1244.83571415536,-420.494220931853,-1092.49502894365,387.161341416425,-738.479492232785,-776.655076408907,-103.560239604674,-492.936433389842,-963.747913676541,-1706.06972069004,0,-308.36084090828,-877.271988965267,-1655.28286259187,-2960.37121809463,-152.715967706649,-347.416195216232,-942.598805198147,-2734.97860233702,-531.478719677664,-1674.72236906221,-2186.15277448823,-542.555667429352,-780.786235394035,-577.174742797833,-711.121279370433,-813.675578895107,-555.837288343487,-702.680241673526,-547.589485056484,-564.401548304232,-565.090509429303,-712.077213096373,-561.282918394848,-564.718556528906,-556.171895782115,-540.914283875276,-499.91817614631,-572.835891699032,-533.112164903409,-530.39036479149
-364.862429236931,-298.736713753357,-371.65083198292,-464.185934916558,-413.448883473753,-386.790526752159,-472.286890932393,-448.722377511768,-433.956415906645,-422.818164019886,-513.589702620573,-431.58699893936,-485.768759261148,-537.078639859783,-465.121961160941,-625.47848515657,3601.95524823321,-584.944125319664,-791.432854022571,-475.22764858825,-736.149889189177,-233.167671988434,-726.018899819276,-880.38329101961,-449.904873531521,-851.395826893125,240.573008360128,-631.892972718975,-470.559498521004,-152.711807685504,-290.23065471354,-507.704223485521,-1197.62680530361,0,-81.1868517086786,-483.747251880531,-1160.57023485523,-2597.63543999097,-65.3925308196924,-31.9271395130485,-426.603971217893,-2290.26382277422,-141.768519481101,-1423.44968184928,-1945.33324316421,-411.861397147147,-529.195566619893,-409.70262397289,-474.564978705007,-531.870245337525,-416.057357292733,-436.185452154661,-461.621658505933,-384.825987140051,-326.466307517941,-415.582627411738,-439.624031783711,-309.365477457341,-460.649823381791,-363.821594826693,-267.708377350239,-323.682184187454,-391.259304060147,-292.639883400892
-145.442349558295,-26.6109547828326,-174.941692341492,-221.707925376551,-130.34627394992,-228.02589033755,-229.818961352465,-192.757839811778,-239.623190721917,-167.45722728441,-211.486703919431,-286.706676244289,-247.657055325683,-236.878995945575,-330.406992965671,-336.985446492087,3496.32318053716,-347.506041771721,-405.066675594524,-366.888515438464,-379.071051968884,-299.996278493244,-483.00029262988,-474.748988399171,-463.115784584831,-576.218579080358,104.434525699727,-454.299049568879,-132.314781658218,-108.846364751466,-34.1421923714175,-32.6805687746,-590.032434515578,0,275.59012495181,-105.110048222141,-704.819135571482,-1880.85777155012,91.3599226145249,313.483616398267,-51.2175125879016,-1574.37429090299,178.585694888274,-1083.55809091513,-1352.64945954135,-219.91283408201,-171.873780635007,-191.345630390978,-165.315482762216,-134.386535628955,-222.406460090845,-106.781458801605,-311.439656519917,-151.799312041526,-46.1204728641133,-94.0963706074975,-254.650856733598,-23.7140598590938,-291.95212235653,-118.851311456249,11.0092870830781,-62.7649533471694,-175.662390893353,-17.6035113248104
118.983634673547,297.201614465839,67.0714122398859,62.7577915728008,208.839027426417,-9.28043129710672,66.8420680752611,108.841587167115,12.4007039924986,139.871931101039,151.164009617916,-80.4924184952095,50.5362105775103,129.606088659087,-123.398974416959,35.9971291716463,3542.45254789932,-16.5709625662952,91.7717275591876,-148.950664998244,88.6303103329049,-265.473066660288,-121.507728215492,82.1281810638907,-362.13165685653,-160.288356390332,43.9376667290746,-158.274794297279,426.993129524015,113.320093664101,405.231455621378,614.474697814986,160.491426113854,0,823.714106698957,438.444460042681,-173.90170421928,-846.529826231887,390.2223061247,806.196940421719,388.751614960486,-646.55495732437,563.777832724647,-600.9964024346,-556.954648129113,5.06498487704619,228.394618353425,52.9485842053377,174.565216866477,292.624483512905,-28.3150356735589,230.807349328265,-162.813788501838,88.6142866884039,227.314787080187,256.946111483815,-54.7334481537619,285.675124090075,-108.666016309355,150.203668399355,319.036937974284,240.188936615447,68.1046478252254,298.576281076007
444.038553381322,693.840289443749,358.465124355068,414.266936716986,631.77749549535,274.969370071566,425.291400998965,505.430835568998,332.04135446159,530.687726838153,605.321015126249,197.390908590555,436.861999662815,593.787886839839,193.139683186396,526.05666502578,3530.62464938076,452.482914656103,740.41313601555,226.763638051034,703.878408934337,-85.3204823672018,418.785974569882,860.329547995844,-70.4623387818897,473.631508675501,55.1826144430042,308.735964195359,1324.30660440001,483.511381772932,1105.46290757014,1474.86272603034,1048.51162368587,0,1496.00244277032,1243.64731768813,484.554803947425,433.14587284629,827.53723515044,1446.98196276583,975.081893059318,478.097000472949,1071.03586946468,86.9111950989052,367.459967821129,253.632422939333,665.920682886136,325.891668362101,552.81500240527,733.172458753735,156.559015058168,575.166170003469,-36.6157274268609,327.52431421649,494.75594136713,670.24197080144,152.091806402229,634.90534804801,79.6387142861873,440.226947457289,654.78930663295,653.648817726893,335.723997462491,684.217783974052
774.21108640312,1088.74013081637,652.459852800955,779.599116348158,1057.7394142197,561.566730857349,785.665570145465,921.041934370967,658.895590582222,935.452834462807,1072.89439329418,493.604188394297,836.353760642884,1067.60721679527,544.17951777088,1029.62771602584,3297.29161484119,938.65652014656,1393.10235194426,628.201953356475,1301.29863148949,129.532340371851,956.151552688999,1649.79925017293,253.196582627221,1108.77340928566,-39.2754381497815,765.991675998806,2184.58358750113,678.77930261258,1844.52380316128,2265.07803940259,1843.24309677939,0,1980.54360061042,2102.75234337256,1106.33146325944,1664.03165846371,1154.55274133024,1992.39060991087,1510.73137855256,1607.41007723988,1513.50277008116,863.80724039568,1296.35215161758,498.95102726791,1084.36088198519,610.663502648303,926.729007396715,1142.17335491447,361.935436921182,895.709670531103,118.79437652901,570.168909133159,769.010534957272,1073.40775300371,379.965964394752,978.4605590932,301.065892713906,727.85489632024,967.122319508391,1109.03286529769,615.99511413484,1075.27097305808
1002.46714173903,1352.76415783729,860.892147361243,1038.08530186876,1345.47475539853,756.954991821855,1042.99115981825,1203.30434394549,888.570831445452,1218.88691082679,1402.34290447735,706.223779457835,1113.8525099299,1401.48672359299,781.874280521123,1381.6732827483,3089.52287060411,1257.04646383311,1850.65671333085,845.799138449155,1694.1967248988,180.3749398273,1264.24762774582,2199.3753517567,353.692471198635,1447.83208723954,-443.589429727747,907.957449009843,2465.36693024021,399.502783158724,2197.19428870918,2729.64786623651,2391.80379417043,0,1965.98830398315,2729.46394501884,1682.39490212324,2590.53379096345,1092.31354757493,2188.69164428776,1823.06295834661,2535.24730210551,1695.18640226947,1536.98656871383,2027.67615581506,715.598620171394,1357.26959334698,875.83266553289,1192.89773765012,1409.23025290756,626.476470573921,1137.11870885756,374.572648096687,819.537326073819,1034.54475471529,1352.46764631359,634.942465327166,1238.08696311312,568.836609733435,960.07136009075,1183.68631317602,1432.45484401287,860.838358091929,1347.22159995207
1101.49563154649,1458.06712889081,963.788368395831,1153.38724597823,1461.30746506955,851.764758207292,1172.83606865349,1318.97046180348,999.529691890181,1346.71417909561,1551.51045447405,807.896642114455,1240.7794337973,1558.40822180574,868.139229131403,1548.2321457911,3068.28503047354,1388.16374828473,2086.30638932785,854.269317158326,1908.61451554964,19.4427770395461,1399.44673200341,2508.99718550083,256.907497132083,1547.45763482725,-1088.78957319903,776.580929627836,2122.19493305585,-174.188067894544,1953.48651632371,2882.23892117568,2809.27878164065,0,1515.02579846295,3007.71180810431,2458.57545526029,3257.45085852344,698.305340465709,2073.01774661864,1970.63959274974,3299.92987888825,1658.7856730972,2093.42402239398,2479.29473802778,894.018010139,1426.52284870261,1089.77107496336,1300.914951872,1482.60128041576,928.085063267346,1276.90978607334,719.759292513067,1059.9761718346,1240.70596236326,1474.67205978341,900.378935236204,1381.47200463922,853.600498911267,1124.64689621142,1296.43248164254,1544.4149450964,1040.2284434341,1455.75072049877
1092.36114109247,1424.34527866941,979.755867846803,1146.94838259748,1425.62964456819,876.459260432372,1191.17745618235,1302.73735918863,1021.75017164265,1347.36925862084,1539.91458514401,838.123260948381,1253.46716350082,1558.5914915465,879.199938617604,1566.17852735407,2951.39976073308,1410.99341779953,2121.70698521472,801.982634047443,1995.07107780731,-176.159175919468,1528.39196121776,2599.74911540047,247.731240211395,1679.60815286318,-1617.66790960718,801.079111456115,1610.96966440028,-547.173314123845,1450.22379279444,2669.2174391294,3050.67525216821,0,999.969105204807,2845.57447433009,3266.84547004011,3616.85619793317,295.846905206239,1856.20290492196,1944.48871636461,3859.23316571035,1495.76540007634,2549.99253948867,2620.73405557365,967.692936551398,1315.92634849747,1164.9490768464,1242.95166126536,1371.47321949662,1111.86429408485,1266.49643619416,981.252047681771,1190.66538195718,1282.31644778259,1415.28114036727,1073.42418980435,1362.80204856164,1040.35011068601,1190.94991590609,1291.3962835044,1444.6439076253,1115.88728554983,1396.91522533003
968.776512078516,1233.29869559211,898.200189015853,1007.18410807121,1222.70108408515,825.235315685196,1077.37577141163,1137.44159099212,956.505728155146,1209.72263361625,1342.7625162819,820.173745911787,1146.72279149125,1381.6619468933,882.054114446795,1432.90380693032,2591.01274676702,1352.80533765978,1903.02216206621,834.446968439505,1877.58854642443,-143.180782279583,1641.19848631298,2349.0594259014,522.446148742268,1877.08378548194,-1662.89442454093,1212.16951795133,1315.82913836583,-425.341249186894,1271.72793391446,1946.47080039852,2737.35393380758,0,753.010051857087,2181.55654620886,3406.52895241257,3329.34942880908,132.406499998155,1628.42436958998,1600.06144757311,3873.21656165327,1162.17448340959,2781.27865403994,2336.35254819198,862.264635858246,1063.77561524116,1023.29452796463,1016.78559219489,1092.95829457999,1030.56907588825,1053.30403077497,972.370232651547,1092.22340568283,1086.88712503262,1138.93561332137,1027.70433801826,1121.79456450456,1005.6679126573,1080.60314667184,1103.82038048494,1125.88950945274,1027.30864112701,1145.26925853018
732.651152017675,903.637056754039,715.2401301904,734.513779949365,870.152959521848,690.768575011063,828.183287985038,818.467024377423,798.590501624261,931.766953007671,966.803431496955,744.57736835863,915.588413959058,1034.47513117383,867.324110328289,1159.59597267871,2341.95007630813,1210.02208838588,1446.03522260108,968.949882166213,1546.01071261322,220.701529533377,1631.14564818826,1778.77887116883,998.173532848773,1926.97566447303,-1112.9765505192,1709.07854238244,1206.58878594698,98.1327638917724,1463.65063032992,927.837800996481,1729.32885906531,0,840.746377543952,1263.75875100291,2636.24415053947,2284.79345996666,219.968545859516,1301.55906547312,1007.31042073843,3181.69181751394,635.267109590256,2703.45153544559,1592.53543608434,613.677853091144,707.511223780087,711.115994370414,661.26444489799,691.475298567074,723.569368183747,678.222388025618,706.286825753931,778.111212270329,709.634747469973,701.358429219863,764.629528639985,687.413885259364,758.995031741132,781.20360008408,723.207758063834,642.960604264657,768.969529761556,725.677555668501
415.447021407511,507.166510871071,455.599980266646,377.278470116565,440.812473591475,486.470295910402,493.128936629932,412.5027432928,555.182860660167,561.95756790027,499.28988522327,587.616031504188,597.396619508897,590.769067708957,771.08631546872,799.958865970332,2350.41152759741,987.829900723947,898.410728670383,1076.36159805973,1133.40362733203,725.74232036248,1472.23310427138,1165.12555993694,1434.89397188085,1730.08415513592,-151.111922487929,1899.18559976824,1067.34975789063,734.560296039304,1520.93541082229,155.616898353494,515.242421812175,0,1041.94773111433,512.267160234713,1658.79544293527,904.82940889908,394.601806099629,755.273837839962,472.305122433243,2169.32630650732,45.3358294042405,2412.75605818232,632.182090282653,310.311692313339,280.162933972066,331.018193901519,238.903417525764,226.756004981581,332.977027001626,230.213291588565,340.38393412818,366.786925641668,252.959104487718,212.103161469956,393.369746436864,164.799209107671,414.943193263698,374.47531863721,232.074852129346,131.24816338948,409.73440692348,232.611457063248
81.3183012311313,114.375160566494,167.617542569906,18.6494902676463,22.36172591474,251.520500004692,154.220658667487,24.8547675933022,268.01458021486,184.677821894466,59.6917375707423,367.882893443668,263.933039319563,159.402127265941,584.652545052907,437.750761452117,2139.38228940997,726.840273784575,429.254964858903,1052.13665048415,776.214797752841,1098.46460619599,1253.08681132574,750.836800236825,1697.09874653065,1447.28588778205,894.058808345348,1819.34454727987,870.500422454796,1280.57521851731,1241.47650425804,-7.81385328925473,-241.28530867432,0,1093.75773107536,88.6735613752535,1213.24794520382,-183.19750014807,488.811152984351,34.5454101100987,259.108192999184,1394.61414701347,-403.782708048092,2080.01364102914,-135.225109126687,10.4681831531509,-151.521960360443,-39.0284417622578,-175.353185813893,-223.639113841246,-27.992473663208,-202.520923297547,11.1803991493002,-24.9137715437404,-192.443172342192,-235.660597489424,32.7927635939128,-315.155955531416,85.8222540210555,-28.9852656226029,-241.996949101238,-283.859571757294,50.5582553685803,-214.17104962836
-182.308010845812,-199.106699914391,-79.8603334346021,-253.052865532996,-294.878135664956,51.1436178520485,-107.841080329222,-255.766116303448,20.6445823759671,-104.239123194846,-253.475229407033,158.485062043877,-3.20936113031824,-153.640307593952,383.104272278476,162.535676798916,1605.17936877249,495.639740259216,130.650757021926,925.1857103148,522.833203996332,1223.34319708659,1060.86938687409,538.681360039275,1770.82289943524,1234.9732390955,1653.05792395035,1700.64096447506,732.36934989934,1652.74978869293,874.892683429276,315.084720329486,-354.57259407341,0,934.55472395287,-131.140463141436,1224.14837758528,-567.123257302188,445.029457482474,-612.057734863751,449.706347247548,1035.51736488644,-567.550736367177,1794.33568209624,-450.816544625495,-222.466858661171,-468.353510738109,-315.173294364413,-477.457015659053,-550.080744591725,-275.479449280908,-513.690799627835,-207.042440570598,-306.837131093809,-513.03030686149,-548.182934188751,-224.11729307744,-618.262976408434,-153.973143924497,-326.576474235933,-567.992413055727,-537.639824002634,-217.908302288463,-504.982623188475
-317.778538057529,-352.535982215159,-224.577292718732,-397.448781859881,-447.649910233037,-67.5409914797455,-256.110902756633,-397.546931587012,-125.176340808963,-248.31359485941,-396.818405143694,10.8019202280759,-158.0286510147,-298.739260636275,220.778486312944,6.11560374597226,1737.1251480541,321.497799083937,-7.55809590027651,743.375735538116,351.508896848166,1111.6800302871,874.990405846797,406.320722902162,1607.06692469522,1024.22234006069,1846.20659100908,1473.15528977124,659.62603723468,1718.18677559469,507.402459369076,687.279815872022,-138.477036559254,0,620.71243417894,-230.545941877837,1172.08451996675,-207.864123410839,285.501854747955,-940.422719518686,887.211641747601,901.444294001137,-424.366459581854,1532.70270628685,-344.790272373441,-320.923281924354,-579.6784493332,-420.991028751407,-583.385366277968,-669.123163522152,-360.158480508429,-619.579264041848,-283.443312449865,-419.673059204681,-615.873471840599,-649.788700128116,-327.83449181841,-680.716017401358,-262.528772576556,-449.381493024032,-662.835893180135,-610.491690373638,-343.943551252634,-587.946048019408
-324.701912330852,-323.026937109497,-247.599497072325,-427.769614848832,-433.636184587435,-107.928522835608,-297.750070683818,-412.83377836434,-169.366605083066,-254.035200904815,-378.72943616599,-74.0245321865165,-204.121974842907,-296.993882132622,92.1353712814331,-62.0063780485152,3303.14889585624,181.58799430251,-44.1322035629834,505.627188820592,219.933773239964,806.560632720398,623.481002865286,281.290898337052,1157.83829268645,657.185035503711,1489.39767993009,874.209240516411,563.69974876606,1327.60389222019,2.21374788454845,787.572143409953,87.442090096796,0,185.558654054054,-140.96532419203,853.519578431199,638.707808272758,60.5740781169049,-927.615795330916,1242.11849742392,830.571885215148,-79.7067353633111,1257.15218290767,-6.53471167846409,-283.856687155905,-495.294482553591,-358.567586222783,-490.672670075908,-578.992308200449,-297.134421993383,-519.835612234661,-227.965350855988,-361.597077484765,-506.987304469398,-541.740952513144,-283.182095570786,-548.382427297451,-234.634153099956,-393.735603632922,-543.024665697693,-513.373934021278,-322.010149195109,-491.639570288143
-249.247436412333,-189.57880032846,-191.501973566367,-376.644892166397,-313.368149533223,-105.86548238127,-261.266899064527,-336.175306562762,-149.223240997116,-173.526244015198,-254.079670263248,-108.700942928006,-177.692431237456,-207.644521992047,-13.5211660639823,-83.5589144474659,5257.40564485837,57.4034825188584,-30.9874757740256,232.431194796166,87.1084989378302,409.331033923716,284.314549847769,131.55695776784,514.917505922797,99.4499426864695,884.263017010874,-97.6241551069911,368.77786724184,568.047344948442,-597.400073524823,572.415283605751,343.970344450911,0,-336.512514944777,90.8594111842715,542.136213720667,1607.47848202715,-173.285028184271,-763.330378366128,1295.04324062008,839.817789228298,273.147282182783,984.874939817441,381.327822563493,-180.191362602185,-309.129273492579,-214.855588689836,-282.868622249283,-361.997884864891,-157.01985547276,-304.829041279086,-98.643232935096,-205.756462337984,-289.297893681177,-318.41964667853,-150.550656635699,-330.79989849526,-121.753681499786,-235.982850512601,-324.404808325208,-310.845632139615,-204.87497919613,-304.906679946001
-157.335685759953,-77.6033083248186,-124.207367633941,-284.555404724305,-181.386045133468,-91.3943625945703,-192.421285105559,-226.561817844755,-106.539629975951,-83.8141319280743,-119.046143512286,-105.329462220466,-130.811934920596,-106.09045491829,-82.1054907835569,-91.9355452832247,5681.07340486623,-47.1798217347758,-21.6036738716417,6.5275298577902,-70.3432620720993,102.866067807759,-77.0105105007445,-82.3076675419208,-68.5760616194778,-500.664749340787,402.777351889367,-1046.2279548694,-15.2116846363671,-175.893197559281,-1094.29582094735,79.5206907742114,757.617677028914,0,-866.582952726352,131.900751008905,513.65989075717,2345.59381260004,-365.295214321644,-657.488864979471,1050.7937625189,918.951039632723,449.044404227458,720.151834624164,722.169635593558,-78.34215456652,-136.426441872901,-91.7479869272125,-87.522115110665,-152.357781680151,-28.5820560199678,-108.141129446392,19.0843504616685,-60.3705993463394,-95.7935908548496,-114.800991941093,-21.4422000210084,-142.125168477663,-14.7805468793997,-91.1150014995299,-141.047966927236,-118.813649163763,-88.2276695622368,-137.146426340802
-106.342952977622,-63.0962283860317,-90.648460060761,-206.012590421351,-120.606253767582,-84.9877710603469,-150.029090348731,-158.172140192307,-80.074279516126,-55.7287847140507,-64.4543264377187,-91.0865304842281,-114.293728263786,-68.6326016167816,-109.784347560106,-122.251210976226,4226.57754346172,-138.136910154102,-80.0575714377522,-109.330837374405,-253.070217539182,12.9157542457019,-369.047349847922,-365.223909953312,-375.34997645501,-952.564694642528,249.244710677904,-1575.46966133541,-625.39405927236,-584.943142351815,-1419.40221642153,-628.265421869534,1091.43431320404,0,-1297.02916034859,-309.563580947088,521.868680050312,2529.4441654019,-485.488273623968,-691.253815865448,543.357591190663,833.68542204983,349.112660278162,350.319954244563,938.538110056452,-24.8845729406328,-63.977422780655,-53.3998291914093,-10.7332972662132,-65.4874633558732,18.2257082641265,-30.5724685392417,59.8341317832236,-3.62008760532806,-18.7050635930321,-30.1755515553683,27.763073857894,-62.9399834250885,16.7715480842551,-37.6781056353875,-65.9274535137747,-39.8118393750298,-47.3965265441916,-70.7296066768728
-139.684195929391,-146.43941199478,-121.163069253314,-209.985898617453,-175.479887707897,-123.752892238097,-193.825509327932,-197.396142341988,-113.363547810052,-126.360520537064,-135.97129219611,-115.666992779278,-169.425195195009,-146.746078127721,-146.715510416182,-218.472028051556,2453.90504464526,-258.692311045248,-248.982179679063,-177.391404800537,-469.333956900738,42.9094615273326,-598.421135467327,-681.89030165929,-495.510172014806,-1237.10170108469,286.605644292245,-1749.48686182713,-1298.88712657071,-764.013377755365,-1619.15188556245,-1359.51883670401,900.188790358493,0,-1569.64992181438,-1057.86017188107,67.7852245275654,1970.20399119245,-572.876777785477,-838.942898188057,-197.673448934226,292.950297118595,-15.4840064787404,-268.176233944072,868.241243124351,-73.6263860130832,-141.344703345479,-129.747447067534,-93.2891352670377,-144.498501859825,-50.1194486725844,-105.595756834057,-3.99213496746224,-68.7873864157023,-88.5863121039758,-104.186095498564,-39.7950599264737,-129.025712471343,-50.8198977927327,-98.5853082950882,-122.788094158458,-116.997872103965,-108.295790700195,-140.080709414727
-281.115340217898,-309.9651270974,-241.92404823079,-344.970819259096,-354.483707749572,-244.306759119931,-355.292646562941,-370.644516630555,-238.078989194716,-299.014653462376,-336.420495739305,-217.982652714059,-319.939950861015,-345.240644968787,-257.912775866475,-405.534234327925,1618.5381821665,-450.740453258112,-517.627944118766,-324.868205915229,-722.508342362943,-30.4376347937054,-836.777891818094,-990.365720874691,-712.692546683229,-1437.99242356055,159.924347002182,-1866.84254103737,-1788.50549620803,-1036.77321160637,-1719.72218201847,-1931.64796544251,156.416977846855,0,-1756.78817116133,-1652.27786747936,-832.560263541291,797.656022074624,-733.778506256824,-1077.6777529133,-1002.29616409918,-673.357127275833,-542.879520545633,-1099.05079758222,388.193857181509,-257.4315784235,-375.349029179269,-323.527413696473,-320.100687489019,-376.935611259976,-231.317664415478,-322.744568737723,-173.333547357885,-255.777474367633,-294.631751183886,-333.924511159681,-221.622975921442,-336.58750803672,-215.179664401816,-272.03220420744,-314.559166525626,-342.035652999864,-270.392152175409,-342.252748541915
-494.170554013805,-532.69641319541,-426.776810982586,-565.013395501295,-606.659518289814,-419.322391726706,-580.671841306418,-616.220611472798,-423.649450112919,-527.729488804026,-606.008841471128,-374.465005530495,-531.106081639929,-599.518535957017,-431.285682160026,-634.369334026821,1301.80437713208,-675.335192034298,-801.559615674506,-568.995843477203,-943.372371034238,-294.996635593947,-1049.74355826741,-1198.10092254635,-1089.18452521077,-1492.20676290808,-330.856930670207,-1885.03472170952,-1959.76938618584,-1484.27479982119,-1678.85955046533,-2267.97039695139,-660.576203973946,0,-1925.54215230485,-1870.3015956842,-1598.51068769516,-510.081026780201,-987.21985408623,-1361.5810682461,-1612.22770938065,-1620.76733386599,-1072.05156918558,-1874.00857519262,-315.889643448847,-513.18294654701,-685.232989188547,-574.844313162433,-620.105536615704,-692.795336596792,-471.24549469059,-617.004034825704,-401.552349627059,-505.832743326403,-569.656413643268,-646.701952498974,-462.928963059086,-616.664277423267,-432.603319910142,-512.276863121712,-580.098268508426,-639.384072695651,-492.458591768307,-617.416420956954
-656.906716844875,-722.935740279283,-567.798148378259,-719.003728218329,-796.159111106766,-541.994343504129,-728.478763947705,-784.944543792189,-562.002411858537,-694.610871494806,-801.112328163771,-495.366447415734,-685.614350708503,-777.054778153354,-568.558342521242,-786.022870338316,619.529326205469,-815.779591496511,-958.325496729184,-783.882779348902,-1010.95124229493,-626.14880097654,-1111.73534860824,-1165.62417942419,-1390.81554207791,-1260.85611963645,-1022.14352642149,-1521.74783083291,-1736.84727091527,-1864.59015421058,-1338.81815935982,-2216.5772473121,-1074.86436465727,0,-1890.86319354822,-1750.55316863588,-1761.868862658,-1354.55306883281,-1143.39202180388,-1468.44383950639,-1821.4026984972,-2025.14082177863,-1373.12955524076,-2244.68141334907,-788.781649169184,-685.9295950677,-894.708730573614,-739.838669374425,-836.204904999617,-923.510068748573,-642.539936061422,-830.046487934268,-567.332575098752,-681.293277998742,-762.494361419844,-868.029763089326,-637.4817202163,-811.157594541095,-589.37980965906,-686.837771940247,-765.150545245976,-843.966975988786,-656.343602562919,-818.296588258558
-670.245865687085,-770.682504894102,-582.267407949271,-706.777053801919,-815.41163415487,-540.072250211595,-714.22543822269,-778.354296166862,-577.732601613021,-707.978053618423,-814.095020098424,-517.229816345809,-694.323051712683,-788.953459772074,-602.277049253807,-789.836297449676,-329.411006016413,-813.255330988561,-917.930958155298,-864.288190458161,-901.681550309271,-853.333202222197,-1004.39242219527,-894.572713435259,-1414.92071281186,-822.273826410267,-1539.5543675346,-822.544343117282,-1130.70372801889,-1881.50359572433,-623.442879441321,-1687.21427215814,-1019.1648038465,0,-1406.03605590249,-1371.99889467833,-1385.0366840486,-1464.04330194942,-1005.34677582371,-1175.83716156832,-1578.50856839678,-1759.44974520924,-1271.50847055351,-2047.51086496991,-796.911701705905,-672.513877358274,-873.472541067045,-710.297853734665,-829.093840430098,-915.840559454927,-640.876852262571,-823.734700951515,-574.33921219873,-678.708013141856,-752.961888182483,-856.508143358341,-645.816519210578,-796.44549162681,-599.675449832504,-684.456046023041,-753.806024441538,-829.238337733454,-664.321073654816,-822.526809583661
-595.169798065941,-707.675461989927,-530.209754590151,-615.466271664934,-730.856613864974,-480.635493549078,-626.582654870361,-678.991733202869,-532.059142167531,-633.753832621331,-721.371860740722,-486.603554641313,-621.769119134092,-707.413064340139,-576.107254258889,-711.978645027697,-945.042002675606,-741.810818945791,-787.705442396497,-833.91519899864,-742.134874228257,-912.406142753262,-845.708135119417,-597.867473490754,-1191.98080258887,-438.670601073917,-1628.31830592674,-160.883344252764,-433.33600743151,-1428.81009294979,142.410712188593,-1029.38953860264,-810.175434454157,0,-627.415725800302,-965.897534694776,-899.536261374349,-1156.2227492034,-647.44381455342,-670.608673692859,-1113.6646075972,-1229.70075593296,-910.781711620503,-1507.59197822091,-628.870969554495,-548.511865069499,-698.388847511375,-568.82759039791,-667.501505998204,-737.150838798182,-534.487259558508,-666.077316055745,-493.046708419865,-576.534781656686,-617.086496844424,-691.690189338847,-561.017872120966,-653.099934486383,-535.072427770558,-582.150147981868,-628.316754959614,-681.731063948281,-585.248845551055,-703.73628979636
-569.709569070045,-680.917892086937,-525.728100450513,-588.788949600373,-696.204568286973,-472.005476008664,-602.867023833694,-641.130078191245,-524.732820142791,-608.492302832631,-683.775785126304,-484.489927256367,-592.358527281195,-672.713109596954,-558.621502732165,-661.490905407802,-1247.89372909002,-688.269420253877,-716.00808909809,-753.266392670495,-646.061919742393,-824.151189980183,-711.818245652148,-452.469879370834,-863.085267523959,-237.722205946593,-1307.62134309389,244.353716271887,-37.4528689781122,-684.999838220705,509.702304533697,-758.551513383301,-828.751779687162,0,-5.84840531928607,-838.043220073012,-742.192786382028,-993.410759945404,-304.561110297122,-381.822433315385,-831.70488784035,-987.696979210894,-667.689845538688,-1084.79581780777,-679.616205073532,-482.246684455156,-579.410201924234,-506.477840654679,-566.262770689644,-611.998981729823,-498.019455689064,-560.514523982663,-479.94330497297,-547.694333061787,-546.716589725413,-583.093003441735,-543.196464709299,-572.554476413158,-536.146549169519,-555.544929227082,-572.104900457343,-600.610040267795,-570.444372244128,-646.696537611479
-619.987373683038,-747.542255705113,-580.953568307311,-632.212111033033,-745.88211654835,-520.334130322814,-653.385259356642,-687.511703288063,-559.463446763366,-652.90634956371,-729.646169296043,-516.034260051924,-620.141271975089,-709.779954100035,-554.124591963724,-655.398869951692,-1675.62732006711,-650.278041615038,-708.56237059955,-643.475184895749,-586.332304386331,-657.146552763017,-568.547720542736,-410.754884909662,-538.53310355746,-112.311988964313,-797.540254281503,460.024276991561,16.5583179002372,-23.4460501371912,485.171874750906,-871.582069662971,-1149.6830387268,0,259.987347403849,-918.153647546131,-1023.06021817115,-1213.30782840539,-99.298838320274,-384.537738412118,-882.665410052739,-1217.21796374332,-685.414874512082,-1013.05840866342,-934.889020145205,-536.78104119376,-606.850992870783,-581.854563886675,-609.237570820686,-631.338404240852,-586.820422888884,-585.376733312451,-569.518396710352,-633.88130648919,-602.916942877857,-600.487824480158,-625.241103121767,-604.232391596099,-623.840389888811,-637.651718588385,-629.963303806844,-630.09176259285,-644.830681605783,-694.470252925416
-640.236240627314,-790.320446617849,-601.726354586897,-631.405303133672,-759.078145616373,-540.599967225792,-668.43008693827,-691.183747416968,-563.686963696615,-657.34718047236,-729.580140485335,-521.808276563906,-609.383031249732,-705.877260705561,-525.316431491283,-612.021547384676,-2229.58607132786,-571.901654595777,-646.136744328579,-523.755506887703,-453.13939947981,-537.684727602993,-355.319283305944,-293.92479782542,-281.047841620598,110.096767634164,-384.094836347159,633.268975532857,71.6850036990078,324.254560558441,467.992223833949,-853.884518031651,-1392.59084456311,0,365.238747616709,-790.338790666338,-1354.60947963736,-1579.66828801059,-6.54362983362036,-344.891242417159,-952.378740384826,-1572.7770858345,-703.188777829707,-1072.6281164002,-1080.82998707983,-601.609857471494,-639.847276364367,-649.317050090942,-650.024396560717,-645.103925624051,-662.675746504458,-605.322080836464,-640.348113137663,-695.841558775604,-640.93485465214,-604.222477093508,-683.811176464422,-606.753557053931,-679.894510426639,-687.892183707675,-660.086424671029,-618.746826723275,-685.629288759662,-700.492432510969
-539.792334430438,-685.971853626574,-509.220499464166,-503.665432533072,-623.625544616745,-462.196622667434,-557.947338812368,-544.063377937487,-480.18455948191,-529.573362531162,-572.302363073308,-452.771715970416,-484.894427728263,-556.965069559869,-442.320105060361,-453.99830974251,-2581.1521682402,-413.057712976166,-433.588244705105,-412.83385929801,-189.420594031367,-539.132625606998,-68.5113731285422,2.67614404961962,-97.9470054586198,462.791893869793,-204.969204092431,835.838797770897,374.637578459066,467.406120564014,686.35188015884,-380.176353795071,-1112.19817689994,0,551.164256960652,-277.399095601111,-1188.35254159049,-1713.85169712634,48.8656818492217,-36.0730564059566,-647.653634100009,-1568.94620228646,-443.344254928632,-925.6554794709,-929.974249861645,-533.974057788338,-505.278410582523,-550.591199802685,-517.794459098064,-486.485452274411,-573.800535656219,-464.477204764173,-573.464207506539,-591.420859030204,-504.285068890845,-447.477807228616,-601.220105094177,-447.533393084462,-598.647047093157,-585.171707438958,-525.126133368424,-442.837059067809,-593.186085529155,-536.59465319857
-357.749362253376,-486.990470449193,-342.116705383607,-293.438730970286,-388.934451012592,-308.076318516535,-358.678213851128,-299.004474776233,-327.675448605449,-314.296034430209,-313.375174505362,-324.441800323508,-285.206566383174,-305.884701189928,-315.657613248347,-215.46891699271,-2743.34957520382,-205.963266221827,-121.455891728094,-305.297493192814,115.300417646369,-561.487618643583,190.936060684479,374.397039921697,40.2075135866643,757.268669808321,-141.908967580266,982.789488436447,752.591384805715,550.508143621834,962.181513753915,325.732897758706,-395.091045665097,0,783.535912763753,365.175758477472,-460.517033299199,-1480.99378091462,95.2495880771836,383.549756673362,21.7173958631464,-1111.04090823229,25.5355445885798,-545.699838246449,-559.597761809428,-339.319643250121,-243.31490731076,-315.346721748789,-246.32114399167,-207.927553082681,-353.193881447679,-201.573436125307,-388.845442287951,-354.632027294629,-234.822170964338,-171.792765224488,-402.725754181209,-180.460858896569,-412.598226263769,-372.209854160926,-272.199728495415,-173.356319869226,-411.517412989471,-267.715242685082
-175.917009465426,-299.227388638383,-178.778185895936,-88.6821527107957,-168.999349707514,-140.897365408853,-154.732027685166,-69.2165289864045,-155.35520158844,-105.618042995971,-71.9537859453295,-176.027081840086,-85.8066238719142,-62.4830228979159,-165.177129414439,16.0057018043739,-2989.27492858267,-7.52225171442845,169.45224382538,-171.247393057319,339.980534264245,-457.638480727613,341.27593955192,647.180838244718,169.672424942817,848.265523304348,-50.7247752132942,997.084835670418,941.897939315277,531.099733580058,1081.22334748334,871.042455152344,277.273763759468,0,866.681929731876,872.387938436183,347.709977586734,-966.048346726643,97.894332306286,665.618829586733,710.254081049933,-445.609277721022,450.867442971794,-125.484244260335,-96.2704781570838,-119.649881525246,-2.8002876540773,-71.1103509115758,13.5587883315628,40.6425366946333,-125.221952322022,44.2464945482836,-172.180916365467,-111.830733252929,20.1032999628266,87.6686550698706,-178.598174853091,57.2008529136102,-205.921126873948,-153.800288944084,-38.0890646917603,52.2626939405716,-223.32853097377,-38.9577441286833
16.5853105376462,-86.4244461642808,-3.16072814955545,117.100740998812,47.2732472114918,37.1899582508649,59.9245332084486,150.191479311215,41.6869663873069,103.749247366516,156.94646441892,4.19638910263587,123.122687408944,171.185048689302,31.8233723496026,243.501392584689,-3298.15567467267,206.200936598975,427.151523806692,39.8354902893387,531.177771739223,-223.350943060014,497.451814718849,837.101979836665,360.14704580163,923.407386079546,57.6866891463981,1058.74315300478,1032.16999626482,465.32661256634,1168.04851523594,1136.44415494986,709.478107585042,0,847.076746037371,1239.8968248727,836.140159762093,-232.096599050337,97.2568030980029,830.165233126331,1136.70588297028,254.126724508256,736.776407365751,247.679517941505,466.524969127156,102.425934570091,217.97854778483,165.548917385694,240.278764362412,263.20427021773,103.563249131097,264.333478147064,70.0671165726225,123.592055551372,237.364819559463,309.344005096338,69.8507973654459,253.460507342035,28.6154032207174,70.2198198976526,156.912927394341,225.923030391685,-10.3410873114934,133.201120249937
266.780603159158,223.557354997713,234.315888673345,375.217424115741,333.056454684199,253.419262002974,326.821642367162,419.225094139386,288.843915324131,362.186318285825,439.373616379329,242.656455882286,381.297048672976,452.309293538038,296.717447448477,517.140928866454,-3440.82955112389,488.517436332448,707.241223503724,360.694182106956,799.54730317144,93.4778515722489,805.946026396521,1065.13485471933,704.207467836957,1196.37518163179,219.683868384886,1356.53756703912,1256.98244434844,623.232673919994,1428.45607573391,1257.50332875772,1035.92874243288,0,1035.53171719678,1537.57023463485,1054.82169869656,585.111896768163,269.579547327018,1078.00956259411,1273.25014798909,899.94397341739,960.458668137501,581.034219658572,1133.0712548612,362.511374316292,514.168503316057,450.00664812984,519.094240020865,550.739464815406,390.929537835301,535.309560647901,366.353110812628,414.801245153007,488.908674378127,545.841744637536,382.743885733725,472.288770156237,326.594421232095,350.022951790092,375.972991434475,400.525864805091,270.52343025169,321.343924352684
537.755539701614,565.769534601093,491.281496469836,646.268328979919,646.011876601241,484.083455089182,594.995464761999,692.962514605734,546.911822943496,621.260140189689,727.07930934505,500.660107650026,642.107427993616,731.156058959395,580.194831774926,787.354884416411,-3459.22706911325,786.160096641236,956.247139267792,736.632867848286,1075.00389472685,513.541104985322,1156.17550869896,1286.49674601952,1178.53698030433,1487.27381466877,597.885524357853,1682.89032366567,1540.87243367614,1098.33299118891,1704.85158779375,1404.49259312373,1218.53360902839,0,1487.84466113823,1752.68500843999,1221.71717495594,1099.30400952439,699.299533257824,1457.28796963396,1288.47951904251,1285.57311712608,1186.66194297202,827.588536210767,1702.23638998098,619.866356807167,843.124520542011,738.741282047151,832.962051758035,861.508309542879,688.554450522025,825.392704600846,662.64748611058,721.005998597444,755.540655570521,763.499230684559,703.637537252648,680.983672613781,630.100386061858,637.508066827051,604.059097550602,536.595253984209,558.784923796322,520.222390416258
698.689563306467,775.600232636218,637.909972390801,789.9402109941,822.479067055708,631.697666058412,724.840797670037,821.275661741057,693.306591332542,739.647325684029,852.449103583659,660.105417612225,769.848081608233,843.19955426525,754.445316095381,895.199879612929,-3565.49050743877,927.652529382681,1001.5307823696,986.419349512337,1134.40790303918,929.735493860419,1262.66222725287,1292.70851271068,1513.43803529625,1441.54246529345,1102.20967929334,1616.08238349414,1541.83767998793,1534.2191748123,1571.7561375528,1562.01171605236,1001.38677604901,0,1716.19844759923,1763.88095722071,1325.39587605575,946.190007299076,1118.43283204039,1688.71530781505,1290.8961935862,1203.51004138828,1307.40922283238,881.843186229283,1841.31255271509,753.320263582161,1012.09215938266,880.491843697239,1012.07992037188,1011.35590089566,845.235602904719,971.168170855753,834.586415804653,877.496787487078,883.698873543565,835.156826248997,879.044073656905,747.427767077817,802.218158224952,778.816165111681,713.751552763774,529.952603861719,708.58478747559,614.332768013971
637.218517690535,747.9952009175,570.65600251204,693.587051177253,735.573806854259,585.828293913205,616.176767995741,691.877208242542,614.084535514789,611.75373416479,692.518595997024,611.690141517217,653.265591125841,672.814680358248,702.126014224968,721.984013635874,-3707.57606984104,776.128166729094,724.77168211794,930.583746038912,840.321485000627,1072.86598950903,989.694129766241,918.754031646369,1412.18433789997,965.116792303571,1327.12483100191,1028.5090261877,986.572212620991,1445.97196194091,779.061264374113,1370.90287387725,265.908866220478,0,1203.13064830654,1342.30389386847,1083.5322740629,185.725567405327,1088.74991798693,1377.72978739507,1069.21873210084,648.322363114275,1065.37454788475,630.223930820747,1384.41463970331,691.47139999719,883.911026040041,779.944049527676,906.148433246601,866.882299928132,768.139091860738,837.259734450552,805.916646023738,766.349140902175,736.768186191329,669.403490461307,805.574634923779,579.895921345512,745.744949553388,657.013669860225,586.714369652716,341.145050621994,620.430629494674,497.929056447891
395.617974463439,537.69089137405,330.0406811416,405.879894053542,438.893103586911,355.393243625645,323.833108978798,362.171866817126,346.090281449737,290.965976205661,316.584453728349,385.82949443866,339.363567128103,294.236151289616,450.927710836196,332.136316745055,-3691.3045211885,385.745101419338,208.497017240927,606.289023910175,287.051938014313,884.834212657519,475.423500546859,203.514816323007,956.411642758726,257.259381886679,1142.71456249604,219.685411021868,-109.589703607494,801.477782932904,-460.718264488396,459.028918667845,-856.023894632559,0,75.8718656918785,413.469313197724,252.868097709161,-774.933886321722,527.042799857407,494.315996892886,352.838024767918,-222.069738802184,386.840846308116,72.5361040189093,515.343953534567,498.698037804407,523.256193595577,514.913246197604,563.070712566579,495.878179505839,543.820164911348,479.116766472162,641.254205053093,474.294149420673,376.305136454752,318.88284444803,561.38138194642,239.257952408378,523.991648466781,342.061632134963,269.037265324315,48.821987730532,362.257242951857,209.449993788919
98.1650575525332,255.418697840833,36.8843714306951,59.7349133608188,76.5507879986686,54.8450269131254,-26.3874323337353,-27.0026665601288,22.1989057242748,-91.0448354558492,-119.268693156327,100.182840659846,-35.0498516767334,-140.575227605607,121.89779743913,-123.64267043749,-3591.215937518,-88.2367460241186,-375.483779596071,192.60455497243,-327.675619763191,577.645706567328,-81.2024495881058,-636.737821746334,473.987145435973,-443.565917088604,868.319162488048,-449.035244186057,-1399.62799199334,52.1058420549595,-1609.7924966074,-965.325075788105,-2131.8192979499,0,-1040.79434722131,-742.562583868994,-1051.68390574345,-1666.80046586301,-194.59345766184,-560.928108424318,-712.385403733589,-1248.51661718384,-448.982518311752,-620.146771669903,-453.105825298193,266.057944410166,75.6185843984958,210.747356805065,134.098764452414,44.0573285610484,303.224203111363,54.9238913614837,441.763486312903,168.945920768682,-19.5114593234199,-95.8336472024556,286.769245797147,-148.683643112233,275.819452355011,-2.92640656474558,-94.5987541014649,-269.534639831678,75.5463541816891,-136.549614370197
-210.409136967717,-61.2145005583303,-259.874767682972,-291.471690646339,-291.084066656562,-245.688618959575,-381.928455223278,-417.344306297143,-299.715876964739,-481.108585527793,-554.759145881923,-195.162050188765,-411.160493298841,-577.149286692665,-226.387602923527,-583.424311784527,-3602.09437704835,-563.932171695008,-945.61150156773,-225.782695584582,-899.704614165421,285.4156523858,-613.446099925131,-1385.02913655921,76.8036989018968,-1022.87740152273,727.403400329956,-875.949608470751,-2370.43650581152,-418.272348488846,-2285.82089142211,-2201.31639062881,-3239.93590871717,0,-1682.64924397831,-1739.67656956716,-2373.49121803347,-2483.169413518,-696.896906989087,-1393.41088777629,-1673.94236849613,-2284.1881522744,-1117.02642262049,-1265.76605531379,-1369.97713329795,-1.75417636182674,-387.80886964957,-110.458235059293,-309.563035887886,-431.424820264736,36.5181356239127,-369.915730314609,194.600451501511,-132.220428201036,-388.9878713585,-510.750932737134,-8.94670904988773,-535.816557058342,19.8134959473272,-333.794039971817,-452.638356593509,-615.991439039983,-210.124226843314,-496.426205150773
-497.726451801832,-359.487745332095,-536.647486694515,-614.276017273844,-616.284863852895,-509.262721272837,-698.882324402003,-762.265061351411,-593.506189439576,-831.966284850134,-936.341703091521,-472.733512259135,-749.96601192069,-963.433829688683,-549.231025382498,-991.677236716631,-3633.75982172534,-970.27531826656,-1419.81228848976,-602.022457541466,-1361.91387672905,22.5845967767427,-1066.31335136326,-1900.83108604499,-274.703006749611,-1420.97816079706,668.056618376932,-1100.99149647884,-2643.03853065756,-556.06607549609,-2472.41986312801,-2730.85288927032,-3727.8588467535,0,-1777.92516330976,-2323.61338466085,-3264.10572295012,-3038.84969329922,-869.031966664536,-1815.88694511702,-2217.40147433989,-3052.40661431179,-1477.67903838956,-1762.19692204982,-2107.09419700486,-289.406850565366,-775.223945634477,-431.213494643485,-691.831688188981,-838.839220633484,-286.389336628545,-740.547359320153,-125.128388469878,-468.737594695392,-732.466117509755,-841.843689123495,-348.08000922329,-869.605937983516,-280.774334824212,-658.86784181755,-785.948615967116,-921.051379160049,-504.682326874909,-820.80182465666
-663.169736490554,-515.75076293552,-709.386709710049,-805.455060359528,-776.466253249709,-661.01267963714,-874.046698282065,-941.648039267406,-772.687477708689,-1021.64509643574,-1127.74895524425,-648.6345648885,-942.459267509031,-1161.75963611875,-740.290203489399,-1209.64668086496,-3493.09335781012,-1179.30829911131,-1638.30916678749,-812.657488886701,-1592.53697165292,-135.278930476383,-1311.93196045239,-2087.92140663154,-499.291943027966,-1573.54984495609,668.906641497758,-1155.41426700622,-2202.21187163646,-466.456129614329,-2288.60157842846,-2527.9171771018,-3401.65406923171,0,-1488.71111735481,-2387.89505114693,-3583.12832382303,-2990.12086283388,-778.811055261377,-1795.10760461253,-2290.67707303594,-3254.98479392307,-1505.45449332851,-2022.08246673813,-2414.01175725368,-497.580824741572,-931.401557891975,-644.922072170476,-860.133348498012,-990.446408676686,-561.378079524934,-906.445653270562,-420.642757043606,-743.602876439792,-939.988447369188,-946.249162459939,-633.972348943925,-1017.5842944269,-554.425360425549,-886.883558482816,-980.253310361318,-1016.17762581331,-725.556542376948,-980.012938289346
-662.525951071691,-484.002234534378,-730.3976540026,-806.747659044005,-724.290634438248,-670.893890031674,-863.062359305926,-905.917909185077,-792.493157854363,-999.766660507718,-1079.70719946607,-683.888930220201,-937.657980369424,-1120.70049000668,-761.456854315974,-1183.24709516267,-3301.65607385294,-1158.86331359217,-1555.20758228936,-825.794935298032,-1553.28304286819,-158.100776878857,-1339.34661841965,-1944.62791657848,-579.26900346716,-1543.05996645857,722.612596229933,-1193.44248795902,-1417.99319876968,-335.508247223224,-1930.15211919624,-1835.69856944885,-2629.19872848473,0,-1106.93674963356,-1997.62846434115,-3408.39009418848,-2408.85046590216,-573.546485893463,-1507.4381028082,-1988.52820522391,-2896.98074372609,-1266.64165852736,-2002.06097089605,-2198.06657818633,-562.905705517609,-832.800797468168,-683.189285562668,-776.563723608913,-849.848264579318,-680.676742008186,-811.392684026129,-583.470683328078,-836.938261569759,-913.748833390435,-807.221053322611,-768.095811698954,-926.316830041405,-707.716613072252,-940.350255351462,-955.477655361783,-864.653711798042,-806.061520952318,-919.074599199768
-543.46343439929,-319.297761552492,-637.467893776593,-659.630525828647,-530.771892062359,-587.91321217603,-716.577004715238,-724.829727558119,-701.043340372579,-839.016332400224,-877.404139394996,-625.878945448633,-801.499025344956,-927.741277868545,-698.447994607579,-1009.19733024148,-3268.59271136201,-1020.77374230696,-1287.7652555341,-788.728412951428,-1353.06347568124,-200.308018735406,-1302.73761342142,-1594.86533808404,-725.823680552734,-1533.11357313883,639.250517917198,-1465.14315012675,-800.1599095924,-393.512966243004,-1727.20099432668,-947.672095472094,-1774.80286891653,0,-942.017019792817,-1310.75881257862,-2759.3854910982,-1591.05835600786,-421.325746205572,-1219.25979900228,-1458.50066881131,-2187.02939853257,-900.46942562226,-1745.55846977448,-1623.86471645281,-517.803959913023,-604.774970786549,-588.23275135798,-560.05583476022,-575.910882189609,-647.053252937977,-570.488698562954,-600.98470632946,-752.805026966546,-704.79996023636,-556.336777093325,-759.730855080922,-678.463174229325,-738.944974820268,-853.938662607638,-754.592500871402,-585.782139247675,-769.891633561088,-704.327026200593
-331.430146762793,-40.6591667050114,-461.663466884085,-404.498166011045,-231.53183310306,-443.184193340292,-472.435089756572,-445.374734952355,-534.907755201731,-590.293883337899,-569.495874168799,-509.73909086985,-587.400378317004,-636.597601062207,-616.232333216009,-764.931736959434,-3236.46755544195,-849.910661031042,-920.835874583219,-822.159309423361,-1093.79525847537,-426.655269884082,-1296.8340317484,-1183.65732648499,-1099.38072740004,-1627.5481416882,186.072172147596,-1961.19177278134,-608.18235235413,-729.454568452295,-1789.3103733035,-170.689056478294,-712.071307100038,0,-1116.35574313239,-505.424526422577,-1614.10565728401,-466.180708226657,-416.084692769755,-979.656173537928,-834.383487957486,-1188.88525644469,-482.278942783774,-1304.87320350117,-814.457960092737,-400.702071825914,-317.016251294215,-417.191743386228,-287.290790568466,-266.861568365154,-499.485520321378,-269.586512012614,-502.25377592723,-546.855082161873,-393.001840680737,-264.228961622252,-646.804652456507,-334.365842655531,-670.945439193287,-660.245296564925,-421.872560257507,-246.088634284816,-629.271204869006,-374.964802902428
-39.8844892061912,333.914348208697,-216.451226378477,-72.0079758179801,157.085070793413,-236.155617202832,-154.493884514759,-87.3748939281487,-300.292167583059,-264.017027325719,-170.213819114513,-335.414239010219,-305.031458140534,-256.878778234523,-496.887937820953,-464.060175081296,-2975.72595555911,-641.225918985082,-488.212399842569,-881.075080998904,-804.322582471024,-795.510936428034,-1256.51425134635,-797.741546056156,-1563.87458515456,-1656.00294638041,-635.223166096074,-2298.7578392798,-683.900575582103,-1204.59309937902,-1760.45446335743,235.418516296972,629.078345835604,0,-1449.32466029388,72.2072264637444,-228.004417317698,968.709929076319,-529.00654269003,-655.248618298648,-239.55692042046,6.89475527009692,-36.1009457989739,-733.349458169497,147.706838322153,-245.170124836185,-3.06350651029653,-227.635030460209,2.64179779802905,44.5496619401498,-296.837725464636,56.2399216166342,-338.240975050387,-282.550900418397,-38.6135571219939,49.7922430429254,-457.645785352523,70.181314539852,-514.054719620366,-366.013778137696,-2.87910043792863,125.620445232293,-378.648326581552,35.4948430160245
252.488999652967,676.130540868923,43.7477139549238,253.203312409418,519.839481000878,0.532630423932218,160.575315334224,259.392234194907,-41.1889571075613,67.002138689725,210.611156118572,-121.459062577711,-7.99687699221305,114.0112023259,-322.166005595778,-160.213915559272,-2720.57039618947,-398.993918587628,-100.202535526087,-843.825890657734,-518.195151311193,-1076.73982891035,-1089.45281210122,-496.973312665898,-1813.05335457844,-1439.03161627908,-1491.18984240387,-2152.42508536616,-737.301485933526,-1583.46906860809,-1353.62840105499,173.464482174468,1737.9820458769,0,-1572.70545476094,52.6078663705915,818.680337772006,2069.7213875816,-638.519809036714,-240.516675429304,193.240361086792,974.65879223678,333.375003426622,-166.934327477666,954.664313175067,-134.312172511893,183.986233886073,-132.899131436221,155.984344160304,210.918071822904,-152.663552872485,265.095475280326,-204.975867693313,-73.2240485644057,223.738136554695,251.614843909967,-260.168176261638,386.635326297145,-313.533428219856,-55.5750296609408,348.067625541489,387.705304868096,-84.2536674153483,373.316337191332
446.992522851658,849.323235940416,244.89760691599,469.148694832901,720.824936509527,197.531832261108,377.749284829462,479.730643993319,166.38361243142,289.485809668481,430.31118116604,75.6052947802092,209.171744055387,335.83341726528,-130.783881306921,55.9316379454823,-2749.63323028241,-181.797577467928,106.763554821336,-662.764023234782,-303.401740691933,-1062.12212698667,-820.743444156926,-350.089554851378,-1670.08119730514,-1067.63538763046,-1900.05064556006,-1661.06157437819,-741.753804129245,-1683.14124669771,-848.463462830738,-244.691438547411,2012.74897116369,0,-1269.75878444167,-432.591398487321,1122.12546644557,2175.24506417562,-603.516773936549,82.2765088812092,385.963951892382,1307.2793132791,500.956328127661,232.742392297486,1227.75096094184,-129.890920514337,97.1190412949182,-210.364938820253,26.6882136221301,91.1165665733265,-150.327865982379,196.991141283163,-169.167450504427,-24.5922821482455,257.853820858081,197.051662713011,-140.47370023012,442.463493427317,-139.184337141016,141.435597055184,469.74319499426,397.59619814779,142.031050431575,480.994813692445
522.05334800703,873.586610794937,357.285383055104,545.819782992084,755.215009000785,309.047365927109,467.374637969609,549.048854928366,281.614779061302,372.579989627032,477.806824796129,202.827651836585,308.068840309641,390.413440872205,21.0153674187239,157.710855794934,-2583.71798876382,-30.8233648350576,136.443703591574,-405.453680212869,-182.645382421132,-763.313995028903,-551.719763681307,-344.975184041006,-1225.63181160398,-744.877411655784,-1655.29583036351,-1153.39211878844,-792.678955566869,-1417.6992257731,-566.494416726397,-677.536884171212,1533.01859659301,0,-688.594184533488,-781.315069853611,949.392391925374,1426.25272538597,-357.557381431899,190.312610788543,352.91628318863,1139.33645932103,478.260706225664,439.712596308249,945.729577019911,-172.319350882708,-146.998349221585,-365.556946572442,-262.447283576862,-181.836307401547,-242.878679487973,-73.4617993444181,-187.735448211961,-125.890372047592,101.297887295311,-44.0281779651179,-116.770608352715,266.770922113599,-22.8421207144013,190.02961713323,384.317957994693,237.30703254516,256.964011933376,403.773571762657
532.772271832442,865.700200753924,402.009977943782,531.494675364253,719.279303161423,349.39873807474,474.739794083581,533.001788034714,326.043568748987,384.729396135132,458.841358248238,262.368296625642,333.608648964334,382.689077339784,122.596919100545,203.317937462633,-1449.17538372735,82.7012838541444,130.408319994753,-159.062279406181,-81.4290619689709,-381.865420574682,-303.042584963188,-314.464244933898,-688.687490281931,-453.444185795269,-1051.57059003312,-656.37665750709,-730.63270501362,-841.390047687683,-295.88885228672,-708.657802931899,984.322756252893,0,-121.887607678679,-667.521333403433,927.716144517553,503.099898599927,5.71002272077491,165.810446329722,181.177130406613,937.542148187352,388.832038262971,560.977266403203,464.42211057123,-151.148940631767,-241.77208104972,-410.369492599329,-399.545684204855,-285.889903959764,-302.229587261774,-273.877694163947,-170.482634432349,-253.959520134944,-64.0492446926451,-244.80932661734,-121.189969526388,69.181002178772,63.4265101730905,174.109022297201,250.940234583269,140.255690552671,316.426931024499,326.019605113875
521.887044324315,856.032567679997,405.351849045814,478.348249538168,666.547186069321,352.297976576138,446.906268936879,484.242134103211,336.114856047098,380.652207806129,435.846384360415,284.740659414414,330.994903716968,377.070275928706,191.728465569108,240.481363107221,367.052574190662,184.9472579862,171.750048755919,37.0089216678551,55.7395795405225,-95.2766522503125,-37.4136805036463,-137.686303358202,-202.299983204118,-76.8485258183386,-535.836856819463,-51.458430195693,-398.156799974579,-190.218627789927,190.299911783313,-294.32245869173,765.534690846727,0,275.266484504624,-377.405090703663,1160.94975603987,-139.821994404462,267.326244968944,133.44511576094,35.8746107573241,865.793838178001,324.578167865216,674.812584393354,98.8942331023917,-43.996439226064,-51.3777906957365,-274.301507047914,-245.295895859075,-92.4182831312743,-245.784072045517,-246.343253512983,-88.8065024420496,-274.192188195691,-106.180904535789,-248.700478065709,-73.2763090430408,4.26332455245818,159.350958829758,191.421767983391,178.810903679504,214.204662705731,385.86905817779,345.511743287841
479.716706659037,771.941617638157,374.680948667912,402.037078732191,572.904871153061,327.185419449744,387.408712506166,400.79020501125,316.779548025732,344.81756188722,375.540665644679,275.943445281611,297.728109358077,335.623305364859,225.558140607832,249.732771469892,1496.66118640137,239.257166009931,197.653045585678,162.088759105483,169.620587861275,68.717418817123,201.852584604092,73.5170752783693,164.82374613353,308.675991862446,-248.701955524052,537.632053174962,5.17850173562648,266.668082691474,637.404699374376,188.965276589408,545.493673229942,0,470.915322046902,-218.425142038105,1142.28245191054,-514.398768979514,285.916694640399,106.818708620381,76.0976208436679,708.58976874951,295.151078686889,762.980328551977,-161.778265374206,81.6936029029059,243.91788644799,-54.3481307374581,37.0565174564978,206.069082104107,-89.2424821862451,-78.0431983810861,20.511859449975,-143.118881726265,-40.9436958479428,-73.3638389895109,43.5262710668358,51.6190022785416,258.829413478741,262.96172215821,169.967221910667,365.688743048753,458.770555922572,409.867350475469
384.800190591436,575.930162623407,304.506311329985,300.734543151668,413.517098753855,266.84775110983,284.193716603398,273.653718693006,249.485439278473,247.457785482844,243.367319053279,222.471795028224,217.641460756757,219.410398895383,201.896164638238,192.159837736374,1168.73990319581,205.144475111124,133.293861848731,189.565388228627,180.141442281551,139.823292608238,316.73950779845,148.906891861935,354.015891358303,524.181473651915,-111.297067283584,870.572349805365,247.163057708532,429.038846043153,778.310954183683,480.302606985961,-41.6370534775316,0,469.062183233066,-57.8824414747206,645.397307591143,-788.663155963089,114.120243109444,55.822437322,274.348016715246,361.414608958027,258.875219763326,775.20186457078,-491.658463482117,155.82568864317,393.740145573145,116.11180724508,214.945980756011,370.884281307608,76.4862697769942,67.2347532431454,104.403936066911,43.3462566819109,35.2409998959108,127.092760665113,163.309169352329,102.284215931064,313.903103831269,324.058131672064,174.371535724805,452.770680131119,476.485469473423,426.036616635418
256.370059956914,342.235560483312,204.056391336337,190.465916679021,227.349771514742,178.970604870893,159.025682943777,133.28105197731,143.271718392791,115.699709939678,86.2122451668557,133.420717596735,107.564827084786,73.2728613822011,120.827089928506,80.3800312802731,168.839809334701,107.523665956256,12.916110360661,123.075792328889,96.8602183819695,114.041826865976,283.378462371556,81.1713196812269,344.40872592541,514.365269449509,-105.895460354174,900.664264425783,359.202057555552,374.950740581073,719.311028765129,621.847722270246,-700.075301171402,0,345.002926656163,275.438982378975,82.4076145578141,-959.936174079046,-97.1092824358588,11.9877384714689,453.142227238123,35.6540891123406,187.154651527006,709.652883551844,-884.329248185348,170.723462704377,360.061998461219,194.661684640098,238.581097308407,368.35423912749,171.11533699703,136.260660475254,143.318338826451,160.233728644841,85.434305192602,222.157596090984,223.570865225485,125.980329381859,312.569575721678,324.235014447986,177.29315863709,441.439397272765,428.286728307859,382.7587403238
162.866499259327,186.83682121494,124.553957647556,120.298499564147,103.577357980239,107.23869573331,78.0498586305085,48.2360103126176,63.7689950882929,34.751598546651,0.708174529894399,62.1666463988723,32.145209763531,-7.10809002263316,38.1451872690101,-3.78688945846555,-338.097638802643,26.9426301412597,-57.3298980131226,36.4958451268683,11.8870828453677,33.0032464929152,184.026023748149,-8.55038686420721,236.345405706669,367.038345559428,-171.065993330838,771.310329803552,429.950716765234,291.930942608331,655.810953260851,688.692904506675,-888.727736443111,0,263.812288332573,621.767198378313,-124.281985242417,-867.902673514613,-195.835627305579,79.9506833321292,530.496655468852,-49.9656799556439,142.379581611015,634.889071206317,-1106.49854107002,185.586465578953,291.128777373303,238.705655853251,228.194753505309,327.231708467531,217.753143794864,195.774163443546,180.880357751514,216.997126078215,170.423632365713,255.564466143203,259.183772082434,204.719949994923,313.141917070686,320.73483570226,236.665510744809,420.849425251216,388.506209511076,358.950795958033
136.99508939978,124.204954342252,100.762007273815,112.083442247972,71.0081868125105,80.5636452222829,70.4970993072401,44.5855779113894,48.6329084674157,38.5306861793911,8.01529035544353,40.6875121179027,28.2987171705555,4.43932276785207,4.53768682491791,-7.27838127141345,-272.808151150034,8.88704276538881,-36.0496341000098,4.03533768845303,-10.332031256297,1.24983855369894,98.4853648483651,-36.4176081934596,179.863117142961,183.061077576727,-99.6966858269893,587.752152584327,439.663767717755,362.156107242752,583.222773636647,694.111971497772,-581.225961120968,0,323.888698388152,772.318601276904,-22.9947210279419,-475.622850305244,-108.816664181757,296.006246234598,569.890619807958,65.4711991883162,208.779802679662,608.681606923374,-997.26568429795,232.709054331571,278.78533123627,289.91465167059,260.71092133696,333.386767515271,268.469113771865,280.752153777799,236.919019419332,279.297134136168,298.65413683074,319.856861097146,310.534703049931,345.66738747356,336.672100461122,367.562475959259,355.808901092082,448.115453771179,392.849579425239,388.922734193165
132.93013502102,68.4730637995533,103.74025199031,127.385117916333,62.1732130661013,74.7723074706383,87.576890885188,69.2044055884214,57.0536587394629,63.6757914018644,34.9809471703126,39.3059667122006,53.3329429597977,37.4573883668579,6.0863513412687,25.2047591793657,-316.548328896276,22.4559146253151,11.0692637773147,24.6597901628473,-1.6823322736896,70.2245287625832,34.2030406575022,-25.6074346432368,221.904117457782,5.79105479238852,233.510426950925,340.055151998647,362.899347576865,603.088944274831,394.674337226428,648.660741895337,-193.320139647693,0,429.95931617798,744.71113300325,90.2666138449793,-31.3452933309069,92.3204514121622,504.340406991426,596.213851371596,176.718115469825,335.689406968688,593.375257344765,-664.284221823028,268.271963727028,281.294931329684,315.334722683866,288.792126533972,348.486396094867,294.581429913185,330.209012932853,249.050269099728,324.149711716378,374.713406369757,377.767670590971,329.159083324915,429.508548236297,327.715376431387,409.599819874824,430.980297203684,468.145955373731,386.981127478796,414.26478971373
123.909003222118,-2.19049713299949,112.967395936211,144.755296708466,42.7912187023799,76.4134863984266,99.9658990559795,88.3298431952485,69.7562581091967,76.4639915279724,52.9503183074515,48.5258882399997,77.8748993822539,57.8734695387927,30.8014118458381,53.8975224247305,-667.62386701776,45.704602094008,40.6512995195254,79.2992551798664,4.62534173125556,208.137667621558,6.4449950781901,-11.4872675414286,317.08011969008,-111.074973285401,717.266004335833,75.1453527902106,263.617432602397,866.732139887673,123.820169890349,555.790143792053,-14.3979648814019,0,441.147621565149,658.476589376165,45.2817062752858,104.703397484597,283.276064977841,537.630655125501,507.812676475127,124.664411184537,374.972976802827,478.401912085394,-347.216479773377,258.166547490497,262.832634812662,293.241546866157,276.379353443896,333.491048389666,268.407715752585,319.149229518485,193.566906832111,321.008312927916,367.819688826137,375.462630865537,293.049463910249,422.774376931808,281.561997200852,404.760130600112,427.633453617842,448.154727905137,356.382301866849,411.834709984795
120.822686721678,-40.159333875372,129.72860062099,170.556009795588,40.8157648966322,85.61952417454,119.960074909537,113.193204911969,99.7036468293572,105.730163131755,93.2554178551876,78.8883469472994,116.489465016358,96.9678545377282,78.8121203599702,92.8838882191898,-912.016180251456,87.9278816873269,83.5043037804612,151.352681456461,37.3669899378163,324.87945144835,56.577980086639,33.0582178865855,397.610718568348,-90.991358045448,1088.01673814032,-63.8372791370239,231.40770734056,961.377091367544,-48.8445098178402,413.55832618063,-27.1030581185708,0,341.398429454717,564.651428706007,-120.266922441372,-180.696933821994,390.613268751584,430.213873156662,221.100568108889,-89.398539956696,259.546361051885,186.996734588442,-169.847049678296,214.419704061427,241.389199943512,251.633663924654,248.397289702222,312.335635818188,225.710876262694,293.652719831707,129.536673099157,299.618197640638,339.772903521092,352.980426114447,257.811134063411,404.741496317199,251.811332662341,384.449800265467,412.076690647811,427.390589932413,339.185860089828,413.074962497451
130.538585338623,-33.5533108075802,149.743233997367,206.48037913341,71.406836261963,93.0545187881794,154.224051158373,154.563827425275,137.568077880929,160.908804209956,162.820659745114,111.863600866834,173.575574345927,167.711750346831,127.449999120614,160.720235594953,-877.165149293811,156.474039393774,177.758581790914,218.623490954913,143.004032967181,350.614601404278,195.304024187535,169.280048064523,429.532560107132,94.114405565393,1150.92532697196,-3.47265234771927,311.141079147904,805.106249264988,4.42549951292116,284.454908656468,-45.280136847927,0,227.771476155789,487.118358201777,-211.700056710041,-533.973562215137,407.163500034612,344.828506545991,-126.319939479526,-264.32192260048,91.0522238738156,-165.31218212244,-41.6944883109164,186.149695480946,247.282158153576,244.590098112635,243.214630643926,320.704773735868,218.418737181612,291.025402842147,119.950742801316,303.702058900786,336.192867993566,363.047662058096,273.200371608695,414.889421694312,264.261369370778,383.652989997524,421.041967203175,432.268229272609,347.674601630065,429.106070855072
183.641775952664,12.0261892514006,198.409044307963,273.702318920592,142.137370895538,127.890201483791,223.429532563176,235.346782391961,192.984805954448,239.792113130328,258.612879287662,153.815125136398,255.287162202865,266.15856971813,186.104259473127,274.397847157119,-850.822511654481,272.998213141195,336.312798758307,307.331868076495,336.714897385081,352.209166159796,400.595835227357,410.442214059578,464.059970543933,386.46255466138,981.842703830406,185.822337144132,489.096086411658,533.712729765973,234.363165888231,272.04864521738,116.211053880937,0,208.12943340257,458.291819196361,-34.766725093343,-466.695072547501,401.889678431363,371.118164678523,-276.600752631596,-162.42796295148,22.6421088540666,-322.811243655512,167.497441572233,242.073573689226,309.598963121132,319.123267975424,303.060613923136,378.835316367476,287.281083066426,334.51190758535,198.748142516706,368.919615209462,378.808045040227,416.580529328352,354.51089765927,448.416582020139,326.394506825271,427.455909063172,457.008581678974,460.785926475791,386.6199117514,462.385603420571
259.370629045096,61.7090080149745,263.973570828306,349.475682112096,215.283087007192,186.714794276717,304.055454282495,325.441399580188,251.270176501684,311.802779694399,344.341194182016,202.997372350482,330.445922299508,350.885765599456,252.757956096445,384.511675906522,-974.967498437978,395.239394975909,478.240058215747,414.132282225342,508.45492156093,412.16975603377,563.460601346383,602.296305683234,516.225101139861,597.969414811541,788.65895985922,319.07521794919,612.218378403572,322.16697279387,425.248461843242,295.119528779295,389.99131953052,0,269.430212521688,395.041325736079,262.748355283884,-7.46043720141024,424.614217842319,414.636424642765,-252.673958191094,143.639588432248,27.8710283401499,-259.202216346251,386.966447193079,342.840548362538,381.150044547916,415.40236292677,389.388748614776,433.742548083426,387.43994757982,387.395992270831,308.127226642281,451.893622799012,429.709997836472,458.026772873342,442.140429237337,466.817294807658,395.511864054028,480.210482867058,481.704827530323,466.802089604076,421.735127281054,476.545587376875
254.943151998349,42.1140557643728,263.45178732123,348.446778638603,204.168958478547,185.997382632662,307.725919766484,326.311732833091,241.738412850771,306.408770462067,340.967533696224,200.273607126364,321.208215955299,342.823128837272,258.304832660621,380.140528591868,-1039.37303358864,404.113254423669,462.729152303542,443.729118188308,483.826228308541,467.978948503896,530.258628271182,532.910784322496,479.046365942341,525.409209969813,619.48877946174,234.04489948418,457.210524077881,153.01612887395,379.763668604595,99.8825308046166,480.341840790111,0,300.974637477055,178.611185450961,271.851188775777,358.166891466566,421.74395114473,346.229196079869,-329.88301568769,326.237986457139,-42.7501069719935,-202.299945705197,438.528106527896,357.126690550836,357.789469016196,411.29932117919,384.164262333464,386.045431580237,403.03173498624,356.611329689387,328.103025923592,446.446548027507,398.304737006852,405.012602363081,435.891377461583,407.050425898573,382.568124469633,450.139275523523,423.555162929683,383.497744593376,379.824411384838,399.774835176047
160.784844182648,-42.9580248858769,188.233062877629,269.302316731224,115.095897322591,114.190074644477,231.368535278209,237.472161924938,165.565241433134,225.153208913925,252.804966770967,137.604340217181,234.176447111528,250.685172082288,188.736029984461,267.606994697564,-942.575548624676,297.586392204623,305.897639549078,365.875316851599,293.691094447042,435.884689698312,336.979417113536,266.534968657179,307.052204507306,245.079416822043,395.667678200312,-13.7390893708864,57.1378672465712,-63.194224211761,122.633337815119,-338.476366971279,274.323591651247,0,237.294134632063,-123.271681072954,-31.4260427607739,419.521305026822,344.106432450768,198.490347124591,-513.51059325591,282.562018125097,-168.179865420232,-194.44929261413,307.542655621565,278.016112136688,252.169952032639,317.220429787984,279.641632531652,254.223295664855,324.163430829719,250.002144966956,252.472045818525,353.777734272521,293.04240671963,282.687356768733,345.038058583585,291.503822406652,288.343072254604,341.389747394743,304.825464796924,240.236355025393,274.845545482592,257.335778782057
72.5089663161521,-123.776779028149,115.858625373327,196.331398520731,39.4414183501965,49.2843392034237,161.141382772644,163.411427301801,95.8342897565378,147.155009347476,172.547054554691,73.6238819327495,157.410572020497,169.869347862877,111.340022995511,169.79292485231,-862.510790525358,202.380814434337,180.872455965187,261.449264687755,160.689405330187,324.528385259718,199.514066664679,108.178083233671,112.040443728869,69.9753008668146,133.213208970316,-216.398809130621,-278.076192616058,-274.17457609332,-197.757929172373,-756.4936293567,-27.1168978195079,0,59.5517602866207,-425.868268584402,-229.774184800442,423.780576288389,231.526266473991,26.2533964376689,-570.125973628692,205.552512036719,-232.809438426206,-88.1762368924322,131.87116886161,203.459960517324,174.81176178851,238.015643402944,186.634127906915,159.306147625799,239.253150661952,171.146828552274,168.038078770961,266.304421301763,210.197381298858,197.840636563849,252.668545737788,207.03600848221,191.638415085638,244.782540669502,216.685888466343,135.69179925242,181.377032743876,150.717450273999
3.44821739422729,-205.961635530192,55.5623955799746,134.542540066555,-19.8356093075898,-3.99704280311097,102.10966340631,115.632298740315,35.6098806161434,83.7204708087714,117.53185318859,10.0901422103141,99.0884812358945,117.102588879689,32.3364142520693,112.868306373802,-879.218874151932,142.548206982703,145.584385026374,152.981581451745,149.152383121489,159.75484693033,179.992517281033,149.047821093908,-20.7750148829075,100.161567259404,-39.2829975578759,-295.681154356476,-410.639138644338,-359.516681795773,-534.049335471267,-1016.75197757998,-227.166603912455,0,-235.540730929718,-858.254903764556,-204.263293769631,564.693205853947,134.615261027156,-260.678675522852,-568.479331412371,171.549678471134,-326.448148432826,27.6154521354524,-7.78945307188827,138.051253863537,131.681247540289,174.384908087164,132.078739587285,119.189692908882,154.461774963696,128.395208350791,82.0131790253902,187.797990653766,150.908656798375,160.034918452653,155.616227764078,144.424971062545,99.4528597309935,162.291822555193,147.135565938023,76.0063118978283,91.2806351940567,85.1464145944866
-126.638014875128,-363.706093660904,-63.1814960599132,-2.33933007896371,-159.552629004457,-118.153137954997,-31.2260316048824,-16.1255850703803,-83.6068670457823,-48.8681979813728,-10.842484640869,-109.612323041116,-31.527815361843,-5.60170729811048,-115.270368808185,-12.1882484745401,-840.55735129367,-3.25538388880082,52.4635456387806,-36.2247065349545,63.8834264268441,-55.456254638203,83.1125615250683,125.469656757886,-165.166474928915,75.3989574055834,-80.9136866183407,-375.057609579402,-552.672378764178,-352.966541648442,-915.533920796249,-1238.20291570859,-381.772137277674,0,-584.113026996216,-1517.72133830539,-353.837115443243,689.166304886284,29.5406305926873,-728.338039256524,-812.9311697879,-1.05307051646567,-632.44547637288,-143.404667166099,-173.750077024316,7.69610508734486,1.99234736068282,30.6954810232938,9.55689008202764,2.5399726612071,-3.46368752345113,5.09098976946783,-63.3779030264325,29.1191816939903,4.94312978567281,52.8005896580762,-14.5758842735439,-4.99340301581785,-49.5616535313295,-0.280669293643513,-12.2656901439798,-41.6837222024712,-65.8445442878682,-41.631859432515
-340.971234932119,-619.744294295883,-258.15521728449,-240.288083264973,-417.345832887341,-301.667327959739,-260.505624471099,-275.597446978285,-276.409576771152,-284.985190027652,-266.425340969391,-285.983016774273,-265.953863445989,-252.694075468985,-325.842462118188,-254.139651581091,-692.166341632726,-275.426884801675,-207.464550949043,-302.563680950022,-216.782791704842,-274.142419357859,-201.415918443037,-153.533095677503,-392.468266483005,-172.886056364894,-119.707691466248,-514.441017594398,-856.149599210543,-405.244846266064,-1231.76912640562,-1536.24275861707,-680.661058097555,0,-830.759205126694,-2183.19712256157,-983.023107486686,553.019849190916,-121.945875787348,-1218.29007828114,-1333.60553842241,-463.611542871606,-1098.08511141047,-663.87969338657,-466.748905619568,-196.746354794284,-276.73807378738,-216.228856407434,-253.907256866256,-276.568646608778,-236.974858338875,-263.247243181258,-263.415870511108,-233.627871552473,-273.708057370529,-195.787372221008,-256.443398187879,-275.300849136039,-260.546642835806,-266.64138084956,-291.97159124902,-265.837248119425,-296.697392809766,-282.787197577797
-561.93507694176,-900.073009695976,-450.310673000198,-484.144393949811,-698.038871051827,-470.86887609862,-491.605789774963,-545.024420219714,-461.41072944237,-526.358781195817,-545.71437869464,-439.177420908767,-498.948981211094,-525.168086823567,-487.830416617302,-499.592141682323,-580.379999067337,-527.760909391512,-510.788422907834,-496.358682082221,-520.018178389609,-406.63800509594,-476.901521399613,-496.40470078397,-591.413347415463,-410.505856980226,-262.869553147344,-548.098475814357,-1104.66873078216,-520.533916570792,-1226.52174760957,-1833.18380334758,-1132.01001554627,0,-802.374686788176,-2464.82240261451,-1857.59958084143,155.479604846075,-258.717889345686,-1446.90867957002,-1806.47299180058,-1112.44715378269,-1430.54235841509,-1240.2856048846,-872.71144420063,-403.174094587442,-598.472989354038,-463.693528996851,-568.180763948853,-612.90378480551,-452.089190707231,-575.595020749498,-443.906246127119,-491.172463264501,-569.901042982103,-490.921860762315,-473.462304417887,-546.330379195379,-455.197456581318,-523.227106494648,-574.583182407254,-498.378927550394,-515.255265555944,-553.922807160203
-702.883761774869,-1097.24459067332,-558.504268005883,-626.510877232935,-874.498088592929,-552.877862964794,-623.386364910069,-681.998633637465,-557.118623990495,-654.182107078956,-702.082064689187,-507.285252860092,-617.801615160429,-677.051166432223,-533.614897288294,-619.648690772962,-547.095079635813,-624.458025912057,-666.307353952676,-533.421664307551,-635.516085633333,-444.010840485284,-545.20987850781,-621.054075104884,-629.398987368578,-387.704463343917,-476.458061990353,-368.57420439296,-1004.82871809943,-562.610521848764,-833.070172404528,-1846.80378344301,-1458.30734833954,0,-481.408548532745,-2120.49501432665,-2381.85666469032,-272.213087016109,-284.487447183767,-1282.40521203829,-1849.03083394258,-1640.50527522222,-1372.26931293287,-1519.91635718182,-1229.95581129614,-539.016501118053,-793.13614058212,-594.483833864534,-762.576489083284,-824.386740803528,-563.33211317874,-765.585999433166,-542.222225934545,-612.905733686197,-722.456175670939,-668.923222525696,-576.249873848193,-677.375132305917,-556.271445033321,-646.067575565801,-721.721807341074,-613.809577814572,-633.358761539415,-721.738205149584
-724.452924730602,-1146.27532129751,-560.231029010291,-634.346531171519,-893.757601675821,-534.789662786205,-622.460730826042,-656.761896081025,-548.039062692577,-643.108832850788,-691.036114329309,-493.931939699953,-611.241666904971,-662.358231716082,-501.774113178073,-603.243089898389,-453.077625473502,-587.085730981687,-641.057850073867,-503.657612706022,-580.119018680378,-468.103203826519,-481.535797256521,-513.372321587548,-566.399369574195,-217.280286084262,-710.033080080948,-140.744130463286,-584.66329194674,-516.711311201173,-316.666646238177,-1284.75929334749,-1316.72360079904,0,-83.3450169216849,-1184.97528917654,-2072.95264542893,-465.326669622814,-234.10819053636,-852.643260357168,-1328.30902006688,-1712.3425129356,-928.702228941507,-1375.62719096451,-1318.38447986326,-561.806680872282,-781.21209759321,-566.155294468237,-745.386251701283,-828.891147453453,-538.34810920602,-748.938386336517,-525.510939952318,-562.561819313018,-667.902115963885,-654.444196853392,-542.46562339226,-636.408838575188,-532.92213912041,-611.231528985938,-697.795759421537,-586.484211414385,-625.479375858552,-729.588923381865
-622.747348526206,-1051.40553574864,-461.130688627754,-520.71521649936,-776.545348153211,-425.480889701573,-496.173711481622,-515.428971053483,-447.691516365023,-523.264658815901,-549.4053198639,-413.600668494907,-509.295455017158,-522.64443729899,-428.138975189306,-496.372256140909,-273.906853612814,-482.607746488199,-506.156777429236,-491.197171534645,-461.871640509112,-523.34195696695,-425.129121246205,-324.575004398446,-546.791978152898,-111.82783259639,-965.185166786582,-45.4685166295603,-103.288907921865,-518.942924463246,67.0372708024888,-191.085365493451,-606.57807994555,0,105.110337658918,70.260234364795,-945.687276632529,-275.75515859588,-249.639282259031,-365.126820844167,-465.5297011602,-1196.46265320587,-340.847192977793,-935.370647850842,-1018.25776047334,-453.817605524795,-598.620920397897,-396.516130079561,-543.375496686373,-650.197856518139,-373.508400420301,-543.849399815339,-370.812693825359,-380.286030177761,-442.659370332151,-478.800570199001,-384.611410266644,-464.16127036662,-387.496364453297,-455.296024659148,-541.215366476263,-459.503241056801,-504.596435231876,-605.547659459892
-436.502525214937,-870.171093673353,-286.379399995363,-319.906335301675,-576.761852256546,-249.074532421577,-280.207236348214,-304.241051329153,-280.2672957102,-326.606716549772,-326.686190121658,-273.589264991236,-333.230338393596,-311.260246302381,-308.860841434288,-328.982885858632,-154.682281691413,-336.170746262391,-309.612118697036,-478.700167109183,-314.889319832448,-602.07385532213,-389.094649848902,-165.532206999596,-637.054752880698,-121.801741411242,-1188.82962510652,-121.967209260407,255.104814256652,-626.691809431392,298.563250216808,976.40927131266,403.847455199882,0,-28.406703205811,1216.19129689534,497.966551083835,214.04483386793,-363.643461668321,99.7527809719267,394.863777377562,-303.253629750512,172.110090284225,-401.598008376613,-441.276712620371,-250.713130115876,-329.895958093533,-145.441068101294,-247.315518380472,-351.591104803824,-115.902377752132,-228.456533069423,-112.536250778933,-128.523605715077,-131.66028703824,-220.790191225912,-145.221808078441,-211.620993488584,-168.620696834686,-224.177023279584,-300.857034454577,-278.78307937632,-308.81107116819,-407.239017176898
-221.804110291703,-648.553280573193,-79.4745284974135,-77.5707576118967,-334.596844041833,-50.0371532459184,-29.8590874466776,-52.2843689989978,-80.6250933655271,-84.4675900524534,-62.5973691708728,-96.013231906804,-110.826431005734,-60.277945924689,-150.675352454908,-121.513682066659,-110.523563356812,-163.987810002384,-77.7004492854273,-423.707881590442,-156.889121234576,-661.42532306377,-359.525700898824,-105.889659116404,-776.260640159709,-259.027645522173,-1212.02732197141,-347.154392368343,448.239880195731,-659.540557827414,452.637177409141,1740.96299840405,1306.54797844072,0,-230.678191319977,1862.52971757138,1680.32663870921,747.353426379688,-375.278863911124,590.88200766336,1048.34203875449,610.680908255514,581.777722574306,126.968910244839,169.059329897347,-26.3479689487078,-38.3656871039344,104.699856000398,58.3708715525276,-9.36463821516927,137.581851423227,102.484550077648,139.781189568319,132.531665782252,171.425020876586,48.7550335297366,102.03181646751,65.0838792671283,42.2786490473987,29.3209538687211,-21.2297944053654,-74.1795072319795,-95.851878903357,-175.58222043553
15.6005682216697,-379.770515493676,141.225708948761,186.750588088522,-49.8679404186606,153.741319024075,231.402931600535,230.968523490441,143.893865290926,188.877775473014,232.016871989622,107.17674250807,143.20822533524,230.332153150639,46.6319126864294,126.342979813616,8.93737550649486,44.6696719738013,187.750832959827,-269.074026675509,7.30620484357257,-569.872942160538,-299.370585431947,-118.076242326455,-735.508256932402,-445.341672240401,-889.161724709942,-474.604108382623,577.251588069232,-328.074001969383,672.08500032076,2082.1049193088,1920.45346998893,0,28.5258766473955,2019.48901259465,2374.1106631942,1150.34979965639,-39.2919953904067,1156.25886692931,1476.83159811236,1359.33546175304,954.060018854417,659.128223250737,679.362312016821,187.207844848319,269.307467486047,318.495386480873,353.213688191398,326.477261197499,332.909327640754,401.056420869324,310.302972784712,372.776586451225,427.357475806051,312.532227261566,314.783229516738,326.994903110688,211.212658769891,273.567161233362,269.166463989486,155.539791365846,110.678939621706,89.9712315007919
273.540457671288,-81.4031925228809,363.93513134987,453.606188362161,255.628558287109,358.773148455831,491.657473931023,517.9576231863,384.123412028697,469.48410137806,539.013094416179,322.40036769161,410.634377270651,541.141040665896,278.27712702244,410.588159819405,203.32666435861,305.608143970661,496.394552985288,2.89196938812066,220.909686425859,-275.124420073689,-131.91394171414,-26.4366015968331,-372.945608505325,-429.767317842418,-386.754937341546,-145.635571800917,868.270871206788,333.777780380229,1126.86139866344,2372.01041965526,2359.2466581214,0,942.917652658758,2137.61282403723,2734.77038445155,1443.92636781364,557.616483876206,1726.47762273412,1776.32231303741,1950.75710484434,1287.07082889736,1195.61547385193,1114.55727299073,388.311382893251,584.290717611636,508.790904802935,637.09722504532,634.37444678816,480.341819325823,656.481479449622,411.576876458797,571.934659591851,637.945436436909,567.346197855407,487.687767706935,547.592826789096,356.222901759231,492.016665511656,525.630747424497,403.642383562284,312.159588536017,368.107834489214
475.759949122898,150.390633167954,535.49786013223,656.394152419909,491.335544413878,520.247852543768,694.506936897282,734.880424375941,575.65443513283,687.283618366459,781.908586703648,494.161192502925,629.38223155017,789.5778901451,483.243948047996,667.816897867188,304.38986320382,562.235413174001,797.936351533652,279.074208414049,490.229979542502,12.4074387094133,129.632240766536,295.651298536531,58.9207987573282,-88.3344198873148,-139.14453864222,513.030272147582,1402.79734784465,832.759698774921,1693.38042083098,2796.23839215381,2796.51508665916,0,1926.23097735717,2567.22293841155,2973.55459389389,1673.04067634871,976.804456541312,2117.24115990505,2029.49942265296,2397.65988087434,1493.94864060794,1662.70418484139,1502.04059344338,541.861652426696,824.413715518425,661.957329597973,843.997159936866,858.902798908199,582.050934754339,824.185980441842,473.262981334521,686.841796144027,763.712805569362,759.366862490045,600.416638198598,678.305143581885,477.555320409786,640.512700589168,658.950767323907,605.575742302708,472.674068503353,565.699435998532
567.275689615027,257.888139359911,625.267498058063,753.444966212549,600.593852489858,608.169340568591,802.998881377556,841.508157473362,678.399886911034,805.296736259937,907.636706919735,593.514367079821,761.601556520257,925.208290410311,618.818782554742,848.454580800082,326.979950239131,761.588826753445,1033.56653710321,464.120731709678,784.161962837157,112.113402230876,437.439214676096,784.962841278872,287.283717239712,454.719926562584,-265.646703727576,992.807126806181,1921.72304703852,840.039521337714,1975.04826281984,3127.80491535835,3239.5187718058,0,2182.86919633751,3114.43999819374,3154.20180263452,1798.8421007035,934.600207983517,2169.50954470409,2231.84535525927,2682.56871656259,1500.90393117481,1979.66188851578,1788.15871777278,623.280533308475,914.058474482601,752.746820753024,910.869733435689,944.623274950988,644.225379253976,871.493971854083,521.818893281906,717.025315503136,776.206859874703,852.575344161324,657.251627481745,712.414801064498,573.147767540088,695.765661712854,642.394514909639,721.13905024252,562.832494646703,639.409576109455
580.487531104555,279.170740755417,655.10834143028,767.279051131738,614.707688841514,640.353048696716,834.762547877501,858.398528023193,718.580938641071,849.794133834616,938.830784875997,648.55997710361,824.309134339881,971.551182956016,704.721068727306,964.52376087308,465.811911799174,909.896533156316,1192.79149925589,596.350602325898,1059.13345741637,128.562238317288,772.500801559362,1238.07505456051,407.655596262231,968.447669792695,-406.534300481191,1060.01508749226,1996.12717561705,568.707612279422,1742.52571039306,3047.53787872599,3432.18349767586,0,1515.23964025076,3197.90678342408,3214.62760556528,1761.99172060625,561.427284067332,1836.22247270396,2288.37031430029,2810.69440981884,1286.57729537702,2114.68214942315,1880.66593421608,644.943113169447,874.319568699653,781.577398718429,872.133626084986,917.434742743095,686.859807034032,837.468965988637,575.125842640974,714.88836906724,728.958889572548,876.794508026553,694.241882910318,714.096858323606,647.545057152669,688.257813256383,568.625694300365,778.158772814108,593.93317760754,652.567200620602
526.367352174495,225.629718098205,613.051965821272,693.892854075021,538.256250781191,603.093284363457,774.572669501485,771.591480953531,692.141225218565,804.084699601389,864.29518825152,649.27073243885,797.801617995474,911.159300746317,729.563902071297,977.830333049394,676.491170970523,956.162742090834,1197.99353158353,686.156105222205,1158.05820634551,214.633916379227,966.552520142417,1338.73231325295,524.991121428377,1094.80868809959,-291.252532256984,738.192866051552,1337.02367905829,253.424886386669,1091.04383806308,2363.05013527395,2952.56152983838,0,376.734620008054,2412.16231976943,2935.35400029789,1407.77010518394,88.3026608150081,1167.55412807675,2028.74171374796,2666.9981538188,857.940755394432,2016.68446165115,1650.37800668511,597.608255483689,758.938752742471,738.660630921525,783.458287807971,831.002083060435,670.409191895678,756.124055604688,583.570355573972,671.559859908146,658.674228748407,829.720672183971,679.025396496356,690.410284782161,644.403481002712,618.886992867678,504.532104763437,753.626708372555,545.487198952824,619.078992200912
368.024660877677,54.3950040228493,460.491164941384,498.912242850061,324.921648669286,461.057492152589,579.995824786546,542.118519031161,558.514051002449,615.064423665628,628.524543110245,549.064735243638,634.09422507703,687.422944263898,651.991809321154,809.863614387515,706.200171998629,818.457051771709,936.552973381513,674.32051099364,931.257086070655,370.342153753796,821.810834059153,900.976444520252,530.325776111682,629.438769367374,-0.0880227458635261,120.012855156808,150.0747480418,-115.234649556276,330.828661795187,1177.18892998755,1639.55461527834,0,-519.327795992956,1062.68537327564,2097.09208128315,486.441242000098,-334.698766548084,353.58417348423,1409.43873162068,1996.60103730261,310.273790032382,1629.79798341006,978.622216888238,470.168353576544,590.407666337911,616.31763912406,652.245896277906,688.580218095669,541.521640186891,617.06604279289,478.038248436778,534.073643272374,530.296147719135,668.894189220306,542.33121261693,566.969208331319,491.335048801686,448.986045752055,405.711089925772,572.605223870526,375.065281129917,467.381672059793
123.328192998142,-207.623204090577,224.193962678695,214.961139210837,10.0748817385509,243.829992496188,286.805259725539,221.407199644847,335.827102871272,321.322038902666,277.715549035423,359.854489449753,367.300985119013,348.640933116034,490.078702756298,510.281853504962,686.000141553428,561.242435183469,507.843273276712,580.003507830811,533.356226602549,503.365287355425,497.380099557134,247.574071551461,419.982060816765,11.526134486374,270.598456623853,-387.115128853417,-802.123653308709,-405.635737358164,-103.874812631232,68.0385228769423,14.1159918445588,0,-684.991836671143,17.5217531423867,929.452689629359,-889.459503006859,-534.488436583605,-285.844123103887,721.219463682608,852.524542132345,-138.235463949447,1042.08673860747,-4.17035243961349,304.726575178803,385.047067238847,454.92189401808,483.772976993738,478.70766710349,353.55796818339,431.855144945723,286.275151146932,341.473115629433,339.218470097417,426.265334205563,317.567603336232,339.135468693885,224.737070329315,202.070382915714,229.029148761246,263.325809809831,114.381602052006,202.042905044662
-123.12022908098,-435.701104357614,-14.4961202583163,-63.506442376207,-267.308533612232,28.9316695655815,3.94048001152764,-64.2138646843663,101.468107442846,48.4056260029395,-33.0943420837431,149.048920216583,104.564642231849,46.4157670133562,305.672243320161,240.327541842623,1175.25627209677,347.992796025861,184.676775856869,481.547359931487,285.990634934431,514.228739013949,347.2850545992,-66.3805744398621,343.767494134034,-99.9690449134115,348.096378284732,-300.8624586901,-889.77688117882,-390.058442552156,60.3393553777576,-331.043720275158,-1013.49587001375,0,-283.344845164316,-189.096816537442,80.5937195368139,-2015.95778544044,-445.561797589922,-533.558019502183,349.118369375504,-175.413825309794,-337.684186002303,476.966993708802,-842.739623438197,148.293243295557,156.546055151017,296.805218680479,287.825720112201,215.152378028293,202.79667764296,235.816856306331,100.469447283619,190.55731636773,144.291112667062,189.693461189685,109.44256784918,100.212659239038,-36.8444815841073,-30.8282078640587,17.901990997824,-49.9163683027483,-140.378874600341,-73.6665782422271
-292.959466929089,-522.025366314978,-187.590789769426,-258.794599869893,-397.81496914743,-128.256099897459,-180.650840076813,-233.533163964112,-77.330662504453,-112.123284851936,-193.434468707762,-23.266904386142,-73.7815913007375,-114.485649241472,140.334452161851,86.4279188987885,2293.2715856442,229.79082822446,86.8393965773694,383.648039479459,254.064749330931,369.61572566267,397.240828314246,56.6607212975319,320.11107674734,252.825176739435,143.646336647068,231.863587963019,-287.886019305588,-198.604380404189,588.964584705621,14.3462425961513,-1012.17393206147,0,65.414743148802,151.454144465941,-101.802240060558,-2255.18432559364,-298.269629120839,-465.338714828439,382.133059461225,-533.923666873113,-350.764098755447,135.28428607859,-1096.8583527137,12.0348847260138,-84.8797995295789,143.596705084344,63.8915271807865,-68.3426763954735,97.0209604716748,44.0220554573525,-29.9896143900345,97.1218820935145,-9.18636838983828,-4.07066983748531,-33.3623450707849,-78.242723339776,-211.896546865881,-186.000376396144,-150.520282579634,-289.583890859786,-313.79952841303,-282.069384004296
-344.372856599593,-453.582859453112,-256.736758583758,-330.830924540688,-372.582414406081,-202.209488258911,-237.079715326626,-277.164723078573,-163.735998201535,-150.403992106074,-203.611206752482,-120.706112698031,-143.194376409005,-136.754012457481,17.2674866022768,21.2699902677771,3265.84511630561,139.096967844666,109.467368726864,248.230860242718,246.090389392596,156.445968961235,384.783339354971,267.120375698527,262.110579519129,495.48122943993,-216.157059152065,624.949678168152,356.870343031682,-147.910839556381,942.499068318883,639.173994477749,-384.969980735771,0,34.1055573255783,480.645761657926,71.0147584185902,-1690.28486704869,-326.936279955673,-304.115192244146,605.542582273048,-286.447486611815,-282.55545702901,99.0107180239367,-698.553083087044,-80.7170962454553,-285.707807993073,10.9642131107434,-140.243333296552,-299.211516313441,5.27221935097415,-114.906682562694,-97.2526920367692,18.7591654839707,-104.582359720809,-155.156159541851,-113.003231187461,-177.432550229943,-279.358299069892,-252.139133787613,-227.86269354014,-437.507557564634,-377.302038949993,-394.203480681937
-305.845517117831,-316.995114079447,-243.510615335083,-303.540767524376,-273.101957660524,-206.773056536677,-208.012456747461,-240.982526178384,-171.966106769629,-127.54406716507,-146.671049311369,-149.051854439551,-137.450307836713,-99.4657997421397,-56.3264562223867,-13.5969449681577,3303.08576919263,32.953950145144,122.252807076974,97.6674318416983,145.867598737917,22.4753929835357,215.351902896527,334.748964796421,190.448391624608,438.332199921235,-429.378637658452,701.310572371363,694.358136640781,-222.324213595111,903.788582545107,1100.80941160725,199.095079481705,0,-137.755513918123,578.965783415642,144.371317780964,-816.632660404935,-414.351790428567,-209.506428115421,722.058704848759,94.4758998559369,-179.005736277883,237.535130105808,16.0110400246496,-118.503160696471,-393.012339645628,-81.6987182171491,-266.077946554886,-421.915011242841,-78.0671432037202,-214.10866058804,-125.129301961068,-68.6255634172765,-157.652850968303,-272.891022605448,-155.808829454799,-222.197020679743,-274.817176483132,-265.320313263757,-239.818741628824,-507.589392993826,-364.907417225709,-425.05676038015
-271.44623492087,-234.804193266393,-229.044337234533,-269.456389327531,-215.36482453904,-200.319696061417,-186.526175508462,-213.937173532536,-168.197310398999,-127.302407139437,-127.879338488658,-152.601785431323,-133.005156630124,-96.5109712515903,-92.9227370385101,-55.2809357518402,2612.18012402452,-58.9480638396044,92.3315341131149,4.08671700545369,32.6923741735352,40.9151902718383,60.8302247501231,345.254930967581,192.851701614207,394.969889686697,-305.581594458649,744.37542829924,859.066082131267,-162.88066780052,741.233351755644,1178.49240642373,449.715158225179,0,-141.815839234738,475.331906485895,17.8712024076936,78.3127839603251,-311.848193487887,-245.769639751442,534.49669989808,275.473155968825,-134.8613598572,253.188226043863,601.141339900933,-153.163747777622,-440.628570043627,-168.158776819239,-349.749445072978,-486.586832540508,-173.083700997048,-299.877987644789,-177.403011956098,-178.395578468926,-234.613005148228,-394.741718031962,-217.825792214707,-288.583237982036,-281.983390681221,-298.881352742601,-280.373359384925,-562.663907919296,-361.411503818078,-449.344893639341
-272.725189088226,-225.161573700132,-236.27057736606,-272.040682339745,-222.892278599761,-203.466861928012,-198.90381663798,-229.782001560795,-173.813662716998,-154.325374253961,-162.779599037606,-138.781587622421,-149.479507097628,-132.693262262611,-82.4316229847168,-85.292882405504,2036.24699519872,-78.426230768148,64.5451841612286,20.9049917315168,25.9957445614358,172.024246777798,74.3255161571334,431.233987010711,293.041149438553,543.6535892379,67.5624983723226,889.440167818667,1054.57211883801,106.772067327831,717.386220072195,895.11631047288,463.15605508966,0,25.5100151291095,230.090579923496,-196.197139444373,889.592257450049,-14.4383989901683,-353.222652538296,73.9243857961619,255.418619710108,-222.88140540463,24.7895799802774,885.575783039064,-209.713287885949,-473.122350492019,-258.43862393685,-434.187936678819,-549.401462795133,-273.956980142668,-409.1122875786,-261.923766027305,-287.186009289262,-356.324432443588,-516.831899932014,-301.261650265336,-403.344592611138,-324.656450879713,-363.293995211132,-378.45304757912,-628.646386974584,-388.028093882046,-498.648449393446
-259.908710107135,-209.769283654594,-219.607465082696,-273.750446200545,-231.38039063727,-184.401508500886,-198.055809179884,-246.641315979162,-155.481294829581,-161.491231143546,-194.282805655368,-93.1012389372238,-149.984032097804,-156.748833823145,-25.6335591808054,-87.1742598887347,1915.8646673224,-39.4142383839948,45.0255402753973,103.304514735559,79.6614548287476,312.830465000144,157.445058957385,506.769240363935,412.575602293969,644.333303927644,455.053471005312,940.462554155803,1162.67738529656,409.494563002831,718.986786523428,457.277699977314,377.32015863813,0,186.907863546497,-77.5640526579407,-428.252156874932,1387.02864804476,262.258351445506,-408.175499904516,-421.62307080314,159.280460066632,-361.86679051139,-259.406455576868,964.675595741347,-249.45758013755,-479.942172075826,-310.682017343277,-482.472391943116,-581.155835863051,-328.488947303675,-493.119701666564,-312.641452704359,-346.45344740527,-456.276309500301,-582.283629117339,-346.012188118824,-501.399763379598,-345.138754941256,-397.898503572113,-458.349781593084,-658.038725265384,-390.57243254118,-520.764698918329
-242.800984910712,-186.592368099641,-200.038638659244,-281.068193007662,-244.255079981226,-161.031316849738,-199.906699058742,-273.811666366261,-140.723829332231,-181.224806686743,-239.895402675341,-67.5101055779033,-164.032383272144,-203.353657257486,-5.69937475110941,-132.805937686388,1868.09331521568,-65.4230069344559,-62.7513046200961,104.625104563013,1.81619865042767,350.551876258917,66.610109885638,349.821006165654,404.028359252483,401.151709890148,687.866504957922,692.636973462481,889.184387814279,545.687732871338,477.380857043906,-4.30694875873655,179.081513287712,0,185.790499061745,-411.559210274912,-655.121824877902,1340.28148626441,332.071574644799,-409.850399749629,-728.934052899725,-12.5923978883273,-432.96231887476,-434.678227952927,855.460378550439,-271.138730752035,-476.836544313618,-338.592608950695,-488.802033508566,-576.295961420151,-345.177746634151,-529.26143168648,-321.36709250349,-374.454297852807,-506.522989063411,-600.969721085727,-351.98379760286,-555.330216648816,-336.948726236741,-404.792271925946,-488.629130491066,-654.273365938003,-370.348347750999,-510.362668498412
-279.859864196797,-226.307530248483,-238.59551988779,-344.274239279224,-320.549551204913,-186.852697351663,-267.227516678329,-364.677720265743,-190.935912359071,-277.673675432929,-363.540243420704,-117.224560286406,-253.056889708666,-337.673553816876,-87.4874155740829,-285.267547944273,1589.05269996352,-224.774316553171,-312.898099551049,-44.266712517775,-262.766570156398,258.340893534987,-241.171360194739,-64.8791578530014,207.344909460024,-128.442305733945,748.317349442742,195.631189544707,231.958057253213,467.309941243907,-41.4575371936375,-515.783121203062,-240.801805461387,0,-2.349727091893,-780.930946354004,-885.448784374662,796.145428151627,199.910275684052,-447.651571428963,-842.896974354951,-357.430722505799,-427.513746199667,-548.28901189272,464.454787148344,-309.996866558,-505.937856802305,-392.369171656503,-508.803005092691,-587.85184545507,-384.91746627003,-565.033216215064,-341.489733777062,-424.204889055337,-551.367830371265,-636.894609213677,-374.448218589938,-604.798274096461,-351.599583332232,-439.163800411862,-518.079060343956,-676.604352767808,-378.193455446538,-522.963145852031
