-196.827828950883,-201.17761522604,-199.220211402219,-147.747740479521,-229.95870108,-240.615677454136,-170.946600613695,-175.151394013014,-223.506518105183,-255.767432979268,-216.836845816608,-189.360695845195,-180.66112329488,-213.067031044804,-192.98551774116,-196.465346761286,1475.59249740931,-239.238245133669,-248.590285625258,-232.061097779659,-268.454309615145,-249.387746442371,-239.238245133669,-312.967122497591,-238.368287878638,-201.757586729395,-143.035472014767,-242.935563467553,-320.724241354955,-237.715819937364,-262.79958745744,-201.975076043152,-100.045084328625,0,-250.402696573241,-255.767432979268,-122.373987207768,-133.46594220942,-240.18069882662,-249.097760690693,-125.27384472454,-168.699211038197,-174.788911823417,-200.742636598524,-189.650681596873,-198.567743460946,-258.304808306444,-233.801012289722,-263.742041150391,-264.82948771918,-243.588031408827,-260.69719075778,-226.768857811551,-245.545435232648,-279.908746806393,-272.876592328222,-238.440784316557,-235.468430361866,-238.948259381992,-235.758416113543,-242.21059908836,-256.492397358461,-234.960955296431,-240.905663205813
-918.791802662078,-940.518885875889,-931.956013764822,-686.487874020776,-1074.83709210161,-1134.53875305975,-795.261000245008,-814.270195308912,-1043.49666669897,-1195.84900743702,-1009.74682714361,-885.607815996957,-842.588628196851,-993.671552999245,-905.562377842074,-917.144329379579,6906.89989351885,-1124.74052841579,-1162.22858560025,-1096.62983586089,-1260.83271255434,-1187.97893967472,-1131.04771851477,-1468.71015807744,-1141.63656808338,-955.885217626515,-690.951949685476,-1156.20353564456,-1497.39790904743,-1131.21848235678,-1231.10132739904,-935.820736024252,-454.99261172144,0,-1165.60869067216,-1202.66367260143,-580.879266927022,-610.093990923894,-1132.18480364357,-1164.8540325226,-605.151008188667,-793.949228470003,-824.077159217662,-966.438547248234,-851.315544316998,-930.962464967729,-1206.80134891116,-1092.63379251053,-1232.23841252784,-1237.3983216891,-1139.50795358935,-1218.4431348176,-1063.03619470622,-1145.96842900075,-1308.44158699307,-1278.98898206459,-1114.28692274229,-1099.24071734191,-1120.97217018812,-1099.3117572357,-1128.04231087325,-1202.33379727047,-1098.71766711923,-1123.66283082772
-1692.61182045945,-1736.41187808221,-1725.15699338408,-1246.34769525129,-1984.46310680251,-2133.04831295828,-1449.30561192441,-1482.22691547894,-1924.55636374139,-2210.55509331807,-1846.56507582961,-1633.94806670709,-1544.71459679218,-1822.23743488497,-1682.90519589442,-1683.35007412501,12920.8657999911,-2097.63945812451,-2141.36305551832,-2065.53792220094,-2347.91048909432,-2273.94649440519,-2131.62673178327,-2731.42151111816,-2201.51559017249,-1801.61700107796,-1348.5784259564,-2195.2291105202,-2744.12661429845,-2149.74285649521,-2272.90632941107,-1660.5760022091,-748.976830869361,0,-2121.19882662323,-2209.10718399155,-1078.37430348475,-1028.61683993566,-2117.63707209572,-2136.3560312278,-1156.59923063701,-1454.88822080449,-1531.23101995738,-1864.58281234179,-1431.74613534317,-1736.15508547959,-2235.95216851927,-2027.58577278774,-2285.66785531575,-2292.01118039632,-2120.23301649608,-2259.67854698391,-1983.87396684838,-2120.78711243661,-2426.53292450485,-2379.37680949226,-2066.34733085534,-2028.95508663859,-2093.7258226969,-2027.14195029877,-2073.06998973865,-2239.06707243435,-2039.6606454703,-2071.82495795615
-1488.84667932833,-1531.32107123771,-1541.9346982274,-1032.49412424794,-1754.42975395581,-1989.41120208157,-1221.57358688926,-1243.79819655865,-1706.80878056573,-1967.67854486009,-1578.23549733539,-1441.44059748572,-1326.812173516,-1569.65620084887,-1512.87272058718,-1448.29322215392,12335.4927208151,-1899.73034728807,-1863.58800249321,-1922.73212428897,-2114.98639012112,-2214.29213640385,-1978.56367441832,-2439.85174562156,-2164.48895295277,-1640.00792593306,-1349.62868508455,-2036.99757432245,-2304.30457520041,-2014.98090455129,-1958.24495125848,-1174.02309708529,-294.706032868283,0,-1760.57007200712,-1782.39438478929,-869.073627644643,-536.789927734743,-1919.54215934879,-1793.46432899725,-993.330959218778,-1151.05184272347,-1312.42526770938,-1746.56648520462,-892.03398015838,-1593.27700036599,-2014.86944669316,-1845.30909831511,-2072.55492182423,-2060.5577256215,-1947.41297595811,-2042.62088042069,-1828.9056469388,-1918.21512257184,-2198.32215754369,-2156.81580626203,-1874.1066927858,-1799.42409343456,-1931.31830309252,-1806.42864434047,-1824.76208992978,-2034.75754621365,-1853.23195974578,-1838.24179762857
-505.579912146058,-517.32833742436,-581.639398537874,-193.206092660525,-608.613739593115,-919.034763894747,-289.642216638087,-275.331293025366,-629.724471006191,-728.537333715968,-425.720729348173,-511.221143038513,-366.606469061248,-449.050086996499,-580.586354472331,-402.45404182346,7118.75280042759,-744.169321577085,-557.432585208744,-869.163354911538,-786.231095046512,-1215.90612781919,-848.755810886777,-820.325078088981,-1193.54347837966,-562.363102393888,-781.859704551626,-793.760714262374,-374.816858222068,-879.734025853203,-437.693521339464,425.137259867872,892.663482432896,0,-324.789935770815,27.2295556769974,78.2946889990252,741.696356388624,-738.163860212143,-305.171834590064,-10.468337867122,87.0198785842205,-226.69275428311,-568.725403010252,473.132638837033,-682.061330017064,-783.240950514594,-779.347367776514,-842.743140554572,-787.568414720925,-862.379427880184,-809.839703450218,-807.925399189454,-795.391428488919,-905.197391837668,-855.301439264566,-777.69190859864,-637.443668580586,-852.220677370593,-687.112265742856,-644.602065695974,-814.181486552773,-772.137366234839,-669.130440646294
203.375059702614,223.808475674145,97.238762800794,445.550634184234,221.692976959608,-180.258629479681,397.939685099365,455.764054174441,112.397137526617,137.013027285765,417.480634952598,125.682961319686,343.715443114869,370.175474841067,78.4632386230633,370.48257157357,4650.75239013214,85.3884265802129,407.364937733169,-147.877274074044,209.551924932488,-606.676910961049,0.42231260838799,460.795273819576,-554.342509919134,365.056391891902,-469.56394887079,236.15320353849,1282.14495812066,-49.8733011527615,897.504163560983,1862.9709800216,2049.71968915116,0,732.163903236741,1725.95166070565,1066.74429159919,1760.842626247,106.04737261746,944.411094057944,1069.94450256395,1254.34738222742,760.771976355012,605.75527049448,1497.99392365579,-6.87428488821031,137.466996995396,-16.505709179472,62.4553412464077,164.035589834845,-92.7263105295065,105.381999985564,-69.4195120410452,-4.37716157631468,7.10801807042383,108.450374936491,0.870284156968196,211.690725047235,-72.7396240981712,99.8435740828868,178.956192244509,76.6235309772502,-5.7648705752132,160.942702393675
492.242353573497,524.136977969764,362.995920040568,735.368599575953,551.165169457179,76.4688644632517,692.768654793316,780.763947245239,387.214289020826,451.78087493309,754.864365023206,356.846413995079,643.041576129917,698.863582907747,333.955650844656,685.794612074013,4667.48301922219,391.679766561762,765.162041215046,84.6109370304216,595.10881081014,-500.204404371498,348.12734019216,978.61545210576,-372.723509181062,832.806753866359,-513.137393382432,726.802930995844,2067.41557379744,227.250154422465,1630.19331281726,2566.03039941701,2653.61339885533,0,1041.87406410056,2612.19345011344,1753.97074579375,2013.54710937804,370.038707479676,1575.71387998624,1762.1699902791,1900.67903572256,1301.6974167473,1317.93358458371,1915.16576266693,311.175337264278,552.219048124801,315.053484606155,460.263004013493,586.081267682477,232.412917459323,509.886252988123,245.803241805293,329.665606283009,363.571898528707,516.646430990076,324.95737447556,539.500129999034,252.920731713809,411.273863733266,469.677361836352,409.110301687894,304.018087283427,470.150165094749
751.054611578597,776.202098493066,625.158392651173,948.233868248684,831.494410692193,363.463148845612,933.955744362081,1020.36524975302,674.320172587419,753.269541928176,1017.78836855233,605.922756843447,885.474931713678,959.622702753554,600.132963976171,924.299887525874,3162.43585069183,660.63311626768,987.601840450138,372.25121347625,818.38724712206,-176.603223570752,608.807141459435,1173.88237371787,-8.12795404900969,1033.70749003489,-351.282637860549,1036.36541976135,2269.84071237508,492.756132524274,1961.19190410644,2657.60908689156,2573.02518444715,0,1089.74850589134,2801.50428194082,2125.61871164645,1698.88830114288,574.753947041767,1926.86539597323,1969.95852235115,2124.77870199245,1542.03173529308,1719.13647501792,1982.482443908,625.789050554162,900.367230174811,643.697213798556,808.542216754459,931.883687791874,560.238012092991,849.211475779932,552.552286956702,661.729763627051,689.166704512092,854.897099204499,642.453438323365,761.474066908619,567.775367606256,697.865248726299,689.331144068834,677.03269925957,609.781340957201,723.184283741788
885.245478164385,894.111404850707,788.612531540493,1002.54161374318,973.012146609609,579.445950694252,1031.88614860958,1084.46208212703,872.852609417441,947.299285629756,1131.28293113731,780.70580054916,988.704430727881,1067.98990351936,786.784406875775,1005.73292780836,445.49865360888,811.195411626969,1025.48055716952,657.608579150109,808.95255622567,370.03412953531,673.853877850435,1030.70224771993,459.217980282242,853.658034459903,142.754389827623,1050.71145730334,1828.41272600831,726.652387367947,1660.64244031314,2044.68121390341,1702.93154139647,0,998.342928731162,2231.78767188588,1908.29425562038,1006.44484583248,728.474547304336,1854.13503734297,1528.98304541239,1821.5164649131,1350.41668357851,1687.38883383934,1586.61163371536,802.272831919828,1045.68405513689,819.76855371774,970.354036268042,1072.48078464152,752.154107097552,988.427141292403,731.071867549826,832.389139905074,838.438377691673,1001.61102576163,818.276130994818,807.294085963942,754.499495950964,831.635553459117,745.85479068018,842.555941877989,791.851986192902,842.731971554997
701.608113102742,683.064844284945,646.373477971174,758.542780582386,756.948098055066,472.486464455228,809.207925156523,816.744480945247,741.357315411438,776.02865829719,886.325712919424,662.880763738094,779.185897200958,817.144875443632,678.443036213005,760.168759863994,-1675.40984218476,631.92188384495,710.079676289798,668.30211046991,485.831025978748,721.869006756991,438.139558406808,552.60910079428,623.821154658641,370.50559718064,602.704580095084,674.834921767835,820.485735321479,657.057892250155,727.802809458853,717.019605222867,133.821731358397,0,692.882577642628,967.057554064,901.224137399275,45.3103318302469,627.922059918176,1159.04020405315,445.495181803745,930.019648840876,648.681934784403,1101.48011754427,668.824982590176,650.311977618808,784.817271172451,626.593429914203,737.757259591187,806.479511435914,602.062560164775,734.708062565464,586.907671635864,623.73467611048,583.489570987832,755.112187538258,638.504095850129,551.433726098983,605.021170014751,603.97061250873,467.166370780155,710.861738693199,630.048770152248,643.189667154303
382.921045636339,323.608326234941,371.498525507596,386.019248508058,380.026126562438,242.392985511153,445.470111405461,413.976854897955,462.948461893768,444.252198214435,470.189661292644,419.746446834567,438.80424361026,406.338826876831,446.119061975871,395.346542640653,-3419.84205831939,343.283975128692,286.096207058436,536.10861625954,177.979545518568,838.131068116431,226.973257059866,135.674961467686,558.134271970023,36.1820536381106,805.731198860758,279.014434037108,-164.498439626399,397.581044891557,-163.798895994228,-761.607965677008,-1580.75670186911,0,289.911746910819,-407.972832902912,-479.806925617775,-984.1383540447,395.355283271826,199.678122578276,-751.294739523414,-186.102044247075,-189.439103522768,319.784580097953,-385.671578696817,366.944611010191,375.171409511962,300.483553829247,359.637957347336,389.690603126526,331.989732385758,353.091460319889,326.600743633351,293.079429136018,218.818008342952,381.93299258812,330.747216013653,234.18537840333,327.548478405733,251.211774315993,103.640098004349,443.935302668306,333.27326012574,326.984626051256
167.680734365224,65.9475081027822,196.378942607149,112.261982765662,118.282154064037,142.76210155056,188.865196271541,128.890006680468,293.428268364699,236.205406366058,166.351817773465,281.123502420565,206.693936697369,119.213054838674,323.13109495263,161.725941639814,-5139.48553591142,199.93661270495,25.6384409774776,476.290160740872,83.5895747366306,889.410338635754,223.119682983933,-4.92417063016945,513.573729055255,15.3629530109221,830.870128039312,132.494327555523,-657.781116159786,196.565410991423,-496.051388609763,-1694.33573807232,-2702.8056940962,0,-39.3236025851158,-1278.04463942546,-1514.23572124217,-1814.18863576067,223.914063435963,-517.420090249891,-1422.41882218244,-1055.51457591473,-726.134428503976,-201.399262135358,-1135.51479006445,186.796560159074,105.902124358906,113.725453796607,113.845879318635,105.974406551212,177.421614650852,119.588006747273,178.261035496081,113.405623203747,48.904756040797,150.651486506981,155.257696452652,63.9666994933801,165.041031237403,44.1264383674226,-82.662848986504,245.008973194337,154.213441002809,123.662708391263
95.3073686912391,-36.217707613441,150.03792647953,-0.835990437263611,29.0357422864621,165.871050171193,91.5178069699589,20.3120715030219,259.275064037855,185.93867926545,53.7966754874519,259.738281441138,124.483060303882,17.366466407669,314.314523273186,88.5291213347827,-6210.03103129994,191.682910829434,-52.9341137855358,484.904830433706,90.978102782362,915.705718629185,277.137028213311,-5.4870523360455,519.227025229887,80.0417156794016,805.87919733393,136.981007509349,-693.357393239767,145.505413109035,-439.117709322422,-1855.19154881194,-2920.02010021437,0,-202.465884815886,-1511.2599992689,-1842.06226770125,-2143.40910060875,155.963292213575,-842.887446706393,-1441.45760317474,-1480.74608799168,-874.967717699182,-389.838261898734,-1432.67609624057,137.84103564827,4.56172749054702,81.3417169602441,33.8523317655197,-8.8083390653297,150.232291978626,48.9284541100427,153.446947047377,90.0042712632219,57.3853773223679,65.1693507844383,129.172716209847,29.9898491150018,138.219520919706,7.53706905861658,-84.5484547578297,148.972748307707,114.192701772772,59.6368348365503
116.063955650494,-29.1089932602171,174.706519347685,-3.92032029007068,58.9842895802695,234.137914616692,94.8737925964186,33.1630138026218,291.459167342338,227.560666110456,75.5226886101022,282.745445159179,132.498903773592,36.3634280595866,332.145684808535,105.232773008391,-6624.59892669091,227.885830290938,-19.1812129564714,484.63254360537,114.081560237005,891.534128682781,287.470005429284,17.1462468885486,504.766350269057,82.2366558248571,758.445815399873,148.239185424261,-541.368441905863,216.223509198115,-366.851722798821,-1515.73038803154,-2551.70104313197,0,-212.710104202384,-1375.30337426879,-1625.36956404471,-1884.6324559562,170.84898164559,-914.974686343328,-1171.76400683029,-1539.43689616222,-814.950284587422,-449.004583034954,-1381.94352079721,167.216006503537,14.3989233045803,131.97859915862,70.5025810575674,2.55459146618288,208.192701070275,84.0426782133472,205.362304313711,157.43135349327,148.795210785835,83.8321315381461,188.138901176884,88.9841027311397,196.599645700781,77.8019517356348,17.5710274735626,154.698733799794,162.127585484771,99.8813852128705
156.578510017588,11.8985729797421,204.19960731061,8.20228114063332,121.872905358741,305.737532691509,116.773440518917,69.3407218725753,323.883401572769,288.173776867608,123.161177286503,292.282772267301,149.966602816625,81.3909595735501,315.792074374801,124.794314574565,-7085.7479987991,248.033290574082,47.2864806448424,438.43848295428,155.202701967603,815.758394732457,278.228196271363,63.1691353296632,449.750342195575,62.0415859054045,669.594737288646,133.97057571674,-404.484798280556,311.02489233147,-373.158766258455,-1111.21217771488,-2040.91584837518,0,-175.098225282334,-1167.41975093494,-1268.31353375124,-1354.99658959193,219.825368752703,-883.668951864266,-961.214554736953,-1407.00662479473,-713.017163812023,-525.657106770941,-1158.86788691487,209.160680480591,75.4632293138035,199.206556635646,147.891377732237,71.2083118911012,289.721853748475,160.157166921223,276.366377583068,245.885623662014,254.40961636399,159.329967402835,260.738585026539,179.839575051775,274.512982872072,168.689066300423,130.264553385197,217.348309814493,238.023958240283,177.951588990781
143.599296098246,9.19996178022454,182.482890474402,-33.7413731177785,125.464111811757,332.537989119164,89.0356577910265,46.338419643329,299.44896895246,285.943599872587,103.019028480785,249.57493545737,109.794703521129,65.3735359613985,238.018575310287,74.229902392624,-7596.62555514729,205.031261762096,54.0772070582773,336.635545554944,172.047128953498,689.23583462396,239.389572807518,101.81958114129,362.653857177281,39.7685299789685,555.516285425201,92.7763046976349,-342.992906812105,341.66668410033,-377.497860112082,-887.030597252074,-1497.81220001671,0,-169.186680875863,-1000.98921904292,-1061.29249515175,-861.928192275578,244.072750748915,-804.607899199783,-856.160665299648,-1187.56832224322,-603.357108705623,-603.33309974978,-862.521486740204,196.056269256263,101.054662205565,208.678716342869,166.384178182635,95.2411614927386,299.865104763576,183.129873619268,284.628310500723,260.076957694463,288.828760278949,187.003504141999,264.972407517485,201.00682175694,285.082483146713,181.65526816939,157.568566307292,228.07440398964,255.356962237519,195.392607323489
82.4164150855101,-41.6471218465714,124.076101285987,-111.701658137527,66.8664886144425,309.476255675075,19.2050504143484,-21.3651657424997,227.368423487832,217.972026775421,27.0167441163825,175.013898924674,25.1342754923353,-9.70894785895435,133.303779998693,-29.238750232072,-7711.26112209946,112.583420457041,-11.8574032614803,212.685592752215,121.614984483782,534.380189444233,153.855863576782,75.0231418848567,260.400516588895,-17.1982642690984,448.727223836274,27.0219590969802,-324.977219672102,311.177880140155,-349.198157120451,-801.884080697697,-924.177777731836,0,-181.306856761994,-865.51761949003,-994.062092428208,-387.963193600829,237.824131406599,-694.417965588029,-762.750367950428,-904.815277305226,-475.260156297656,-616.44517522606,-537.483074143384,116.67156117373,58.9520795128253,144.947970189057,113.261433977714,55.2084074785523,222.168555586097,129.560421515543,213.794045073651,185.270427737106,237.240535786196,135.040302862681,193.712126047564,140.44221602579,218.31592999388,114.588270403697,101.321028347259,160.64419730841,196.9083641535,138.079820836278
41.8277652824221,-80.2955615310382,93.1967373761253,-167.222340861001,27.0785916501606,299.962479435012,-29.3347623404934,-64.6301045439646,180.576600738007,170.020523960444,-24.7516893431868,133.806059540585,-32.7157658092776,-65.2330742764847,73.9551584583136,-103.802929400177,-7639.58944849411,46.4112044709533,-78.0716680320272,132.339098154565,43.5463380041761,417.893446356248,65.2654148085042,-4.29644893980744,176.875902026916,-105.920600023335,356.931318612813,-40.0085160881322,-316.999362225791,275.359324906036,-308.496694323081,-750.218529841838,-504.457988810534,0,-172.272803079728,-764.325256995293,-932.418396169267,39.4347200581106,239.604362873019,-587.851079385849,-681.887327917531,-649.317962824581,-378.243456190967,-587.986984147722,-288.346068967182,15.3696289594304,-0.304375690177608,64.742535711377,62.3915872518594,18.4341550784884,137.068703943215,70.1406178549201,131.447855988925,108.367363927085,183.099549206677,84.384647313714,125.371462240809,84.5160233092849,154.619025327205,56.1866857059116,53.3154569224753,99.9153956648151,141.320204313776,85.7582732516815
38.5562125422823,-86.1901969041655,99.7619271332337,-192.672728864879,34.2468071273613,328.217836181029,-45.6936646181402,-76.2997021727251,177.3783084923,172.113652289649,-38.759812994111,133.166768423395,-51.3953180628534,-78.8559132476838,65.4770538864771,-132.760889793288,-7795.83520370467,29.1486756262788,-118.581343179156,103.354174692031,-13.3306772989195,371.036375143517,1.55868677443199,-90.4221517339854,125.549119101519,-204.553383835362,280.545760233967,-99.099368360942,-342.904681818993,255.546921163171,-285.237122410205,-739.994178884172,-411.504324410618,0,-152.958744932587,-730.418308509654,-881.265942426445,154.824110039781,258.596495674374,-523.915239353704,-686.548134884227,-584.391214919461,-378.250157870393,-621.473320414076,-234.821103219106,-52.659429986086,-30.8753690173841,22.7889014039068,48.3997586892687,12.5090170761582,106.955150957413,52.8869455401162,98.0115516155719,89.3404813779232,177.732920092799,79.5370531502017,109.869691262993,72.3328807011327,143.056454982319,48.668961932352,55.688370972604,88.547709519865,137.58178800007,77.999967841046
27.3123594818174,-95.4462812175667,94.5260092043344,-221.253117869354,37.6946522444065,335.219424001671,-82.730338644578,-102.668647055128,152.734067640434,157.754425892303,-68.2748151992002,107.533559450979,-90.2207495355106,-108.157045402838,35.3694853255992,-176.12464975602,-7910.66936303698,-5.46463401684705,-181.409637252364,57.0251272989381,-67.3487621354075,331.164944211114,-68.6029707873837,-182.673586136919,71.3862836646578,-309.024197842119,227.831754632302,-171.311416961794,-429.522713788946,227.444351876555,-314.411863725505,-795.610665177783,-581.008784448716,0,-164.502156344455,-748.382459993519,-916.336359324279,-126.739888556052,263.381367986661,-496.551250485775,-767.000646096617,-746.761236459522,-442.882067766149,-748.801049786126,-349.778644513309,-25.1423152528132,-8.24726945937772,56.4673757008583,75.779845312552,35.6597912948809,147.441999064666,79.1141724900234,134.245385337895,125.880394128321,210.449791326641,103.083850539039,141.79884049379,87.7422238933517,172.643361110701,75.2739960071732,86.6194714701062,101.525048192198,160.941570035579,93.2582545240115
3.03914215078008,-109.359944073224,66.7718033277227,-251.186497889419,23.1668358060981,296.715171209874,-149.652346169252,-143.154523372052,85.4149827515666,102.33269444906,-115.783530623928,33.6136962107248,-162.848626437146,-167.186036567853,-46.4587025773062,-251.263323962285,-7614.79970059851,-90.7757869990101,-270.492734670159,-40.4125124006571,-139.310030638775,236.510748387379,-158.220618763929,-268.954816816277,-11.248389554248,-403.202088350303,184.240925481611,-257.981393916699,-521.200026617928,176.61498773174,-377.936970961747,-835.472295334569,-818.352742975595,0,-202.893203869738,-738.586069748273,-980.460898601494,-531.509757709469,246.977056628263,-452.153201858276,-813.248770382779,-971.09930676697,-453.453010502858,-862.917845665251,-478.53828169124,129.255283496516,102.026416680079,188.901642661648,186.856755464472,128.612628225464,268.233199866862,168.151919749415,245.242595663965,221.612173800297,294.703615977624,174.014018104313,228.757873071345,150.551011838292,245.59394268851,146.447789120549,155.143817897682,151.577920226188,203.582393196033,141.598331501827
23.5161052007321,-70.7665821984577,74.720321411441,-235.508202979685,49.6671227894781,289.705130523806,-175.661301041055,-138.297528421566,51.7795745384697,84.9965760604794,-116.313890064508,-17.4820925284687,-197.383949905545,-183.880552240182,-111.961080007965,-293.469542187136,-7203.84522950048,-153.500085002131,-307.756505389239,-123.806921782967,-181.707220890662,132.967528063195,-218.511272910189,-282.765656740141,-82.3157274739905,-448.307479304769,118.974906524285,-305.912574269951,-518.552051945464,129.380113010148,-376.090395118262,-749.682811605538,-946.698279068829,0,-199.739126102192,-632.262670211052,-921.682972650353,-776.635216292909,250.487250137598,-343.739990237626,-725.000073876592,-1044.26879523291,-339.850788845516,-833.039224403643,-516.702798825287,353.998848548557,300.347401853053,391.521099708053,388.66826189311,311.829893556085,456.180688672556,333.325777499208,413.700378178219,382.154155188048,453.252668508773,326.05515452334,382.691365508269,290.045388287675,379.89507105598,286.162868272139,291.678469755313,279.652062680311,301.179006498127,260.063548258264
119.154178860336,42.4506113837351,161.602878610481,-146.958891199866,151.42278836867,372.446764159016,-110.87809951738,-54.7524809253482,110.687712754069,161.49307898845,-38.8346039866422,20.0901548694661,-140.620587112843,-106.92710021413,-91.3339256091977,-247.63545683019,-6983.12768937075,-114.229253855949,-240.712249424338,-110.561191764048,-137.912205845307,113.576986996725,-196.543233650183,-201.324065309693,-78.3470021890225,-416.242716084975,52.1326178305355,-256.155568657275,-404.987313637679,126.177752375816,-235.490376095828,-558.979925443398,-865.140796260074,0,-91.3049720109708,-433.684349644293,-732.837837604143,-795.111124000275,309.345045062295,-160.002826519962,-509.368478618694,-913.074583165104,-140.219080134247,-654.759711198544,-473.925305629165,552.517706760687,517.206822416084,590.56480303262,595.990412074991,518.431977934621,648.832728891794,523.296078374574,585.894020295601,562.408978075209,640.168305320318,519.76171217923,560.702184709881,466.431141776237,546.622732216702,458.749257045441,467.515905336221,457.58117522953,448.337215118573,426.601977409278
230.071022104001,161.286371394831,274.736006725781,-31.4760020841145,269.25612312831,479.615497305991,-10.6546059268353,61.6539423955878,208.855914874114,265.862860251639,63.3941806119751,107.294210523104,-38.8066969685448,12.3449767961244,-9.93500873829925,-144.656556929361,-6619.61474353779,-2.69372645530437,-120.419226062288,-7.70051435012419,-32.2861797156165,182.814063279145,-100.411873812725,-98.1637589641832,7.02982962505035,-319.96446780148,47.3121915225357,-122.615945669313,-269.794358006697,178.778375891501,-7.584936788874,-406.025742690205,-661.853931899786,0,108.59728963448,-194.58739006117,-623.414866089845,-699.774625106541,409.025714176886,87.9071507218519,-275.397280517228,-777.408266309056,70.2020509197947,-479.899718386803,-441.226867299971,658.94265929232,655.812826357708,709.406210947265,712.125664316782,648.124168671559,757.808125577892,646.918798156489,687.211264987069,673.952391166566,757.987845722237,653.895310438255,672.917738618599,587.896156622813,656.217654537376,575.150474022353,593.463592356353,584.984665501302,557.030678480244,551.123595091647
290.676646940775,227.756180161892,337.734522783262,49.749887851803,344.362821734842,537.535037710717,53.1416006149357,154.794720064195,271.552821615344,331.126774799859,143.703741077652,172.148461909423,44.4394898311168,107.494245838045,68.1486397419207,-39.394688306181,-5863.406983165,109.593503008684,-10.3182681878874,114.892491172871,82.8283364351434,276.52602701783,24.9414593667495,-14.5016061259258,127.885775792439,-202.896361462222,119.089195315328,13.4721734314807,-153.715723776335,260.468611186924,190.746889624106,-323.526318287756,-545.743676598241,0,322.903810848739,77.1420323803955,-693.362942783311,-682.956416175482,509.898595187467,382.2669766015,-75.1635281251786,-834.298524251248,277.076857270534,-416.05686828445,-516.258674387317,666.313591679306,691.138614795975,728.272539472426,733.464039718818,683.957861135335,759.396647499042,678.01541512986,695.097220878138,685.385228951657,779.400424633216,692.642688507017,684.129430470083,624.553160087779,665.219238515571,602.794843189143,632.633568528754,622.154650636009,571.620716830529,591.500859792529
334.87531747929,289.931947758253,376.390026777526,114.50312980818,418.979483743761,588.288848440677,108.375673239427,243.947701571598,322.548344850902,406.848730305928,238.785663417448,226.056012423082,127.636040101923,206.602519242839,139.846291567659,78.8239214904432,-5132.11805076629,229.875572207662,120.083284701896,232.70234887654,226.079972164161,381.294106169338,166.674908388433,120.278700425229,259.429738663269,-95.9132206199648,218.683676668407,76.3161104831548,21.418989059461,318.797797868643,288.770529719636,-158.60175676481,-507.38783957435,0,481.266225740807,398.614305601176,-710.190909176918,-770.039547236438,582.321698576716,679.541429525293,164.438938987431,-905.662557528573,517.459510518722,-332.361876026191,-632.394681216654,646.970358297756,717.827908879524,727.66683342552,755.997092457918,722.914763782813,745.42529388514,705.429747705968,684.743596464358,685.867435517317,799.664288263866,729.644473439177,675.852076093541,657.479280981017,655.946515763176,621.20438469097,665.02888099769,659.313302982817,566.603045422567,624.406328248682
421.124981907241,407.577400338356,456.26345280658,213.50522685853,547.423913860105,682.77983236629,211.162360175106,370.763623784618,414.20508829833,540.42300709709,385.314405039406,310.30407020129,248.171241576329,358.741566237521,235.14227695606,239.026467777791,-4718.65562416372,392.885256800361,317.859930601106,374.268855750655,432.179934524797,521.463673631342,343.759846591858,354.347887548598,419.633512640121,18.4641061660136,324.850353953689,74.2272307551265,270.269658676734,328.71962724542,316.618587679473,134.758857683011,-304.659901243547,0,582.382339077309,686.897826327884,-477.620804370514,-716.685365978984,621.679846983168,902.981356882545,437.942489913318,-666.623180549171,762.722583374741,-81.8637514741878,-571.804957616792,681.246670643659,818.140440960448,789.277561463101,848.064032837187,835.005415200781,797.650269157319,806.364628865953,727.137882942843,759.547777718849,893.917214198666,842.630804527952,729.101298020667,755.514302682839,710.28250363576,699.578509993146,762.318989804941,771.851233774864,625.052702883817,723.419469119131
529.12845855892,553.60304715325,560.898099808511,341.89916318986,695.324959522587,776.484336964926,342.957439908424,517.301355338799,523.882086310634,678.883750608192,545.860152502525,408.552096111579,387.079944502948,534.67768146397,352.230786228949,420.717319857654,-4193.27444385522,573.450243515785,551.093231776095,546.674332863847,668.517393403941,674.904976139929,557.828007374218,632.773696453346,615.162072069976,195.172665699169,457.414283730836,106.912578454425,482.444652969348,353.034273477803,356.34267571812,384.711262439043,125.675935173014,0,688.834212813176,828.691220970348,-143.48794378018,-339.638105598692,661.65776356454,1024.54753041309,608.934548785077,-179.463063799743,929.923169767547,210.322139857686,-282.012899102944,753.079587142921,942.081958751589,879.006981436687,960.343563572245,966.30533009904,877.115664254141,932.468701767196,794.681067095405,861.639343254896,1007.30576844504,977.477295599834,810.892628578154,878.62837918894,791.403808706753,799.446728276375,881.594049312675,908.516369011674,713.316986793598,848.517421591721
614.565104030945,678.17813376591,643.428634663324,462.593771454319,810.065768458149,829.876672910337,458.633736812062,641.941587552613,609.777057315441,778.667856865766,677.154046208525,492.595160161725,514.362606948284,684.204160240614,471.678638643445,587.998033760828,-3291.32911735922,733.8050080003,765.291859136118,718.439353072886,881.722574688434,792.383826068158,772.94288266292,898.502966733388,793.294041492718,439.672260328127,567.945275610101,212.571446354483,642.019345376367,440.227980943173,437.745572317712,524.318491548639,567.627053876219,0,825.574729212952,882.050069940841,113.408928374062,226.042083600255,730.440498281962,1122.32316189177,673.943262844819,236.276048360922,1038.11941051882,368.968288726134,22.6098130586367,797.592874023623,1016.95699447714,927.611777757601,1025.62085404146,1049.46686472502,920.22032938976,1010.18057998212,836.68957466641,918.353287466982,1071.37639844257,1062.35818330216,860.643202563135,965.142792472948,839.451894630169,865.005073199978,961.447680000669,1001.39706418089,771.188076342334,935.071817811655
676.120280615062,773.602440945249,706.099790216766,551.936400346824,893.777135054977,881.19752065978,550.637618010274,732.964946978343,679.690441600997,864.718070584457,779.229412741347,569.029268951617,619.934255107175,798.083967509978,582.475590972596,719.556497594452,-2543.43985882909,869.759429587423,934.376172134173,858.218725765101,1039.06196171883,861.816796246422,933.3893917433,1120.27668421319,890.537946386204,654.805048449807,559.140243778205,309.953328848818,813.630358212789,532.053238638688,544.231513984017,684.277957463472,885.884901069171,0,965.176576803927,1017.87384068188,377.61880272852,743.89950580776,812.142277467602,1291.51758233692,779.299217596339,502.105315094889,1183.95046112558,455.558632378244,165.824235831681,803.731625845386,1055.49728572611,944.234767918136,1059.05598335526,1094.98484292323,936.680100966099,1048.71517638442,861.128527746174,943.295193415829,1106.96544678468,1109.28499899336,888.66517045462,1016.19999862708,867.175004997958,904.803191560769,1012.50319535024,1058.5181283255,810.219625527525,987.405857799069
706.909007358619,824.074061847871,745.542859734878,588.272032646743,937.907003395844,934.355116985479,607.585236785025,773.750520659971,728.686325374985,919.316316143928,830.865374827316,624.576135110107,674.047622756012,856.104926085432,657.704242549126,779.723550693756,-2224.48990898274,953.698235794316,1012.85710857667,937.173312916709,1086.55223852262,889.780512737181,990.668791522361,1207.86868670309,916.016831002562,735.005750964899,456.267191296301,373.393339592963,840.849216939586,617.007566717025,618.029515991876,833.710702147169,1174.30723810984,0,1092.04035791824,1216.74567913003,780.519249829388,1128.67028331422,883.256068764305,1486.31081761683,880.07107442937,755.113648553506,1312.78812890744,554.264845020674,202.386597783826,780.747785859596,1058.44414369016,938.814833754858,1063.89626820734,1097.27188879976,929.037078779106,1049.83756645252,866.599159781705,948.641532436197,1114.95025416102,1114.68362954677,897.631909766319,1022.32351156435,878.293360928227,916.116339238222,1030.55518248784,1071.09526697741,831.587307128941,999.834370719597
645.29813498151,766.146233173584,700.276519436213,534.302862825019,866.94024147944,892.464411036338,571.857337435644,708.756478761182,683.49533270247,844.001310719486,758.515892057998,595.664551420057,620.328060966904,792.233002485239,642.09545035341,718.462368416052,-1706.37420392596,916.50577339563,932.406405623334,914.602257309616,977.960869552805,858.611181479177,937.095765998905,1062.10807255638,923.345983645434,690.42866748452,404.641963735468,453.762208685754,485.936451685216,760.224263164054,526.683016734812,719.038512162517,1484.01679627688,0,1122.41579244338,1200.60366060633,1259.29417731333,1348.18731792364,902.650892510993,1504.08650199909,724.034262777148,1012.87185275789,1213.14204865838,563.980948336346,254.374401619807,683.324468205822,939.920731372839,831.343735874675,946.055580659845,969.149469329482,821.70843141888,929.874173966971,780.30148381853,854.781887828383,995.64874667092,985.617415429294,806.633309631676,905.60220242167,796.683651151664,824.641070677681,930.082083364139,952.243411657706,754.491362403323,891.36358576763
492.799183713032,608.514984839387,569.909058017716,402.113310880593,682.560731357848,746.087513101967,445.623158343673,546.761630191369,543.604711242593,652.658404166917,574.806277965632,489.046688223603,480.68268535748,620.670747119809,552.654685892275,574.563492943298,-880.894966819364,796.405477263052,746.076587601254,831.581883965749,825.930145752591,817.585943333934,880.492770411597,806.210456129364,978.985393865647,676.269320797738,508.026895313658,584.971157784723,-9.01128082327622,948.334977012412,292.210949758035,375.635287094452,1717.68697935019,0,975.359910941173,880.592283954607,1712.22391262843,1344.9346526819,850.126290533621,1282.37762027708,338.068366477922,1223.73774975677,881.54930418917,493.419714856668,368.144204821876,513.752031951048,708.453115339478,621.337411371536,707.595435876392,724.081189006146,621.350190126672,698.280758459942,604.678980413598,657.380383905664,755.061307762752,734.260212690435,615.42136021075,679.09367928207,623.465408077158,638.410034631794,718.298823730158,716.070967453492,579.486574007825,672.377244293473
453.352347269839,560.857096989822,547.085048623176,345.20775963634,623.867906664588,740.785929065519,413.659796536628,476.013539519577,531.056518641929,616.401927857085,509.70796633886,489.496269210745,448.026688766038,568.103363403455,576.318903941292,559.027939744928,-1114.3521100143,840.599225530744,729.899619193234,906.541111332865,921.275509982623,978.147287763661,1044.88558798178,848.582257490176,1218.72219163573,912.627853114561,783.507628838742,888.113350852454,65.0305211174699,1191.35576032249,317.079995656561,348.668178752486,1897.89909251627,0,881.493518569488,712.637301718491,2183.68499383143,1246.45162509813,886.745887231402,1155.49727320202,211.598950963641,1537.42863923563,691.046975158585,674.525408977223,617.801168807437,467.119763584257,635.881656291265,565.98999315458,632.531784169389,640.592812950796,573.818428448567,624.834132714302,564.374249625244,602.9957892934,687.667742874074,652.298086411309,569.92969223515,594.575479756194,595.250630140199,597.316522933395,654.428584991038,634.639144074882,545.903308967375,598.257101614143
719.611840621115,825.661189535447,818.618128003974,521.486737453269,924.100104190265,1103.71281252704,656.29935065846,680.425594438772,852.638586108394,970.697147267996,784.729559281292,761.68217574659,696.65147193657,851.222194303957,878.726870852954,850.543628934778,-3330.12748912635,1237.587226358,1112.30251327747,1313.189727425,1418.45851040228,1470.18333131687,1533.10333642759,1451.45336217186,1728.50563142564,1474.0114537886,1158.22170274317,1497.25852459218,1057.35137299035,1587.65825605904,972.652102881819,1052.96448029863,2205.73640492959,0,1182.55782766416,1155.66842685277,2743.57166763003,1364.52542778768,1210.56731335766,1475.77337008809,732.410785700284,2177.03085417281,942.995094963587,1363.29141073839,1104.10826536797,727.981334979001,962.331843458029,889.603877753111,969.539412615049,964.026628567261,895.604626516946,948.657467360033,863.526291894315,918.802715036675,1047.62711282937,993.408715963224,887.756197642151,876.164430104476,925.992422257867,910.452404389532,963.830686740415,948.601087670771,866.79091989503,895.094566860485
1103.65391589532,1228.05769250604,1208.20772501448,805.164249007823,1379.14942696827,1611.31858153615,1012.93270095296,1008.07084993706,1296.11733672591,1476.47684007264,1215.08369547162,1127.34868820144,1060.83124020581,1279.50475999928,1270.59763435793,1259.95624917845,-5889.924244817,1742.08200830747,1658.96301627463,1798.15564576838,2014.5307984734,1954.72936712675,2081.10691071118,2250.08923302339,2260.3357883403,2110.55915180848,1389.58256690111,2198.98539041979,2373.28075177125,2005.91225212581,1956.20542435283,2128.09253882755,2635.0440014788,0,1688.71544115667,1892.02767949276,3347.5852416615,1789.79179978827,1617.18319802945,1986.28065278851,1651.86859484991,3052.81815403507,1398.8210803416,2314.71323516485,1708.52938221047,1105.89817318108,1444.67694195032,1350.63505616838,1463.97907896455,1451.58267370767,1356.44604678092,1431.22698477113,1296.44472304835,1377.06627960907,1567.60574032837,1503.57639206775,1334.38440724813,1305.86890871866,1392.394257852,1350.94195444451,1410.29880297301,1425.46311847772,1318.19486326953,1338.85421999582
1163.82571660255,1316.71984844388,1276.96835339961,845.085918235139,1473.02936948758,1732.65308084371,1077.30657616951,1057.67360264069,1365.85043267227,1577.42651363616,1309.47433147058,1170.38263080927,1126.26720356361,1368.00383120367,1309.97377418995,1337.08532616457,-6112.63838895286,1831.41785802306,1814.24252057776,1813.07458787606,2156.72895075906,1819.44436795465,2223.10221418347,2526.06399099784,2327.84339292612,2398.83712156802,1154.46709866315,2489.25877928597,3012.24375646207,2002.1933540326,2485.08092714032,2770.108809097,2867.8420402779,0,1725.64585145807,2112.84956171818,3817.91562580917,2203.62495592951,1558.99952875051,1974.47925096416,2363.9603800156,3735.43734570626,1525.17878499087,2992.42439041773,2088.06781185794,1168.52978773036,1538.70119354983,1439.28584325523,1556.76364338252,1546.30405360863,1442.84940941643,1526.02522875152,1382.81648051641,1456.63904282415,1660.59906314698,1607.9605300731,1394.90710766305,1375.0525323081,1483.60468824284,1417.37307698604,1473.68690587618,1520.41414755152,1397.54765291542,1411.14141696944
740.344245046142,905.196221440083,858.057482526001,485.019848981951,1001.74378378223,1274.72611800174,687.243394806156,655.080249659464,896.88096275244,1069.65765816676,854.540945758518,747.443857524966,721.191835799412,919.793542756542,848.74925692631,899.827174292044,-3771.67487328102,1318.03814745457,1341.4170242152,1193.91795452342,1633.35086430126,967.781226869321,1763.53451699137,1980.1705261443,1766.83478785017,2104.54524771877,429.705303530461,2108.33867152651,2572.28996856818,1325.0439469175,2131.17542904932,2513.93332123505,2564.28038637369,0,960.771928017876,1432.92889227208,3827.61857317157,2209.88357296914,822.697761096432,1089.02139582607,2490.14648789599,3810.42828144649,1081.65719322102,3054.42694879335,2027.2416677228,763.506065618936,1048.20060125215,988.414471728168,1051.01154466183,1038.90954982772,969.41318850327,1026.84324152385,936.831618556503,970.597758052885,1121.72171548544,1087.00685286953,897.24963597858,887.909268476534,1009.83798453247,931.452870290089,973.619166943915,1021.31930560236,929.144716584266,916.31451685994
138.880226568979,294.129787975886,269.29885516238,-42.1477614775328,312.572362925762,620.742779104976,118.838958616327,59.3828352700354,267.066924061059,353.068057696071,177.20623281938,192.584360310192,139.482054425653,263.079733261081,257.325550563854,266.710037913537,-1340.93396123376,598.430121163279,603.193755435511,441.710698120484,818.102240227778,92.5863988042514,1004.94999735392,1017.78453389868,1019.19762832567,1369.20122200195,-292.981189834257,1321.15213323655,1496.43410436512,352.409177368669,1149.68307298837,1524.30875462206,1729.14643409073,0,-146.288807421578,193.932936001513,3129.84066115763,1772.73875727289,-118.624486790339,-280.281641428439,2012.91401254957,3207.76481484905,269.118408706213,2536.08440353866,1648.09503202087,150.143044080748,302.798637691756,305.141989966828,290.265721089609,271.2603332596,258.564114632721,267.77528631899,260.085818605492,250.787828651503,327.894004700712,292.795309357019,186.594481672775,163.68812897051,305.343450644032,226.679171791229,252.886821326258,274.13494312872,253.237527206608,192.843154872432
-256.388212765013,-114.1324131739,-95.769636477519,-396.506911061253,-139.996811012922,223.506662864698,-260.642224883689,-350.045935923339,-92.7015878528357,-79.5569881058798,-260.112659495958,-103.106149678569,-213.125599353821,-154.605551356135,-32.7514051134224,-113.700092550722,-454.559075800078,192.420401093952,148.04538468114,124.922695120262,296.0104137086,-149.968797280999,480.694983113763,342.204381646795,673.210787948591,662.039592170431,-449.484097330318,686.975834410289,547.020597214393,-200.791417835195,166.046727213037,420.822911118582,782.365859938172,0,-851.691884527821,-876.346393892935,1951.5048515004,1233.30736958699,-619.604955868282,-1420.17672474542,1199.62429541048,2241.36452609737,-531.285589332096,1755.51146322187,1234.73844709972,-380.850676962546,-302.399885728296,-263.130180825121,-317.262923481083,-332.459877050417,-301.913382148878,-330.648014177363,-269.879588967562,-306.139155333912,-268.438019340124,-316.035937134177,-341.288596102747,-376.3978901434,-213.177586778541,-286.460241565183,-264.340077877797,-269.38363122477,-223.284813701658,-325.394852946504
-392.455713415005,-251.901422143258,-209.548099132774,-500.657333419138,-288.043525799287,91.4060706812929,-390.978181463457,-478.454284105384,-178.811087789734,-191.383460326812,-374.574047343752,-147.891831029029,-277.202913647526,-256.425867439897,-33.6972204487042,-149.649293101211,-27.1333029412015,169.933190000873,123.868196342432,219.92028356262,287.493710573081,67.3774249517508,445.049332781693,310.875374932595,811.189094643836,466.703659888464,-60.7853324712047,584.080119360817,169.081024903127,-38.315223765993,-285.511362797646,-204.053968956459,103.229462490564,0,-909.114968629706,-1254.47114653856,836.816811907854,833.183792152283,-567.560448833603,-1923.47736157158,517.180130221431,1287.73289866919,-1013.64836419863,1070.15666467297,907.885775803022,-770.856898957864,-684.758529751678,-644.439468249768,-694.842452599338,-685.404375604102,-638.741399566551,-673.016894535249,-580.054775864895,-626.435144533393,-583.821107911467,-634.813354768089,-628.47228399077,-626.795071053214,-474.183896031946,-537.213567610873,-492.939953954473,-522.868035079307,-447.402245064236,-558.085471341734
-452.300905560478,-295.870205415692,-279.139929069931,-506.574162433602,-350.812517664033,-29.6652718860392,-449.072025934159,-491.643950146111,-241.921003866469,-252.372778751487,-399.792075509114,-193.407129473872,-278.977248877408,-271.85472253108,-40.7390319732259,-88.3879498008896,1376.27478105502,207.882149321208,230.789467778563,302.145858618605,491.292956352554,166.891037367424,658.009300389574,631.18866253976,1035.50315054536,786.801016519262,375.413085181892,898.898367421905,216.06856818742,469.260558812113,-139.031481457472,-306.16453038162,-361.392915938444,0,-660.280930181494,-1041.06636973458,84.4997155061669,487.387972744842,-354.513219398628,-1890.5705903884,310.211231019632,514.927442306894,-1055.75534052661,651.029393558564,614.121336117296,-1009.07709007584,-905.678238896569,-871.325741222139,-920.183270097264,-885.780710838238,-831.473439789297,-854.548563628282,-754.137939207218,-799.130604506554,-742.653265029721,-798.345901634662,-781.636949720278,-713.371561175289,-613.434994153679,-657.121417212006,-572.997263692551,-657.245964411541,-570.366974849851,-664.840644038973
-472.260632701469,-283.617004721858,-333.059396323831,-464.524848066896,-379.286213940297,-173.281796229466,-482.62516492988,-455.106235235113,-326.033943029455,-322.195743900217,-411.57794743944,-281.8102106871,-300.009146287927,-282.620886749759,-124.034798136698,-76.0259619315023,3269.66050847077,135.163363039337,244.880046170077,211.580158000807,539.687930608616,39.8008890378767,748.936164067843,815.1426243756,1082.5714349127,1136.83252592236,594.790118590058,1231.36146920907,343.0678683771,848.674849924756,264.454944817834,-228.333050416654,-695.330839481886,0,-446.421079410772,-665.189579855808,-309.308522300482,212.558838744559,-261.041829608146,-1605.40288957959,536.656845644823,32.8095409857874,-708.318274349999,519.133691637986,437.422977601717,-931.820466788746,-866.997150331251,-825.114019958734,-889.865722724008,-864.411426448858,-793.760135543531,-822.512303951911,-719.738101339947,-753.091139124199,-703.06701757534,-788.3242226896,-743.925536691926,-648.419750036627,-604.379327852753,-616.020341172347,-505.164676877569,-683.716308300937,-570.76082534426,-651.377931182775
-369.229684710782,-151.980028269453,-279.525255778199,-325.893811675487,-274.258730968379,-218.351754353324,-417.832377582494,-321.938210057317,-322.581613005531,-284.730844097384,-315.503784929306,-298.149131531239,-259.381254229798,-204.299442882418,-158.201051435016,-64.1671539387724,4457.82114619114,42.4670567480518,212.497374991028,104.155817456173,361.476095601093,-29.9597966148139,586.619076155173,719.526747742231,1005.46839023458,1095.31160165683,718.892356512947,1284.26330472478,444.710879575863,976.668849183614,555.532691015081,-196.885588201704,-677.670090849766,0,-294.332684685015,-377.907120911458,-439.761901601019,212.845072566474,-223.455015956714,-1229.3092007895,858.976169987054,-94.8568355517753,-174.493235871131,579.361913256491,502.669339579688,-479.763086710402,-508.602457213032,-445.541006883133,-521.473731162003,-543.704854500683,-447.514997424827,-514.282485694198,-407.168729351327,-420.724769252795,-400.019849568755,-526.653169447124,-448.301393983954,-390.958998399471,-368.601588147057,-340.889496622921,-235.314018041297,-506.62230499046,-361.277938307416,-441.314352523684
-258.527346130971,-46.61993874655,-232.790323272724,-213.703186484792,-168.670462606648,-253.9026063576,-354.920309531245,-228.513723580545,-320.979830433391,-254.041549526276,-232.978129450018,-314.14792958775,-243.898564991218,-150.132891077922,-200.902078047165,-109.908545199035,4973.92008878553,-87.1799091905827,100.628160961083,-9.09824228798936,26.0293851567782,-15.9574069033888,207.90232232436,413.572784513185,788.898629056446,634.083018738554,775.236633163682,942.107918593221,474.026294208827,860.939967220133,520.509187735864,-319.146155311897,-322.168377798294,0,-215.046981091647,-245.620805678303,-595.901156898367,350.555866666122,-213.513054071326,-848.332245925488,905.490033932592,-119.315037759804,258.227552387939,547.903359795056,570.956892191521,1.86358410133968,-151.101847958685,-49.2646900394607,-138.456696099137,-216.994572763241,-72.5643799259893,-209.894437138141,-71.7299476013511,-81.64603773761,-111.657046247253,-257.652911699244,-141.370827037338,-160.955231259747,-114.115616844627,-63.0707243029433,6.78593557047925,-305.223178510045,-131.276587422481,-230.526156575185
-305.496240393984,-134.978767328884,-333.158603003492,-266.334734573582,-264.221628121699,-413.899483422823,-424.021112294699,-326.442048178974,-450.487148593325,-401.60463922638,-345.849276294427,-436.825727331021,-375.124481104753,-280.606942225481,-355.610297554791,-282.150510844509,5658.81972974427,-306.391561767723,-150.01807728307,-218.601075676862,-313.408787047093,-132.859316974944,-219.153241317667,41.6304001798685,341.163795561923,84.6083433007479,572.542453981302,292.120196990783,406.82237573359,439.852083629772,260.708647759808,-531.215504131717,-1.19899833342672,0,-296.324223616885,-158.246202664112,-971.535702832602,342.683501927437,-377.473967074271,-484.83847949913,626.667015368408,-267.59952975152,467.637867551784,265.211854197639,371.733561260881,118.54568284844,-145.99624081589,4.71171150275163,-120.571188205197,-228.424360468493,-14.7370752641916,-231.290120655747,-20.9384893792902,-65.5137735748654,-156.459824517717,-289.027080918054,-114.807932193897,-211.125619617366,-102.291948992552,-63.5833142240465,-47.1854274225445,-343.818702879956,-126.821501269974,-271.965616310595
-367.463716080218,-232.774516245292,-408.331614753627,-311.694540140739,-383.31050758433,-533.883245259996,-454.838567280977,-415.550094695539,-542.986347689969,-532.944432337879,-456.476583340578,-504.594713824067,-464.515386643875,-388.858451133688,-451.059150932725,-363.532748270361,6743.53761934496,-394.64072190838,-271.108577209265,-388.424927752678,-348.964918443998,-395.61479421114,-383.964630238928,-40.4771017864062,-203.463985241829,-99.5832436127924,-1.51930773643975,-305.142352417152,536.105872877557,-228.851665737713,258.015787999451,-311.802146737609,385.602705459702,0,-362.120968922171,287.270718521054,-1030.55500007765,486.628686210422,-660.50426425052,33.7225820232545,472.491508788551,-161.61203564711,664.963782004816,79.6529460431838,253.085951895328,-16.9680729827373,-296.953795740039,-137.567820691212,-284.888857575463,-377.154881033717,-151.644864961327,-384.945592934147,-138.034667676574,-220.864165697844,-341.838561570916,-432.589722336287,-237.688732698386,-357.142131277262,-207.595083331668,-190.733418933534,-213.416058976955,-463.639679417053,-220.770076960548,-399.52191037137
-196.263418203751,-56.1157813724138,-226.690775144531,-100.150739689731,-201.857808954835,-393.859334619225,-210.5786143361,-207.151562003517,-375.309683579266,-354.73138822525,-240.458393984236,-331.056961459046,-261.650038982008,-166.547859495871,-296.748360331026,-129.506084628415,7798.30851842777,-169.506432318841,6.30486814368118,-371.11682861356,-0.817439261390511,-663.376402154413,-216.792561244436,327.845075064898,-636.734034990905,121.035303159954,-873.163138567816,-529.478903314634,1011.11624270041,-933.320708789607,759.716868472848,759.23538659769,1351.64580064463,0,-61.3027278601728,1335.44952604775,-54.7778163612812,1241.29345432355,-756.059212271871,871.195893792177,887.860632367292,658.630818472543,1094.12767879989,427.320433402132,769.778469130007,-4.93959945549776,-156.592314179977,-75.0771748943039,-170.933010458596,-212.994508540964,-109.841976890871,-242.993539715258,-93.9846536941479,-159.177911993879,-245.598481029317,-269.485662910335,-177.918688740571,-223.972981005514,-134.084681027981,-99.8959470252079,-109.02065741121,-292.649499012976,-124.956864205267,-258.379496904183
137.63502995987,305.380765523904,100.596762391722,277.161763874013,199.85278908352,-111.310911606725,195.183401987182,192.74665604404,-61.9561375949727,18.2804778338269,201.082468805576,-41.9912795094267,109.424011061766,263.360236869933,-27.5900872229615,240.47624163876,8579.7631840442,137.618469721016,431.34576752453,-280.283691725653,320.174454449733,-857.944744602604,-57.4461034243176,642.519668517735,-878.822093577504,231.434206686761,-1744.01539021566,-492.710137074534,1215.05635034311,-1453.65191204752,1217.92674265939,2138.07518401737,2663.69206285999,0,561.218249509219,2514.89680072862,1620.11984673287,2235.08386171209,-581.409345020691,1771.37525589013,1651.0688293104,1783.16834572134,1596.66683675961,1111.4960562268,1726.38148762721,197.585464627767,239.189741775986,188.494984051033,205.369785575429,216.177877095108,122.377949339385,152.029477134552,110.569465721416,115.307207683215,98.3650248252533,150.821048405105,59.5603549503631,142.779889951457,88.2167974877658,179.889633152864,230.909170814538,123.774239106876,126.614717411287,105.844445334904
355.850322403632,533.608506305063,292.232599941284,525.744528831969,457.714366837904,36.9358789773789,456.838625879106,441.281175685442,122.019533472017,242.202063232254,485.095483065417,121.097543572602,334.051985573682,525.311191527572,125.819697782736,421.722275934212,9114.49649764367,243.726703927798,576.64759134162,-212.181591235699,273.033752187492,-870.227247857942,-94.2222451788914,381.627122820663,-798.332341142809,-45.0895346093711,-2084.20432789135,-428.188149646443,558.788133272416,-1514.42927180662,1016.04389601232,2807.78237193044,3389.18004837567,0,1022.18890990625,3069.0589316074,2867.21100851116,2591.75995147469,-356.948730018808,2194.12719181293,2118.03874023647,2301.557699219,1761.90434659383,1498.197395294,2316.35641243966,313.129585986642,471.277217669607,318.369503368948,432.333803983612,473.290170444056,250.463304436714,389.933307540418,216.032974402683,281.140263300499,301.591683581994,411.807676880349,203.146243209767,372.068864961419,199.502264255512,344.385992309773,445.638789460942,393.58959898579,270.196085217031,337.310271903659
351.962993155045,520.081251704097,270.961556178973,538.016186220933,428.934917533675,-11.4870245095957,474.755294443479,416.817977754084,105.954883623006,214.383339786595,467.30819787184,116.340304484467,328.948710358024,503.210048639739,149.13470930386,378.428101587096,9213.51238727799,199.957731393643,427.107286266611,-78.9812352287298,42.0749385351156,-604.954971772636,-99.5822313934601,-191.848087660399,-324.824387034109,-312.085738763592,-1588.6710079904,-266.264548409438,-437.651500244253,-952.293877004812,380.171441496756,2456.82160622701,3190.09389545034,0,970.865373158281,2785.7441933738,3082.90435458133,2066.85927396396,-173.386183764985,1918.83324904678,1986.69464424826,1966.61027972022,1451.0509693291,1329.20561216701,2149.17904526193,254.59438540486,398.660469378285,219.852119552091,358.57327157625,407.641704043523,177.424291700696,329.684925647848,147.518975915375,226.937671358667,231.824150455021,359.504068237951,157.073197101646,326.825504441043,130.828316066024,294.480519393184,396.876229348407,358.185542105313,220.374986930142,300.735004625895
191.850000728344,349.127729865336,117.127264898121,385.276705760453,209.425738889037,-167.023017366265,326.159614192775,208.791752812448,-35.6957952771929,32.2119249317903,255.486924627887,12.445432614525,182.737926729595,307.064244414787,99.9149548417824,226.212690898717,8648.26954630898,111.138292573523,180.361400797179,72.0817194631129,-134.842819023545,-223.808474720334,-14.7416094675315,-567.248192300462,168.226746487381,-324.254527352636,-627.029564145205,-62.9667943473413,-896.142220183091,-199.761118972378,-219.426088614836,1573.66699729456,2508.8104703586,0,439.13401963319,1949.76996401814,2464.98493659616,1095.84124985897,5.39531067962901,1206.92981983979,1406.47244831732,1258.40877104672,856.509488973624,861.389234068289,1492.00845677707,134.802764988361,188.880062686052,46.0284510513212,143.134554272727,187.00485908701,13.3669868873703,127.090146954811,-0.319315321698944,61.485403320122,33.6123329951918,138.424292071953,9.30078875700437,127.64028635816,-21.5536043364933,129.682478676755,199.893606104348,148.095201368322,60.3209143269061,108.134462539154
-92.6231561062701,41.7658499693902,-138.264904903478,98.9047126133806,-159.155464842134,-411.743451564609,42.652102129965,-142.048743508479,-281.216453360507,-276.92798122398,-99.5759680376159,-183.065012710305,-83.4373569837083,-30.9877864208719,-59.9884026768671,-49.9083216123304,7659.46615009185,-120.22546085703,-180.870372489936,2.43477129575594,-403.249731057779,-24.8133732502153,-191.188284886916,-844.981680791299,134.125862455104,-516.993571051462,83.9179700176801,-312.614337178235,-946.835676395526,-50.6604502127803,-903.563836905713,643.452030935798,1558.68471777524,0,-363.058211746131,773.797143489518,1318.04902189292,-131.846425860173,-7.16842117456343,360.938793723837,528.076070867168,417.601572933472,113.784125519524,255.954331219534,497.82106193012,-91.0129337601771,-156.913307187557,-222.519222914815,-199.346852925238,-177.849008053084,-262.653441984452,-210.026516589177,-258.636605310897,-230.483154079989,-292.820402953847,-233.812413486897,-253.062429307557,-222.673004841418,-275.821240948928,-160.592552301224,-133.014354560277,-209.265764460026,-213.104405787391,-228.128386356944
-490.383807849879,-416.801505379666,-479.661866747963,-317.992783947076,-684.733779961833,-743.522082797762,-360.385136607114,-627.425588164507,-612.302394767875,-715.256949946028,-610.486153844775,-448.390819430711,-459.459755526263,-519.517642858249,-321.064398087606,-476.448949691925,6693.12488157484,-542.251323218665,-732.35171025501,-326.45757778954,-933.011400445373,-81.9400805294125,-784.294042712132,-1401.3415908097,-443.904430601787,-1225.86454075278,221.460018906567,-1191.71738743786,-1302.04122543541,-663.905298361072,-1801.51262567299,-276.247033471008,130.831875664593,0,-1168.93303963317,-634.413401203711,-203.270865265661,-1801.68340420295,-398.16619146191,-556.371212226959,-600.367997140797,-775.600811821508,-804.533834085472,-633.546155102422,-1014.83202819084,-592.947270822547,-816.472760707307,-758.375915482967,-832.019676104195,-850.45442020166,-770.526439023898,-829.382331999989,-727.323804551404,-757.424172214248,-882.850712803047,-882.118117552907,-717.695759405944,-831.365675373284,-708.246530163463,-660.55194691644,-694.174937235238,-819.173271899116,-650.087357388493,-793.455524937405
-897.267095468055,-909.677596604023,-813.862772187486,-758.093008183479,-1234.6480649079,-1057.04606453362,-764.31930708647,-1121.30995056656,-928.947712223218,-1159.43153662909,-1150.20262710207,-685.478240015508,-829.309287788565,-1023.46013440668,-555.954654048338,-910.317482587525,5850.97997198619,-966.563085518872,-1302.40643782101,-658.587398725906,-1524.22297834408,-202.255777693771,-1425.20446564906,-2111.14176915642,-1017.16134154231,-2053.44338467427,92.953265942094,-2091.4703500063,-1976.85969033017,-1349.91802637721,-2466.53619770496,-1220.66659795945,-1557.06511397132,0,-1723.2188032004,-1922.74636412307,-1707.87871266962,-3548.71635885808,-927.38939674298,-1473.67979580198,-1685.71509818017,-2157.07461909964,-1746.05785436698,-1707.48690164455,-2744.86126007773,-1281.50811719293,-1675.67482475797,-1467.51995996902,-1651.82899298566,-1708.77721965185,-1404.93927572939,-1613.14983538014,-1293.2755259771,-1401.20147262458,-1612.76682354884,-1676.46837354177,-1281.28769216056,-1565.52097963276,-1208.88555818244,-1251.12223816289,-1363.41252043565,-1559.42326281678,-1141.45180775962,-1462.70814022187
-1162.46251489775,-1233.50837579172,-1034.68857884559,-1043.32225509827,-1578.87664917248,-1238.29087284433,-1012.9776658968,-1430.32372255348,-1127.16587647384,-1428.87884370758,-1478.29376798266,-829.670232100825,-1054.02139558501,-1327.36813350351,-687.106277538228,-1157.0998369858,5119.75118155025,-1187.91690025458,-1600.08065441832,-810.997873482558,-1818.72272418406,-251.263747943605,-1693.70108016456,-2454.95424140101,-1205.90780029688,-2391.80937694357,63.6108306353391,-2431.71109320986,-2321.56454585752,-1558.5442107392,-2546.18224532761,-1884.18381960204,-2734.03031093508,0,-1992.5812889644,-2579.10031274479,-2619.89011807572,-4313.05211002357,-1244.05968518691,-2122.82149480987,-2199.20992268753,-2992.54542383032,-2294.56962778261,-2416.93554351246,-3699.41604804292,-1761.29249555546,-2251.50312011756,-1946.03688510181,-2198.23730067077,-2271.11579102993,-1831.59396377908,-2126.81531376864,-1662.34817861821,-1821.19001985353,-2081.20909312735,-2185.61022072603,-1656.29852125279,-2035.9303999555,-1530.93291363215,-1632.88546111244,-1796.34239198854,-2035.05333565913,-1462.52939540298,-1892.86046621052
-1226.05185732333,-1293.87828771554,-1121.87784309006,-1089.02082570314,-1627.45622059881,-1293.29958766143,-1064.0233443739,-1478.49694627092,-1191.01991771838,-1469.4048119024,-1491.01957312901,-909.436126375886,-1100.1137222929,-1350.11651453948,-763.126042671205,-1171.78843529785,4778.87585630757,-1214.20426653125,-1534.91974314347,-879.882421047291,-1710.63638400783,-374.100308511633,-1585.29765195732,-2193.11752266724,-1232.4189401355,-2134.3312828189,-7.51199081195207,-2346.70633757993,-1961.11637274658,-1512.57151911772,-2234.73591956683,-1843.9762267553,-3042.95186618378,0,-2155.40434618375,-2440.43699647186,-2879.49942134861,-3598.57235416596,-1396.87018550752,-2316.54228708455,-1999.74005525047,-2952.05514686056,-2247.71968013825,-2451.5381279764,-3294.71245847349,-1773.83130386201,-2237.54640366021,-1941.55316991838,-2174.94413406727,-2238.9689270915,-1857.20515578933,-2107.26044810603,-1685.55550299711,-1830.78587635819,-2067.97245987782,-2158.5319827213,-1687.5213626034,-2023.49067768524,-1564.40419104779,-1654.9929492817,-1804.01300557653,-2015.84395194047,-1509.58039052621,-1895.7411105689
-1118.52261832844,-1141.23897332573,-1102.43285044637,-941.307240402319,-1464.38243403096,-1280.48296694404,-974.81133246832,-1330.5381173552,-1149.84964955685,-1350.23597666041,-1283.21994931467,-947.367396114748,-1012.78133736597,-1172.71293508125,-824.790424589541,-1041.5252103851,4984.51654754828,-1171.18156139253,-1247.41960020036,-1018.176081947,-1390.64310505656,-765.988306451703,-1384.34207395572,-1563.09055725747,-1475.23599631285,-1640.07294286663,-474.380025983859,-2184.37202147465,-1173.44482519001,-1617.93578420157,-1706.64007317574,-1151.62867365922,-2855.65532489336,0,-2225.41811257511,-1853.579123976,-2877.71413410259,-2090.49917448264,-1566.38090788661,-2104.09508435374,-1533.74979727284,-2434.20941918319,-1820.78754018142,-2100.04036602934,-1976.12243305448,-1421.82061126097,-1782.51698984501,-1566.56016413,-1726.76799277649,-1772.44750036548,-1566.1615209198,-1691.04786460086,-1444.6434487682,-1529.30242931325,-1705.86115608346,-1741.86439123705,-1452.85744221915,-1655.08239697313,-1378.713461464,-1406.08801217907,-1495.84281800148,-1634.01850762198,-1336.77928633022,-1578.99799650095
-861.714469549831,-837.288006360537,-959.141191887309,-657.907103815956,-1150.32438026628,-1178.36509297937,-764.158467748704,-1041.6562856459,-989.826773082296,-1103.36779830108,-947.21166118541,-881.643160239406,-803.002717300683,-867.144054163258,-808.548257549329,-816.487206940969,5293.33010975673,-1078.18400719603,-865.20139232956,-1185.71400859847,-1042.1179619167,-1349.73338731513,-1244.80773349925,-889.553973566126,-1907.3788312812,-1185.31951381932,-1318.80456121566,-1855.60859679715,-437.801819007392,-1786.0423380794,-855.332243857216,-308.025304208135,-2472.17634610941,0,-1923.43404868266,-1254.20769693158,-2551.36985005941,-572.849255182138,-1618.58971031147,-1545.7606894083,-1182.76472321136,-1720.29857210265,-1253.1123428781,-1674.8508227734,-434.923637523733,-905.941953670661,-1142.21916480039,-1019.44843511872,-1103.41466649153,-1134.52648888677,-1095.2218866699,-1101.59060198482,-1042.51962055903,-1056.36906708046,-1176.29317286069,-1155.4056068762,-1054.30501893802,-1119.26932177278,-1040.45803829164,-992.670150266823,-1024.40505891227,-1087.43937657332,-1001.59516855227,-1096.94002186879
-506.385565743297,-447.602870634145,-695.496149110844,-292.872244524919,-723.546930652386,-946.92914825862,-437.544404716664,-650.809802777005,-705.156941556913,-740.666528645197,-526.195048049077,-670.469228052679,-478.364068806945,-472.649324904938,-658.214293860524,-497.056392685776,5190.31702809798,-873.061125262986,-424.583336127996,-1242.62084131228,-681.12918525681,-1879.8790972387,-1071.77975872695,-287.813638876158,-2214.04442748112,-695.587609483907,-2204.0373477668,-1090.16034592068,152.242517061189,-1704.66806505179,230.438717838748,289.253369069033,-1812.41998389162,0,-1082.28281769167,-808.731527537265,-1533.27178170685,863.451657746223,-1360.52346657116,-727.512105212139,-895.68284831672,-735.354472597083,-655.15740751607,-1173.96147821125,984.258888593382,-384.039823161433,-485.51957998509,-449.11007615184,-471.030333006848,-489.568522661001,-574.07859239963,-493.12572033182,-575.958967207976,-528.34730664242,-604.538135725931,-544.542147662117,-586.993209921096,-548.89358579032,-616.744803712144,-505.075708407483,-502.951904768971,-507.919868052784,-578.47540811935,-566.500699057412
-215.571338621552,-134.96386271612,-449.704012738747,11.8245747490592,-365.916786363821,-684.553991141448,-127.130536772678,-311.64320288529,-416.68835327397,-409.239120484267,-168.624547855009,-421.870317480045,-165.567398744689,-136.097912965574,-462.195203089047,-181.313879811978,4837.93196244369,-619.840337023307,-39.3264469051971,-1185.8215408552,-334.187692911853,-2214.01397016996,-807.666005475564,215.929623207112,-2234.57060600442,-82.474213529063,-2811.90951951857,-44.4194311201415,814.489169301932,-1351.23984705066,1136.18412274519,572.596671330407,-927.000344493194,0,56.3513033329303,-435.485034373238,-210.65740261179,2139.88217454269,-916.278819874152,48.8971533009922,-569.453161733154,283.881665505252,-199.985296024477,-646.074725716028,1982.165629966,-68.4836281651063,-46.0273734216992,-73.8113251271007,-59.129150267401,-59.7236106037715,-229.578563282572,-88.6195501405113,-252.524730686856,-166.847285884618,-213.965338187835,-135.132485581162,-259.495069954871,-157.616090227041,-296.567338639315,-148.574530744639,-138.525551485411,-111.426869378628,-261.079929633015,-194.396594949404
-102.203864665983,-19.655872657127,-344.309705723429,144.075067624364,-235.515988846936,-526.142732886051,26.9191979597905,-161.567656099819,-253.667966429989,-256.062842340358,-18.4875426806206,-257.867112606242,5.77268577120243,6.8271904145829,-318.634575901006,18.3338387875812,4768.94373003305,-427.47690289997,164.940353233398,-1043.74393453654,-66.6861708357829,-2203.46134405738,-483.758707343739,581.107151514458,-1886.61638143773,578.080760079061,-2766.8874463243,921.52074768668,1575.82263089562,-758.729055686862,1625.89091900118,740.638165996707,-92.2460365946611,0,1090.79008972326,119.868711890977,519.92238982114,2791.54173852171,-465.666713026704,528.988760135324,-250.486583303171,839.146288493863,27.7231042669238,-270.845678763856,2327.25089006405,-52.3043442508689,36.7574424933594,-17.4773152747218,-0.783017377873044,20.4523123417804,-186.372740039813,-17.3341686298024,-205.213109000425,-108.298848301238,-148.531988673164,-66.2221963454654,-198.515877567367,-76.8415216492734,-218.036495892459,-64.1580796892175,-63.880567128865,-39.4008959632863,-181.346361740782,-110.783156275458
-52.4834430642767,13.7791832497658,-286.480349963776,208.027980100827,-205.257046843845,-420.226534941075,97.8101856756476,-91.5595713460657,-145.670986145094,-178.682246111469,34.089071968326,-118.745309643694,114.7756111313,70.3183303648081,-146.095697046873,185.794645111281,5043.01806454718,-210.398477266396,293.646996525553,-679.697468297122,207.501217089332,-1613.79987738019,2.231199483129,883.430215893766,-968.934783896226,1298.65507070725,-1735.57212754039,1830.10682522689,2284.07094181114,237.203234652312,1909.47019454544,1125.57502841522,523.284329346267,0,1730.11256794141,1137.72121958926,490.103255432123,2693.19339909875,43.0119133302626,838.58652046267,96.2339822554333,900.891645125949,247.741719063276,-7.67735721152338,2213.3333327632,-112.552691127628,-20.5524591269424,-81.2958241852914,-75.8423860709222,-38.1822365900714,-247.775957749173,-70.9682857187303,-269.563174517735,-163.41194453209,-209.933885946565,-128.279902208949,-226.601033461694,-117.112902281042,-243.879926334611,-92.0596522636926,-103.169446512322,-98.8806111742969,-198.958304106579,-139.980318090499
72.7602469674116,126.630768295871,-147.683204847361,352.396972587306,-90.3514004223949,-253.482614800434,223.471993634349,62.1306870069168,27.0052067670904,-14.1975969152012,170.955089045638,85.4006775736961,292.743342075312,223.78338879325,130.805526048983,432.531149178903,5326.67572525482,117.201161308799,506.782642608247,-99.9690784540524,566.646098895734,-609.541342252353,629.176639099082,1243.92420047598,289.006201151671,2011.62954538846,-104.601636150273,2682.28800599358,2943.3008518493,1427.49894130035,2259.98490776996,1793.38824052235,913.147035401084,0,1793.90964301215,2499.01977541558,283.61253281702,2332.83718528928,576.212972162537,1249.79636030755,553.619013316495,867.862292616228,668.137281079189,328.427028713268,1961.81884345559,-21.145753367929,52.0292288565332,-18.0500675719325,-16.4379384576343,28.7386807204112,-181.230397058384,1.0873885040482,-229.432601543524,-95.3810622435395,-142.156083340011,-58.6117417556338,-137.304168345931,-41.8233429952417,-175.549573277185,-16.8086655624917,-32.4949667468839,-34.5078152644494,-121.64098199321,-59.3465152289296
180.848494798975,228.792846570159,-28.8696082408711,486.197330149823,11.0385358847841,-124.553016452002,325.058164424633,197.144960794526,154.446409291718,123.194532312832,291.981273649363,233.678432273682,431.349872357915,347.368390316898,322.274694044526,596.353478634606,5478.933587218,312.65959244748,643.805775652395,247.05033402571,759.870147493407,29.0695986170845,909.413952818024,1485.0820375213,934.720075901301,2196.4144405066,984.990457053166,2847.48825706652,3415.33396758163,1984.97452751761,2452.66281006986,2217.47227900905,1113.07692837795,0,1330.60683489785,3387.2952094337,222.021865661503,2055.17462513455,783.960303080149,1702.94781658145,908.311372442223,868.838012072215,1070.31209815142,620.283693873432,1536.98037555675,107.183177762993,159.081165533524,89.0095955821677,84.175558513592,133.686469949145,-71.4794252601027,104.798584889235,-147.274613050322,11.5909238548058,-32.6506551090377,51.4363750346041,-27.3374774785821,62.4788842679673,-76.3384483467727,84.301032155748,61.6623658646017,70.9519163794735,-18.850525100963,47.3901593056852
89.6591912616988,110.038982896666,-118.462173037677,394.412685445268,-116.740237120188,-223.736070682567,213.630887190597,90.1616078932745,33.0057346068679,-2.83954270773567,152.630183302546,135.093570707357,311.934515789343,190.52515687529,178.277057630685,412.388131467385,5299.33848763984,57.6782980636654,378.384755348028,-56.4176951072941,428.577470315828,-288.260084181019,392.901112409631,1141.62834045105,338.947613783548,1338.08656418596,756.255291400326,1758.12415404444,2967.78466540985,1391.56916285645,1827.77795807286,1669.8223578628,1089.70851701572,0,680.804968833622,2880.92166353548,82.4681467458726,1635.27869974795,442.112161675077,1767.42834484318,713.073703290304,654.602989296136,996.10344197677,522.703914916757,760.353351306917,26.3682718669878,37.3447920601924,-11.3896881767567,-24.2135838532143,25.4042582175178,-141.269422608968,0.469688318791043,-220.368472972346,-67.8755446038774,-126.42644020017,-49.8351057135548,-111.337689080858,-36.9439297964377,-147.714382982162,-4.99603723778154,-46.5200252504926,-31.9811804622314,-86.2626662274383,-46.4452059259363
-144.315792908913,-167.133835164719,-344.440135136678,108.790331706584,-391.90853242847,-457.446112262629,-57.8039055978511,-200.303705827103,-250.085875946142,-302.926976611063,-176.926929807446,-130.06209551484,-5.3772877402155,-169.650974864188,-195.345330653274,-33.0588551512671,4283.84382190222,-501.971435996704,-220.751361271326,-746.666260500205,-325.269506660193,-1134.3949950643,-611.944154369252,99.8031883917064,-840.554665568794,-240.011305614049,-322.370102410898,16.2274455517348,1071.77293412329,232.731041147722,321.311131777845,190.462105047698,803.845901265846,0,219.605489004283,1226.2266728864,-230.574764626095,898.658593820475,-85.6844811086335,1262.85783009184,-67.5865758930284,212.775270253628,401.937798408098,84.5216350617987,-155.393755786012,-209.839295825164,-241.351405545023,-279.037654500647,-269.168830518154,-229.569798505284,-331.154030163574,-236.050183873552,-398.557101016587,-271.041960663868,-347.868429432565,-291.630939717058,-318.645037196051,-279.169843519905,-340.521113062709,-225.025139266819,-287.903712936942,-281.688988906148,-262.094581646638,-282.849828216574
-253.859917390115,-288.884167758693,-421.372014205892,-85.7101120460922,-480.24320416547,-500.032732208057,-211.548213404741,-358.132490653517,-363.864976915447,-406.127019947939,-331.653519729019,-265.636962212062,-209.548052546295,-359.691297669011,-423.743704655564,-342.409971700582,2259.04439863486,-864.82691524499,-662.253373971023,-1154.7664386913,-965.151684258098,-1538.58006607311,-1370.49641190973,-1032.78427032932,-1450.72843532453,-1614.51918882815,-1094.98560480981,-1112.44941071741,-1397.79803451452,-454.798499126201,-1049.6506449739,-1204.03445706616,410.291407539188,0,134.293258761846,-139.298005430999,-400.423019944515,146.611349905507,-220.361693085694,657.510096067811,-814.396631328893,-109.55605284991,-179.768905218324,-212.744401521646,-738.122403785048,-295.593550873995,-306.57001297129,-384.246866993207,-307.277158667744,-277.06465930353,-343.592838677874,-264.81431618375,-407.357572165443,-294.158478171161,-346.970740482646,-319.042247403156,-343.417308618224,-344.102956512452,-362.960577495564,-272.624139929531,-341.193417977784,-329.996348891658,-256.815039718126,-341.603351371961
-162.786825574713,-175.682641715091,-290.353991176704,-81.9411731760319,-312.107016064791,-300.755826143743,-173.147048435873,-280.064591046735,-232.059350116943,-230.374934834993,-217.102545374999,-199.118531508216,-200.500091678005,-272.655837615417,-385.840782053096,-363.17365918747,-95.2568540546525,-846.986726837005,-709.061116041731,-1062.97026049327,-1180.04292538968,-1180.55219719723,-1611.87050670516,-1572.88502583261,-1261.48491137739,-2283.2782490632,-1027.9717282267,-1302.39937993297,-2852.45020562859,-431.224364960035,-1484.08327869991,-1767.07574237148,43.9493283879316,0,327.549687416421,-446.996038708638,-332.24258592161,-505.730912589757,64.1102595001778,404.860697493275,-1042.94325167407,-293.356418309947,-347.985909911455,-226.464569576462,-990.616182541653,-155.480088537474,-86.1163000455349,-229.062445218825,-84.3973028093142,-52.5906650453151,-136.598171388913,-35.0687898964695,-204.930264466826,-94.36895683723,-79.1592716069084,-70.4831518611662,-136.32809845893,-170.788208439409,-157.627304227037,-97.6887153327154,-159.727186600526,-113.186050767904,-29.0305973669588,-155.811874370076
-130.416639586485,-133.693211174115,-229.433884029065,-111.322091361792,-236.726877513612,-202.787771778434,-190.319667705378,-233.207788842057,-166.443503188562,-146.670889730379,-184.82912341229,-177.628784404751,-212.647689225282,-241.605951751672,-326.615243231889,-350.669843363442,-1452.44852488537,-742.184532231585,-677.497317113042,-810.564832167616,-1155.92496904736,-577.932203634744,-1576.63303031457,-1562.05932892519,-896.964888717402,-2409.23483233757,-520.394219048366,-1328.65928397657,-2964.44348608074,-282.591223215288,-1447.44167680577,-1967.68195450426,-477.528021001956,0,437.413057684881,-557.34391248245,-496.117408958993,-1495.88788250927,283.956642553555,273.754392412231,-1105.56737924352,-803.27660734066,-368.278983748575,-415.558721774069,-1457.01175204908,-89.5216291585885,-2.54610480023865,-150.982574791384,-3.5864551032467,23.0045298109719,-52.0777427116454,49.4639668622563,-115.054834479852,-24.6955555711249,31.4202544008934,29.3066852492664,-40.1376862780783,-119.788964699411,-57.9530428887075,-43.8488862165632,-116.1326137061,-37.138977494962,84.9375512472311,-89.3823250824299
-387.089278512912,-409.242793667628,-447.280090849694,-373.609351540515,-525.869916246264,-451.024361823595,-449.233514542193,-449.252446393983,-407.704861737468,-435.950482552115,-500.715942526962,-384.266917857175,-432.216220118135,-524.53843837864,-444.26145830603,-522.113587556114,-991.237076596455,-808.947023250986,-895.349605477528,-683.049751263206,-1176.5918526712,-215.843364441447,-1488.84448799752,-1569.9977718503,-774.03821601897,-2363.19619344602,-65.1632330468823,-1765.92164589811,-2920.57753961279,-405.731179267441,-1819.71881617659,-2556.41280568534,-1279.48545390233,0,183.828833069346,-1446.21983881318,-1255.47103017915,-3016.11051725585,162.849562189953,-171.657078250058,-1612.60229562856,-1860.39436150228,-720.375591519438,-1145.0991677714,-2411.97300177474,-352.648388141033,-401.545102697651,-457.196339550789,-389.629061212722,-393.295200321589,-345.524662671607,-331.59801081056,-382.42795008808,-347.949504052616,-335.504107167853,-367.022821609255,-321.507094746238,-480.504203014165,-327.805384355568,-371.716351535163,-486.977015253555,-421.696238544843,-169.206942757041,-438.337072274702
-777.527958259479,-810.74954377257,-783.988198067516,-712.674050925182,-956.3166788534,-847.017691775272,-787.429094124861,-764.368503144021,-780.208143680314,-861.16279716813,-922.897175891933,-688.158808797329,-720.615185077992,-901.265215058029,-642.455605462179,-738.823628809809,413.113574036049,-933.903413522801,-1187.89645710864,-642.149725812254,-1218.29542805986,-88.5761876069177,-1364.9642453266,-1786.0490642448,-790.566159533646,-2344.05010962626,237.414123924279,-2385.44220424718,-3473.43020980059,-625.384441050525,-2659.24770755485,-3196.16178790733,-1961.23768097107,0,-286.517455290447,-2653.47939870591,-2171.45298184995,-4369.52414371862,-117.932634228396,-798.841618290352,-2363.12055328311,-2974.65528563952,-1323.00666836256,-2083.25966984082,-3387.43000632737,-780.540205218461,-1028.31397019796,-955.46642520206,-995.433583493738,-1040.66698291369,-811.262020418042,-932.015780745865,-816.545530361902,-842.874805578241,-916.661981611365,-997.438607031116,-787.775810342231,-1023.0916017408,-776.467540549283,-867.517331441079,-1028.49417687072,-1006.28553641399,-602.376289272814,-966.05154879688
-938.296565474683,-939.772386809457,-923.696742631998,-809.811636534762,-1084.49963131182,-1028.14284784547,-897.507825418883,-825.435917084762,-940.557160262795,-986.686587587561,-1014.7770053461,-835.468577082926,-800.029093277534,-971.412741701665,-726.000508319138,-732.438801178341,1158.57608652215,-879.099395653855,-1150.64099694988,-583.938394171457,-1053.13341186641,-71.4715407461336,-1125.38973406457,-1778.53223821096,-782.965449170629,-2177.71470617741,323.328967026082,-2653.86666192931,-3871.98578106477,-771.909631935537,-3173.82687264533,-2943.68473712817,-1958.60424262637,0,-649.837641679958,-2968.16759780461,-2424.28459817357,-4528.02634772571,-331.397909086874,-1136.10050789048,-2547.71058003909,-3336.0880869158,-1623.15614037519,-2516.46644468339,-3610.16424059298,-979.854343743523,-1311.82458585076,-1171.66380396802,-1267.63966621345,-1337.11607593031,-1027.33941784509,-1208.4839621135,-1029.24238604318,-1070.57244749875,-1169.84304484566,-1276.81797196161,-1024.42113111306,-1241.92510805705,-999.503855327451,-1100.07379069145,-1254.89717750227,-1238.56459577849,-817.832657021927,-1164.80965769257
-816.314046827058,-755.049806740719,-837.536318879553,-647.87303826386,-867.957928003084,-966.928210892721,-763.164809043887,-612.001761741978,-870.137095975227,-805.284428373708,-772.254682294967,-814.145681251171,-671.252833315573,-743.336345415717,-720.200300627866,-553.855876728518,1050.8017871776,-732.187898207709,-826.165829541022,-631.297119085063,-752.987830038272,-286.094613939217,-882.663717873955,-1369.16378414117,-913.828839599925,-1732.57972759719,-146.087280701598,-2429.37815670569,-3319.78246369652,-1154.29684682124,-2791.96730175669,-1903.81054063682,-1256.26932869153,0,-926.561890474109,-2190.65894141491,-1899.53025881208,-3309.00660302985,-579.916393762308,-1172.47301005588,-2028.91911861686,-2672.25921871316,-1462.22603273908,-2204.23331668277,-2853.37979128067,-858.862922892149,-1116.31900391837,-1000.80530010303,-1081.96009726453,-1146.40957190041,-914.587574851296,-1034.8715890172,-946.066355321884,-956.624738101847,-989.415726835762,-1076.16165123448,-948.82398365802,-1029.35179183224,-923.395095258732,-1000.63656805975,-1080.48362555075,-1012.04802132886,-738.619677363838,-944.247942010392
-715.381495217433,-607.89116403007,-796.326467951046,-523.043725781591,-689.58263608262,-942.359336596757,-664.95241867297,-460.28257016911,-856.94439998612,-704.861935512927,-604.633355958558,-848.647545034023,-624.230263588957,-609.116179085285,-831.562785272245,-546.237732574032,1176.38490141083,-835.778068599969,-699.792386835373,-1000.10874257133,-752.912307011785,-865.515297978326,-1009.11579193113,-1114.89354476139,-1474.8405863645,-1462.3092445648,-1336.17590883601,-2148.96050621464,-2372.1086961799,-2084.70634627997,-1918.42034100689,-1245.6621809639,-316.138770061518,0,-1322.19547040951,-1312.95783564656,-1285.59326415533,-1667.98864015033,-1062.05078568169,-1273.03629811345,-1529.63992193246,-1559.87862300301,-1265.3883899919,-1583.74133009109,-1700.41895718357,-718.61968220594,-862.471425893603,-806.793901455984,-855.190036627973,-899.183586299373,-791.121358128826,-812.479668405536,-842.186841575804,-828.897616884333,-782.473173862412,-834.27910481421,-855.731775043764,-787.407313598988,-844.802216919711,-893.515066146574,-879.67330321775,-770.495327914454,-652.251556859148,-712.269910267204
-788.527491638841,-681.811033591479,-911.592197915438,-574.95558157537,-753.96730641104,-1044.25143858381,-722.438093418475,-533.536388221439,-986.616106365785,-835.594460385048,-700.16412641768,-990.030860418325,-757.142511318329,-729.964013090678,-1054.88339573498,-782.743858219746,1953.71673218758,-1177.88642627742,-929.995155559583,-1497.7388452819,-1125.42535966098,-1487.03946974083,-1476.88981908276,-1379.31006628254,-2159.32549333345,-1673.07665870657,-2574.85439855741,-2055.76480749988,-1932.15270340041,-2970.1836020071,-1210.66091124905,-1400.5843708825,494.789382053285,0,-1624.94840287641,-1019.22275338748,-1032.28193074635,-660.807795104438,-1556.05760854166,-1431.65191353998,-1441.55355523055,-742.845595854115,-1290.59127929923,-1104.05978521746,-828.58638284815,-788.752300431932,-875.013378801569,-854.846536601979,-895.407412579016,-919.890308088193,-866.737380301777,-842.116103597226,-895.193900952874,-895.200797506162,-824.520775532698,-865.804069425569,-921.164615190349,-810.306429601732,-933.134781029347,-959.634814093046,-899.502097237872,-830.459632106569,-726.911821021344,-744.772250037187
-886.303775253488,-812.531867932913,-1012.54542684049,-658.529001782653,-892.256401638983,-1077.63324506247,-776.60813204204,-660.89672081731,-1045.04114710262,-966.624428440189,-852.253685308031,-1031.75375170708,-850.965900038758,-874.950021586269,-1123.03522261134,-929.273089818452,2727.38085932392,-1307.23541903941,-1116.7429607014,-1585.19012091965,-1318.21175987438,-1580.093325321,-1604.38987464851,-1624.0829054671,-2121.75476205084,-1736.65843162353,-2816.77044966919,-1695.15870937911,-1782.45721183054,-2759.82114632282,-719.43571043062,-1436.97093164027,1006.16530011169,0,-1451.87236391531,-966.98639531019,-827.703904248172,-470.376483256532,-1607.23462160179,-1378.31240211745,-1350.4148905586,-405.037315998802,-1331.23911440736,-802.688177172801,-384.138495164251,-1002.04399184077,-1060.68296090286,-1054.23041771416,-1105.13747983967,-1106.0153576627,-1047.39327617907,-1030.48761171578,-1027.46942197895,-1057.19357253832,-999.646748781363,-1054.9493384867,-1042.95986444295,-989.649086796953,-1065.71847904345,-1075.96802336895,-1032.46037567385,-1060.79722789803,-849.690141070084,-919.672542036018
-905.713398674282,-863.037677634567,-1006.9796639681,-669.923324747983,-955.196883263787,-960.549339497563,-736.253278789512,-706.52552796907,-948.179955677547,-958.250058543875,-898.530183074069,-900.553485293217,-792.033547456423,-880.888248854242,-954.437050103352,-820.272671967928,3085.81738299995,-1058.04071481145,-1007.66995261041,-1179.57771738941,-1044.87233188963,-1095.52544314814,-1112.08495881981,-1355.46398679893,-1239.30962011508,-1170.82272737266,-1932.12458661829,-901.56012332302,-1274.25597838276,-1589.94530443169,-353.418248635695,-628.283422549774,1089.40041873275,0,-1010.70380365781,-637.267015331238,-228.357273028338,-549.800528502832,-1249.20368966741,-1184.65723566947,-853.49417950164,-261.242633382851,-1185.90931001654,-567.225603328447,-202.905586025233,-1213.36150054933,-1231.9378007827,-1243.90779146225,-1301.10784362878,-1267.01664124877,-1208.56042623376,-1205.83663518167,-1144.31569381951,-1196.83020229946,-1155.88489553722,-1219.8779303218,-1130.24130916526,-1149.91229704775,-1140.23920699141,-1147.47962581949,-1146.64078144955,-1249.1354062638,-928.052721811987,-1063.11539154266
-941.544735292185,-916.8457374665,-1026.86708051194,-701.37542243242,-1027.84365777393,-875.642335800686,-729.369866714044,-765.345573643237,-892.451009645245,-970.775721122549,-952.488237680031,-804.181357371538,-760.531256952667,-894.422663272084,-816.533502501781,-745.094754629749,3271.26695790479,-848.459786863336,-907.189681133795,-829.175421419246,-792.603893783746,-589.818538522718,-658.446798917587,-1023.09454426098,-409.633410150031,-605.330630698001,-827.445521516289,-328.410317383857,-715.009360975801,-711.901764467534,-329.27536957956,339.600038564742,602.581140905713,0,-815.62229455066,-225.828081934515,494.110111953582,-561.11897980745,-960.45725108742,-1105.92802646379,-238.782714228906,-232.179759796843,-969.076741298654,-489.519890175356,-264.71929022594,-1372.6621865081,-1364.73416990528,-1399.75345300164,-1449.8961939577,-1389.62481068878,-1351.04565037546,-1353.94960016573,-1257.76855478411,-1331.15387208463,-1314.8992312365,-1363.01324301504,-1228.66616149065,-1296.95508500404,-1221.26801872624,-1245.9497198986,-1278.12729238515,-1391.23599785939,-1030.34325849679,-1190.7279153941
-1112.32095453068,-1109.09240081859,-1204.51549366572,-890.605660979192,-1255.18335496752,-1002.64643455689,-911.963605857875,-994.132046293046,-1053.63211645291,-1191.72864751583,-1197.10377893663,-927.453300230751,-950.53053318677,-1130.32859690321,-935.815879445043,-999.964450303274,3328.07855174887,-1046.4736620972,-1181.97200756298,-896.046277819086,-1030.27994228323,-445.692586769155,-776.020479193404,-1226.37763646125,-206.278910035237,-670.494007641865,-191.83535149059,-308.915407695164,-870.306252891679,-587.412667111699,-674.165459381509,216.622215492988,-627.897373908001,0,-881.400287484803,-460.550584958415,364.181884260553,-876.789165143317,-937.728476335127,-1223.0406209204,-240.193604649019,-739.872252789799,-994.288057985161,-855.557725116893,-737.922220746145,-1513.71660393556,-1542.28239674582,-1577.75538742128,-1628.22990907203,-1576.14074281437,-1525.27158823909,-1558.28014988714,-1411.89368946137,-1519.33943329255,-1551.66424800053,-1578.67670693089,-1400.35964947986,-1523.41045878022,-1388.11313770812,-1451.45009464342,-1513.15632144606,-1605.93250844887,-1239.07838306051,-1407.73711756936
-1380.46514603248,-1413.74157601253,-1473.53067353332,-1218.03454278917,-1602.20942677106,-1280.5296340283,-1250.11654063206,-1374.92768017129,-1348.47972968455,-1560.25416216158,-1605.77552086294,-1183.9967910457,-1304.54055607877,-1560.94018120703,-1203.59580069603,-1474.78147248518,2946.71150154673,-1486.18646721862,-1742.64667809732,-1142.26451191204,-1559.59028974157,-477.050866406335,-1170.22472541613,-1786.11335527038,-289.422596118339,-1038.67332587487,152.013650728933,-399.702814181395,-1648.55378111342,-532.726230082424,-1075.60015310008,-1303.01722215381,-2541.99050857974,0,-972.169981383244,-1636.86425032176,-1236.46435378269,-1822.19959809944,-978.342372534614,-1584.77440272842,-1259.5826875974,-2064.04051758799,-1477.00082293028,-1781.88361126205,-1631.30732321903,-1654.83786102971,-1783.1452065749,-1776.8874771837,-1864.630294355,-1843.16634587822,-1711.74061678803,-1824.2555085551,-1575.08830657667,-1732.19183094789,-1829.26684868427,-1859.60230622311,-1602.75830864363,-1809.88641913235,-1586.64593628454,-1701.6570022389,-1808.91266974499,-1900.59280817026,-1493.30324637093,-1696.50280720519
-1574.99791808556,-1646.83399297049,-1644.75738294035,-1490.42745071076,-1858.05938110731,-1498.58699918233,-1537.94311438061,-1698.71237013701,-1554.53910213586,-1842.67409483503,-1942.61082482017,-1357.00051172935,-1595.488410291,-1933.19475709107,-1384.00950768561,-1850.63766244141,2221.92988769948,-1809.14620701393,-2223.90015837504,-1264.53223925079,-1955.87305304783,-438.940416240151,-1417.50975975371,-2190.31033060469,-343.910310903893,-1220.74007819291,530.918697359274,-387.672417897931,-2252.86661994855,-214.604274897889,-1408.38121720521,-3310.42357322112,-4544.99430790674,0,-1199.53079608003,-3173.32176593739,-3740.1014375322,-3044.01655874395,-963.877494856756,-2193.13204637124,-2867.21367410407,-3789.52270060897,-2251.22897512461,-2978.23040224512,-2648.16647472158,-1726.02305232553,-1958.10789346932,-1887.77655492449,-2029.77891799984,-2030.36995874104,-1794.19191003499,-2000.26438355281,-1632.94024912223,-1838.1647563476,-1988.55956772501,-2038.52260048038,-1698.85052045316,-1982.95969776562,-1672.61945786107,-1827.6947238939,-1981.43984582136,-2090.69378134569,-1630.29128091741,-1872.91081996258
-1601.27085943509,-1688.25638405409,-1648.71955774068,-1567.46890225576,-1899.9385507758,-1553.06898874726,-1644.57124992444,-1809.32037133566,-1588.90892919178,-1925.37622365386,-2049.77147680623,-1383.18650769901,-1699.60392072771,-2076.02959536327,-1429.23502361474,-1996.93799895092,1696.28353430634,-1926.19441008492,-2436.47804171055,-1326.44391500771,-2103.39988570323,-469.076357048357,-1552.74759916143,-2277.98371058854,-589.790989836501,-1274.99499882123,754.973691438128,-591.858662425986,-2250.99189754248,-111.755454915944,-1764.74703551236,-4640.24956580461,-5865.93757069053,0,-1647.69326951593,-4247.99116572375,-5910.88409652506,-4141.28632683229,-964.634028962794,-2723.67366385757,-4139.82899489424,-5266.40438558019,-2825.04110221702,-4004.42974816288,-3525.50435834043,-1655.44771791957,-1935.06223978279,-1816.79959543476,-1982.88369056721,-1990.56393904461,-1699.15597387805,-1953.0546811951,-1530.17701582073,-1755.54920569541,-1931.21305247007,-1983.69157059787,-1616.16273134188,-1922.6053779681,-1591.06502431055,-1751.7936467692,-1921.87558281264,-2028.48248550124,-1591.25047764162,-1812.95192258699
-1522.01750114518,-1590.96792632014,-1573.09535611492,-1501.80292205739,-1800.87029816166,-1500.2930912142,-1616.94032325826,-1746.19856954773,-1541.26499370308,-1881.3737350909,-1988.41556853007,-1355.84699931045,-1674.57980377138,-2041.44485114238,-1441.96296420005,-2000.30119550377,1570.96547193493,-1948.11216322591,-2442.96278094342,-1489.08671243607,-2109.73647560903,-758.382680738461,-1743.02814067226,-2160.12704478768,-1163.03736622092,-1403.06157909335,494.010072572283,-1105.07342628192,-1869.94336112111,-538.350380162437,-2020.61958645141,-4780.1877890259,-6240.14587259296,0,-1941.68177752322,-4489.48784020194,-6846.59245234284,-5031.39989342558,-995.565166839326,-2756.8688732322,-4467.60659519498,-6115.16012239598,-2834.08693755452,-4578.84515198636,-4155.3086335902,-1469.93261418015,-1731.98832768435,-1599.88181932831,-1756.03303888937,-1763.28361051596,-1488.01411995252,-1730.32497268344,-1339.14217771077,-1548.08023546711,-1724.0329733956,-1749.49177611543,-1428.06976089699,-1698.63462454957,-1422.57692424599,-1561.7461391877,-1714.09042288029,-1785.62296233028,-1465.09832640428,-1596.42192305849
-1388.10060060613,-1427.72540374083,-1457.44575457676,-1376.97500864632,-1622.67205498407,-1391.83541906187,-1500.06694371373,-1586.90649215852,-1455.75677566251,-1757.77495865746,-1836.86920334008,-1305.19027862409,-1580.354086016,-1908.22961475575,-1443.47749893248,-1925.12118084378,1566.94461479666,-1902.57806216374,-2316.24368369302,-1668.61706994979,-2043.20864271125,-1145.56964245517,-1916.2293068279,-1958.28827646248,-1711.87667623377,-1565.95555449347,-120.999811448642,-1575.63825327197,-1504.6446706094,-1139.84687229719,-1929.93023774543,-3990.69873170657,-5880.63707674719,0,-1754.01799105352,-4008.84720838503,-6340.59237819766,-5312.45550355882,-993.396376494744,-2303.39537553006,-3955.31377624973,-6085.58939381075,-2360.40843337064,-4569.01170691453,-4281.20400413939,-1231.72512613944,-1428.477050716,-1319.58450097913,-1446.17196640059,-1443.40205417083,-1236.9727251123,-1430.34729498828,-1126.3452425118,-1300.50976851409,-1454.28868814929,-1429.98144876568,-1210.01377144838,-1407.41005191044,-1227.4967788706,-1338.35837152194,-1455.17331803686,-1478.3318834091,-1306.48141393064,-1327.3226216407
-1151.01301177429,-1167.32240885091,-1231.81644338183,-1154.92120340594,-1307.57829732843,-1190.52982535739,-1237.19745463681,-1308.06127396459,-1257.43249041877,-1490.51893956927,-1538.36915786691,-1150.83210895233,-1364.70927591385,-1629.16758066702,-1334.54257785292,-1708.79567839228,1571.81090270158,-1691.55681172753,-2001.02968803353,-1637.08285218312,-1844.43696591246,-1320.4798223947,-1851.39178567743,-1698.67527248094,-1818.93721354594,-1560.76936701744,-628.312819299493,-1646.96753028338,-1260.83561374474,-1385.57647071456,-1491.94283295968,-2836.97997217631,-4915.42557609833,0,-1234.96600730953,-3092.54724993766,-4779.43011966412,-4288.23198952633,-910.044817265182,-1705.2296156575,-3065.15041091229,-5043.71431678259,-1706.10659324827,-3975.76998656081,-3551.15228693155,-950.389170837996,-1031.73016842257,-990.750067577743,-1055.2004305546,-1027.41982470873,-936.209616451132,-1047.55815793818,-862.748464859191,-998.579963613625,-1111.45047314717,-1012.92069904339,-933.746609173207,-1026.73514705258,-969.306719024435,-1044.32765040884,-1117.60334782843,-1084.89651410082,-1069.10468812197,-977.951084676258
-786.924556970584,-767.499119306118,-871.740611244426,-782.22912022333,-826.241147120735,-846.867097617734,-803.47192811016,-873.310170654974,-906.388481296886,-1051.02214964145,-1036.71873428777,-859.346194388014,-977.01980312187,-1148.93586528569,-1057.97846971764,-1279.56665029493,1751.51971008199,-1251.52288054797,-1420.55187818436,-1307.08727157782,-1391.05258138626,-1205.28636864206,-1411.49377200774,-1225.15859392212,-1443.09903284464,-1134.89436469519,-774.247529299917,-1179.03799077039,-838.781631832967,-1115.9679796078,-839.892168395375,-1663.35537894562,-3341.8601503124,0,-641.755147332547,-1957.92691592093,-2839.50362217159,-1960.72826325263,-694.7658565,-1112.01352257525,-2040.02267922354,-3209.84959411417,-994.065231756304,-2930.49820449386,-1970.06029032285,-597.992031753277,-511.885276934047,-581.666021345347,-550.784214985946,-483.256786607616,-555.856809747976,-545.36390279687,-514.796120655562,-598.332722833614,-661.601417665827,-470.878759651335,-565.545489227309,-517.263895967728,-623.798116867076,-641.444465716573,-661.491695842061,-557.08952638931,-732.343171514599,-501.365811179236
-340.852098074211,-258.903375146428,-438.033605029168,-296.34552077729,-236.834884003057,-363.609169128737,-273.793421196822,-310.90071471468,-458.885124258176,-495.978736204436,-384.408590870718,-488.727889197379,-462.920832226703,-509.528705200208,-668.926063162755,-661.375475775144,2002.40174913385,-635.361398236082,-599.552224869523,-796.703427568034,-633.004725189422,-965.888528456899,-648.910988409927,-325.045397123732,-855.440277007219,-194.216887808157,-715.991164143904,-292.626447151365,168.304718032019,-565.346374182795,-14.5408733385825,-411.264209605102,-1353.19469938439,0,2.65165805551767,-685.792241830461,-978.839187130773,744.391064428556,-297.143644553182,-386.673398647684,-858.191240854473,-1033.9778593092,-151.137027938969,-1556.36898574771,-10.983015699562,-151.382397218016,124.813689907371,-71.6209173832172,57.1039871224724,172.545680589585,-94.6592966695521,64.2428371264103,-99.030118676553,-104.761265326173,-106.462562265043,164.247582658145,-127.504788032106,93.6970967358127,-222.598661965337,-161.356305196632,-113.328324780505,73.1590179420653,-333.437243864282,75.0860103284017
170.112229852913,321.504950348677,45.3570522066161,251.266490609636,422.80426506216,196.728032441417,294.861712215496,338.701682307582,41.688357925814,136.445915717016,349.892624153315,-69.6102144848871,119.421275998998,220.32436207449,-224.060495669951,68.5766700162013,1933.74322714166,76.8730473914198,356.680461828176,-238.615739861118,338.098358073373,-746.552992171041,260.194844181155,919.047646444517,-303.94647475751,971.767224863631,-720.517324892122,634.632415603646,1660.23911100201,-34.6282593190713,913.689436471605,1083.81440976489,706.721158154689,0,727.349698631932,721.638362535284,789.981824622958,2867.25081825566,262.670788725226,560.494663592148,429.425463980939,1105.07755946596,825.503782078162,22.9969647518122,1757.04227889996,377.592761414748,835.98889328839,525.119663029564,743.348490213396,903.037229346677,443.590961664398,752.679050887799,374.892537750672,458.260235200834,537.871390065813,860.213359146354,369.24817543053,771.179964432331,227.818452170071,374.227798967264,500.057892553716,765.073913880565,122.614621376818,715.209230759678
746.204276160762,948.806460484777,598.800740088273,836.901704132756,1133.55574088657,731.203823854742,909.023746178799,1031.44947521463,598.064495826284,823.873869780771,1116.82775408648,421.534349112998,748.395424788332,979.252452608673,285.781664027339,830.895934673625,1454.85745170946,837.695898755049,1303.95063696468,377.043626244929,1319.80412517331,-438.36654770018,1167.56975850206,2064.70254221036,275.07712340962,1926.40169094196,-681.101096339345,1334.98717983569,2875.639628688,427.724876847799,1736.59068000716,2636.73409586622,2579.58988644102,0,1427.11179612667,2176.47836503446,2586.7348792477,4104.51730085343,895.691084686512,1577.55594876546,1634.78009622218,2998.30248794806,1764.03877686135,1601.08428439004,3026.06238021543,925.725249396507,1544.81375006169,1139.85211104994,1448.26777576401,1637.46849171115,1024.20406398797,1456.82258556664,898.190744318963,1053.63583185602,1211.71516396467,1570.63689712251,919.282348863408,1468.79209624707,734.553148721263,953.450384244996,1147.75878710081,1477.24694611192,643.186841940658,1381.22576806903
1299.20036541099,1524.03024563202,1167.06429597608,1382.86832925267,1781.17074526054,1174.13852030057,1511.17947648932,1658.8085562044,1162.73011493094,1465.73712228845,1796.40998234615,955.367040546365,1354.33794885205,1652.98360033084,855.973703244049,1517.48967807036,834.233722949405,1567.36511337788,2065.24691878042,1104.70413055082,2082.33390709444,212.889130123272,1984.20725099297,2727.46983694546,1122.92069296032,2512.52738902203,-153.734706495605,1887.17560402602,3217.87859859801,966.634165454337,2171.44825406655,3744.86938100961,4083.58068241932,0,1885.81234626608,3320.02776937683,4268.38860481105,4641.8732833576,1475.29915542088,2331.23460119603,2583.94490652966,4533.78503661111,2421.78252607513,2982.65885275201,3736.32211468552,1388.86254881244,2113.18625849613,1644.2266569818,2016.02175803027,2222.41022896697,1531.72226353359,2026.35368716873,1385.62620048213,1576.02711303972,1769.9922423047,2154.02993168358,1430.8849295074,2052.11662136964,1219.40029113811,1479.56296968696,1710.93943355373,2074.20676455199,1142.47932996262,1956.683753785
1658.03693740024,1864.36565206466,1593.52206537459,1722.28047197298,2155.13537911621,1495.12315253749,1913.27270350703,2036.87779050538,1589.92840126559,1882.44662298446,2186.7240212017,1400.37285748538,1774.57994639424,2062.16725052632,1376.21148296978,1967.67361495052,183.656979341399,2102.76232600116,2457.45196313172,1834.36208609457,2448.77906493735,1185.36598502654,2548.13854752973,2842.78899615046,2127.36790220787,2748.37294978656,922.586768434679,2254.15818313248,2866.92234145845,1486.904783104,1927.71561241001,4021.34156265919,4911.24745990644,0,1795.19318124758,3599.72412340975,5299.72043804971,4566.67705023242,1769.53982613473,2436.97112915618,3086.74159518536,5457.60376281168,2555.98020348031,3957.30548635932,3829.77956481481,1626.80064518208,2342.21757208727,1871.21050382709,2233.20469073915,2448.77816012744,1789.30211662511,2260.3586025997,1664.51458485055,1847.21686475746,2021.19997794921,2397.04109139802,1723.19466222196,2315.36551843724,1512.90808767048,1766.67525163056,1986.83056758972,2337.9787149541,1440.22392280398,2246.36630441469
1674.94834755859,1806.60128545956,1709.73500437471,1687.93223204243,2087.09594309537,1584.78837827933,1922.83405568178,1987.91441156461,1704.70664123877,1904.3396655277,2118.77838102482,1582.92636850594,1828.12420370171,2037.09766377111,1640.98384348567,2006.25702344643,-568.601104531989,2245.56659920354,2336.13550133376,2280.2438717471,2315.89680622919,2071.61187604031,2622.8133455253,2432.33984413028,2781.38865337841,2528.34910622689,1998.25849676664,2093.24443240968,2163.72085148445,1632.9142028994,995.651625640769,3355.82611939316,4627.86177142767,0,1011.91619882547,2758.21112687348,5103.26182753046,3642.4544767641,1540.62508453379,1734.86158860111,2926.10230678053,5343.89330481223,2025.74482735458,4226.83159843639,3160.75421703273,1512.43940846612,2079.23331344423,1694.57111019928,1979.43399278638,2178.63186517595,1666.56380118067,2027.45615696019,1585.61021972122,1721.29778099683,1834.25125594737,2157.92344360426,1650.97114798793,2114.38351860492,1465.37685319924,1659.87961172612,1823.54421008024,2121.7591048927,1383.54141056165,2092.66271585139
1309.82179912464,1321.05379208758,1431.76122148203,1248.16299650604,1575.17823172692,1308.83255195532,1494.71592632313,1476.99735340471,1411.31878204731,1474.50917776603,1578.06060893708,1379.64959126745,1434.20069675653,1530.5634883187,1477.26517285615,1547.93554007493,-1265.49479126934,1884.34219330011,1676.3244065137,2206.28226897945,1672.44903100358,2466.41013618655,2126.9602446446,1491.02943015104,2784.44255157289,1787.44266561977,2593.08963762618,1347.68712020962,1057.03276220926,1323.37456154567,-165.632043902908,1893.46626466706,3122.08483358937,0,-133.342284561219,1185.96252673219,3802.62862598424,1825.69876808109,851.47311771619,489.13303687754,2113.06597796623,4156.2442468484,981.003198478668,3725.68014732902,1762.70409731404,1059.04101611115,1384.26757697102,1151.12952027961,1335.69036529411,1482.15113320161,1194.07957312909,1382.73936055931,1159.67457697847,1216.19784064463,1248.10199613128,1497.738603498,1220.88371457845,1496.7640381269,1064.538314941,1167.04519588309,1257.7294588775,1482.24126457665,965.89190820171,1512.67388951032
686.27556727458,571.745752177338,857.586468986966,574.685156693319,806.85688581387,728.562569910508,783.336012564267,695.103204645892,800.97979889614,739.428169893335,754.859766974002,842.772882623896,717.502490894533,709.092745745518,926.882860806241,730.407716262953,-1716.83759154748,1134.72840918955,678.511820616584,1643.61386832478,688.41886360411,2257.80279852608,1253.71522257625,230.751061540481,2232.50160297346,712.866664905835,2623.26497633191,359.881305520751,-433.018525921,786.758796208002,-1153.96507214836,57.3678115343109,960.348523430747,0,-1212.88244553469,-562.649915440084,2309.36181521781,-236.181696895186,11.4117441851178,-931.012853507774,959.595910696441,2572.1794790106,-219.040539355558,2831.91470304396,102.85381652466,464.79396544824,538.127980181111,464.393285123936,541.354710420037,624.365789842868,568.473690737535,568.440119513188,570.735504639715,538.753962764988,485.384346010832,662.405245690964,602.064925297022,699.765776705471,473.473439330992,485.456066974622,511.503922258182,662.471582993284,351.473654582333,727.220360354445
68.5124777789197,-154.216631306179,263.188322333298,-56.675482982518,65.817767905009,123.912684872913,75.8063624166892,-42.6111054452093,163.326471584535,17.6639623787698,-35.311022659695,244.14548555005,-10.7871949949888,-96.8038859499162,277.429478753418,-101.530260521543,-2228.92708270315,333.70647257191,-276.257284384734,885.400579129816,-269.927956358141,1617.35968024522,330.260559963704,-918.35259063466,1316.88156314279,-400.188202021703,2127.60589867296,-646.714482739565,-1901.16494669138,112.321816824332,-2026.09056142767,-1667.90774945232,-1026.82961344109,0,-2130.520772082,-2350.2298916152,1297.28751223307,-1756.14076756317,-764.002706414942,-2357.15668163855,-187.194993971049,1270.91443053851,-1312.05466373096,1920.43269022396,-1245.58128717831,-39.7489344323769,-174.448736688088,-113.304701697059,-146.425500162862,-117.072010277151,28.8425147561982,-139.889158131998,52.0193865961042,-45.2821516613197,-183.425091343835,-77.6598503054198,36.7420318170812,-2.76286019755438,-56.1550626361252,-118.169803052788,-150.313274532595,-60.7672801312692,-213.036986955254,24.7046398626931
-331.229454525914,-647.798622090755,-125.403083964247,-476.31378807281,-448.260492850466,-267.472886602272,-412.648440159054,-531.844184345279,-240.427998883104,-443.490361278395,-568.714563923003,-153.265138941367,-494.574803496031,-636.076733908381,-189.404992672769,-661.948756890376,-3192.59301333332,-223.026857701331,-897.24584563098,253.490605231039,-879.943220887717,888.174083039092,-376.445670090441,-1667.1991113557,298.920986167495,-1281.41507413328,1270.99220892412,-1549.24581851403,-2933.71306031243,-682.205476156949,-2795.70750801013,-2911.8320166717,-2392.62216073939,0,-2798.07775396098,-3992.02891920592,569.009464555402,-2655.66993538937,-1389.98301965459,-3570.94373977433,-986.164437729785,266.52631721421,-2125.38819373639,1055.24513162734,-2090.46485937988,-366.657647990243,-648.771872971515,-479.10243630453,-592.639021388143,-614.440926405952,-305.70477084976,-607.108687918447,-269.533429801475,-408.029649594015,-618.895273032781,-581.471096701653,-319.428382149871,-470.737587545994,-372.253904155732,-496.803339442092,-585.623355692126,-543.097864418607,-570.191350674567,-437.084768484469
-497.169643009761,-876.872941475735,-294.986192861518,-679.761144285636,-692.801735193545,-423.48888969109,-656.804389287527,-753.735126146585,-389.316213367625,-634.222769961184,-816.401921702759,-320.223280694651,-709.343450401486,-880.357997110676,-412.052597738825,-904.869191305234,-4182.88449677905,-479.718256722087,-1140.34727885921,-93.5335434624677,-1086.11240145069,406.324540436026,-729.391932313212,-1970.75720204262,-412.392865715294,-1667.22009699766,490.52935942136,-2002.37453181782,-3272.83141463231,-1313.54244288195,-3048.8733406895,-3277.26850811137,-3066.6233831371,0,-2961.45193982752,-4723.61651744996,-217.834132325553,-3221.03258510422,-1761.71583287667,-4175.31028199958,-1054.51737283098,-609.634681566576,-2389.53109427419,339.446265962361,-2424.09383210275,-533.376410224627,-891.056508465749,-649.205340840653,-797.703331545357,-863.531109360589,-458.327461376327,-836.541472912487,-409.206991636648,-586.404364964482,-830.401902664235,-832.263244462327,-471.771999748311,-700.225198321992,-499.695814087408,-669.711247141531,-794.651696781956,-781.940031357891,-729.056597476806,-664.553245775594
-485.571245786871,-877.188415339061,-298.85572671479,-682.933837710298,-677.355707287758,-410.364026306091,-692.322609836886,-728.15398043394,-369.923183553379,-622.513798092262,-801.046013856296,-332.502313914925,-713.924214601198,-868.66635118191,-435.478809247805,-882.212379532778,-4392.88854471854,-481.641580057747,-1048.24777011801,-124.572737143655,-970.056067781755,333.92721466445,-678.945171595392,-1787.32035931202,-519.588123291364,-1387.80679562687,224.738150718773,-1694.74417627505,-2689.40757339772,-1405.96969852348,-2421.48993659172,-2523.60993109952,-3044.88791093194,0,-2590.08239565844,-3961.19873082842,-896.422238467759,-3297.01466944483,-1763.45963708529,-3939.9634200764,-360.681999182628,-1152.66790663608,-1929.03821416567,15.6447750277729,-2101.96211639121,-524.407754725595,-874.986442973464,-616.321989957847,-773.736003718548,-857.247030227183,-452.232005647587,-832.726114098436,-403.728502758383,-603.680463365023,-833.953755675004,-825.768630876901,-462.392771416135,-694.93794304353,-490.975481476275,-670.522464143812,-790.382243528302,-785.198096242526,-735.27565466155,-676.664669129662
-288.964999470169,-666.632940594347,-118.566386484224,-472.336915275574,-411.082035492056,-239.214348380176,-523.607630075545,-460.147991056665,-181.947294135964,-394.31327722508,-519.465895259807,-187.440728723944,-506.602788896095,-600.009350134645,-265.695517149251,-614.190803080888,-4105.66624448663,-228.851291122566,-636.452549492109,129.298738888412,-555.3504070524,599.175509437533,-258.668736291474,-1070.17155377989,-126.033008268384,-558.450679044716,489.756221261821,-802.179233377268,-1198.44407701332,-916.092531678666,-1108.63460613544,-1058.0847849777,-2449.21551096372,0,-1926.81827447466,-2188.11773484803,-1236.53708313049,-2569.7085321744,-1379.74337403436,-2975.86940103381,529.214483990227,-1191.47267655252,-970.659766713478,47.9300712463748,-1174.02312744229,-308.840061504941,-577.945203837713,-352.984943719459,-501.136542912947,-575.945297707127,-251.068874172296,-572.930741578969,-230.060714492685,-406.189135841634,-595.160051010234,-550.349935289002,-269.480826922132,-439.888774612462,-313.402235072285,-467.266310143954,-552.432853457541,-529.981506850449,-563.668752561608,-445.260717829639
77.9902051092092,-297.157727107659,232.897923564874,-117.535379116237,29.0589915660004,82.9909818233489,-210.247842566697,-42.1229817897249,180.10588334964,39.1422529409206,-54.11954136768,117.119375390385,-128.349117263355,-150.736493608427,63.3988656138262,-174.385909500622,-4677.62389830311,228.534990778739,-10.2556419038334,550.725222682893,109.619725314385,974.614103825458,373.641298046454,-15.9858730787051,388.473768650999,424.256732890981,914.358141453412,143.740524407875,645.221191040406,-154.341079141181,285.905352078945,254.1414895515,-1632.37245180014,0,-1134.76001759541,-452.996503181564,-1352.56694002497,-1278.88897826868,-732.186654958533,-1588.90971320835,977.092616945405,-992.058629724194,17.6898865378171,105.946674751751,-111.855246248521,60.6381665743009,-86.067157649777,85.8641467327481,-29.2566200116375,-85.4985600195268,134.101933934318,-111.296557306293,113.621590771584,-8.03212803462703,-136.101008554235,-67.8419675098185,101.576231107541,4.42960355849896,46.0467202756535,-74.1233453067654,-124.3039116199,-64.0201655845234,-209.809259577574,-12.8183967387948
490.94522474954,108.351025845057,625.523412569574,227.374595927945,484.81012602468,472.24299649235,112.198597790117,352.67883419695,599.065387597914,526.583933066396,406.232270814641,477.330136762028,269.428839793578,294.279080595087,431.346804464934,263.411656803554,-6579.48748118869,712.884516140785,585.392359738834,960.474535238406,803.796167892137,1269.49822226762,969.688278088618,926.887909005065,746.580977547566,1147.10085737275,1201.76390410124,768.757419518922,1987.43120701928,556.024926331907,1207.72858226813,876.689878503241,-951.034849369795,0,-279.494114537976,634.141914279231,-1391.6142142202,-37.9185571890473,1.15195473943832,-220.259032752201,869.188105035424,-885.820858134984,706.441531577769,4.18450860970546,634.720926395879,462.652130722724,429.690189031971,554.349597208274,486.643227370387,444.584187944106,583.469686824478,394.466924908182,526.713175562998,446.917056159705,395.216680375769,461.195062361659,537.126828880887,482.851692037081,477.538731515042,377.340198407959,349.185396959003,452.616441300627,212.140054836476,459.90634371339
782.890277474733,393.464342123157,893.226980117248,442.349632558367,785.351426371284,773.653235425647,314.303861951645,584.795397810139,887.277661375025,850.558190377522,682.904724120785,732.098697826315,518.752293897164,560.424583002194,679.996380908481,510.559404094805,-8426.78238734536,998.41707085104,892.746080614473,1180.52812783968,1193.60070563564,1404.83130694951,1266.74195591642,1336.3248955403,873.805270037195,1385.19451579277,1324.80038705442,1024.3905432617,2288.1308956534,1036.78571971179,1446.73318194512,875.451869207276,-578.93781979449,0,410.222928280103,1073.79747268174,-1364.28983545879,762.399104621058,632.768059242529,658.948195855562,489.080713311993,-920.574423523637,994.88754823034,-214.200358118556,968.96496317906,771.821151896085,799.653469174467,889.770344855578,864.922486866518,827.789841224748,925.736431448667,765.091279751458,843.587017269811,782.818681705517,792.723296773642,843.54234892652,866.987326941236,825.454604090561,802.813629053986,708.751257001659,694.968290823894,830.042958115273,522.436364281642,792.660644009718
851.333895245656,446.161654081667,937.689663518735,481.252345652719,831.115178974665,845.531080961886,319.032819942165,596.331042506778,919.082296955121,875.95006189323,689.449541443256,765.409891954505,527.385045598009,561.697719258906,687.488754244108,463.468493015345,-8715.05519462079,938.118098905466,793.166454080454,1087.91022612042,1074.11491228663,1331.05070915543,1102.91434438061,1095.46455823764,743.488058536506,1129.65152564441,1302.79395926183,982.878394298323,1707.18316658395,1177.83425269254,1194.71392864673,526.650828906491,-570.778410478955,0,655.389384384733,1100.94594809995,-1349.63136685,1036.38780064171,973.352058572906,913.585463912081,60.9261603950554,-1047.00795012345,944.159727251722,-515.34336456411,961.421592642177,899.340848836245,925.139115491017,998.501248658089,995.292961941916,957.850857909551,1037.72530086254,889.428609140919,942.171533576506,894.003937580747,921.567265454132,961.771647273058,968.038632117353,932.527368687538,897.001913866793,805.935203786386,804.001361117901,954.702784114651,603.963948795088,887.119445676156
745.33738134223,308.661894543984,805.86860687489,380.064543569502,680.581541448755,713.382772579324,161.147923887584,439.549918802703,748.821951356909,668.009023598036,487.200097576469,616.250057418693,344.793505138249,354.471115103928,485.463091772419,191.825238358868,-7757.42949064373,598.977877031606,406.679355283631,736.686644052287,581.739432302961,1077.82673957976,593.447331401269,480.974710316904,413.882449182865,596.65234693689,1145.0921279642,750.72477811493,895.587422481294,1020.97383654754,859.858650529406,18.0029630657323,-880.850867697629,0,555.275740865244,919.922313473221,-1434.85251815456,831.963301980679,997.370524875996,880.986520644578,-348.689431401707,-1265.09759222354,759.845961109412,-868.030743279163,665.596599335133,873.613004989568,859.97567166558,942.889537348377,932.920189526452,890.411585602112,966.728703826864,817.907419838212,870.988571453475,831.495436928316,840.942450419755,878.471023090909,887.202748232128,856.330351189759,808.012331212272,725.629430212933,729.357715436446,880.85537981813,514.471596375891,799.235539373152
617.446423184099,139.26034440432,650.783149446996,234.629413704013,492.795192335977,561.055831700406,-24.8845114320109,250.231867380529,559.162042387,427.270167560592,239.551905231891,449.391366504837,125.81426548899,101.009335372914,249.348839375854,-113.014029423237,-6992.65801547827,227.246923026492,-9.65349721125544,360.707500603663,67.7518053127987,807.661862161648,68.2128178840061,-103.937225423881,80.1806762510299,89.2380488264174,972.70141105034,457.65483938435,327.628375562249,821.284358282401,658.459556599657,-541.744903256044,-1338.61792405451,0,532.94346307494,571.473092606056,-1547.5430437271,299.221102406524,921.724328051901,929.574198536927,-695.782123457687,-1517.44720940596,650.525459904736,-1155.75014094244,154.446836725879,832.666567862682,763.708743698769,883.915082823101,846.752488540694,786.315655317948,892.074768730381,721.671406876156,805.712859401809,761.488149324736,742.161354078874,765.420898187749,806.356818862616,754.676991083438,713.981949547149,643.595797483292,642.031908081196,774.479499562347,425.032951169626,686.643540014791
551.45205471988,32.7383031789022,566.397271424232,113.318891343771,372.076548363062,505.74652003183,-145.749414745201,124.96132905263,457.316833776849,276.841767946325,55.7798936882958,366.950082216987,-18.9658390490212,-81.3102225442012,109.204875331117,-313.730706868647,-6933.42804016953,13.338773459914,-290.669878177375,148.367213677751,-240.972993991499,646.124954273772,-248.533782184166,-475.37503151484,-130.626677913649,-255.841026481435,913.834514887637,143.09158735799,-6.6568911080649,779.551391478333,455.034528297496,-976.01015272257,-1683.36656262743,0,789.000983364629,84.6543829562309,-1538.19217858338,-300.335626953683,948.435358221253,1082.47099677482,-886.421513784892,-1663.32540677241,666.273985379821,-1284.03678255436,-402.85256970571,869.775964091346,731.899730745072,901.085599746948,834.059840744879,742.634394537122,910.07338261196,702.220428023298,836.297730600093,773.712174026943,728.223782485248,712.586931303792,822.229301463349,722.433968276935,711.705115075446,649.997827176608,635.754745897129,728.7271040875,421.177967203103,638.040473753712
552.696405485337,11.2144184434054,565.154108322149,59.3076923135767,390.345242464779,538.126987406628,-169.867648045414,107.831458548365,447.193711057311,238.0701321418,-12.9814448092067,375.773583240662,-45.2037656520851,-136.219325558879,98.7711568446082,-348.339724753575,-6850.1805086669,7.97057243643408,-373.220904526501,124.987533141655,-297.129452823248,574.815050233807,-333.456257447096,-603.752350254208,-265.854090142462,-441.303842017943,931.90914425605,-209.738599493513,-151.868356654369,831.6799532485,153.184553634053,-909.193045721234,-1573.24168198173,0,1133.77980624033,-150.5624343502,-1227.31058132777,-608.874030469294,1069.26116261381,1252.32543660019,-738.54407473796,-1533.8731997373,803.520696867158,-1222.63026150534,-739.907307740177,973.927963030988,778.254635199346,976.181825651909,897.844559791861,781.635962932826,990.643369402711,759.539231838772,930.255683454377,845.362891177866,786.754090873239,731.86277991756,896.82547300237,773.818255389274,772.913603383269,723.715771363211,701.719404212665,752.225777795625,483.805018351641,659.654826238807
650.077816903429,114.527345581652,675.313529729564,129.403966843428,603.038691463325,652.94552313786,-58.0859123972078,245.167902357484,539.917208689644,341.528351155333,100.644398671562,487.293839835194,84.5269035371673,-6.65200174923265,226.297973384738,-180.822036646523,-6215.86428895906,195.806106047339,-210.076827152201,224.668079257008,-98.5833601723898,506.688869110225,-230.383740826526,-432.125389069592,-412.552446425334,-441.289059237397,849.60728690313,-530.513257534806,73.6687534413441,779.118773716642,-35.4776991635626,-61.2015928721054,-782.239073373726,0,1308.79199382083,370.165836187801,-467.340678531851,-353.18627512991,1169.03544089838,1519.70480275317,-123.735055640698,-1014.53070553296,1109.62279209691,-944.059488731214,-646.679967319466,1096.73067370006,915.180567697808,1093.23701183166,1034.09123867958,922.903016400994,1094.43899562629,896.022599792983,1045.65306805735,957.780625359096,915.171805153939,854.260078303814,994.234229675522,919.213606532265,873.443259266984,852.313667663259,840.994428480422,866.390930500926,604.801793110034,769.08590983223
