2.17489313757881,23.4888458858512,2.46487888925599,-8.1196010469609,7.0321544781715,3.91480764764186,-6.16219722313997,-7.53962954360655,-3.18984326844893,-9.56952980534678,-14.6442804596973,-5.50972928186633,-9.56952980534678,-15.0792590872131,-12.2518980083606,-13.7743232046658,-11.0919550016519,-12.3968908841992,-11.8894158187642,-17.5441379764691,-21.966420689546,8.98955830199243,-26.3162069647036,1.08744656878941,-6.9596580402522,-0.507475065435056,6.81466516441361,7.61212598152584,22.4738957549811,-3.18984326844893,-5.50972928186633,-78.0786636390794,-79.5285923974652,0,-5.00225421643127,-53.9373498119546,-104.032388414187,-49.7325564126355,10.0045084328625,-13.9193160805044,-87.865682758184,-92.2879654712609,-26.6061927163808,-78.5136422665952,-20.5164919311601,-30.2310146123455,-31.7534398086507,-30.7384896777806,-41.0329838623203,-26.0987176509458,-29.4335537952333,-40.4530123589659,-20.6614848069987,-35.5232545804539,-42.3379197448676,-19.6465346761286,-15.7317270284867,-28.0561214747667,-1.30493588254729,-20.1540097415637,-36.4657082734048,15.296748400971,0.144992875838587,6.08970078522068
13.5821580288788,117.10876004082,14.3781623018592,-33.8875497105382,39.384616923419,21.0405518697751,-24.3822239065207,-30.483130216595,-13.9757905329735,-41.8548751610013,-63.1070901680069,-25.4910718090866,-43.8122789848222,-66.4759897150563,-61.1073305048342,-64.7788778725462,-58.5032849162669,-60.417886072535,-53.0801706854372,-91.2211426393746,-105.390108064066,28.0834650445992,-128.712112912101,6.17485929212542,-45.4203095162332,-11.6150052243361,21.8959436834883,10.3106322295186,78.1470225636606,-22.3128808936923,-44.9926136093766,-358.882047711044,-321.176617272352,0,-23.7355821417744,-255.27902645699,-460.065459003458,-191.394536321044,54.6483116375589,-61.6970509889103,-406.408676731131,-401.511078983048,-119.286119438461,-357.248693041662,-75.7463476757339,-133.150980498358,-147.04452561269,-135.196455917347,-187.885907186953,-116.153197450682,-127.627132603374,-183.104055372544,-87.8162763172304,-157.755063351032,-194.440280370056,-81.6954252175115,-65.9471133158449,-125.223544627184,0.187795543391481,-89.9755942975601,-171.724017991547,86.4295418442431,5.76273854251794,36.870099474152
37.3009288227362,242.679975972272,37.0428245378588,-47.8846075147417,96.3856820517125,47.5376253516174,-29.620426216338,-36.6836206518747,-23.5233384745984,-66.0212280803924,-95.0153520028621,-48.8544281802119,-76.7589933290379,-105.745474715169,-129.944534050985,-119.765594190935,-139.891099966304,-120.885757975488,-86.7864987412224,-207.92864959924,-203.293647285703,-14.2349167763281,-258.141400698435,11.2317367356605,-138.829308606884,-60.5570991583426,-6.44395486966572,-74.8687252613562,26.6925856099438,-68.0848962606537,-155.453108095067,-633.429760491703,-417.088568994403,0,-39.8652703199243,-486.93086040144,-761.170994889973,-209.686347840058,131.54756839436,-98.7025500194026,-735.407643357858,-639.214787181522,-200.245599119927,-629.703845115906,-64.9761887763185,-218.494826056249,-255.80408218113,-218.710458384171,-326.198679806418,-186.967945897547,-201.749721558629,-311.869140588169,-133.497009770584,-259.823418355847,-339.865926611094,-110.239562979087,-96.1505859062975,-205.053070917351,20.8615653222824,-148.73824704852,-312.230416052981,215.558637270638,29.0963144915574,103.041995984554
64.0425588142253,281.28381372053,59.4208234793753,-7.44498930504507,144.109840154908,60.5992831357781,8.57460656231783,18.2208524145092,-14.8123806080587,-29.5530016270385,-29.5369631480579,-51.9760138874445,-55.4774909228475,-48.3544877455136,-159.239969479709,-100.675637267137,-211.809097725968,-125.81093003703,-42.7798639999721,-281.707321705737,-192.386776546727,-190.650423815624,-267.046441568825,8.09472174235947,-254.921901131125,-143.943799610793,-123.039724648523,-266.728229323712,-264.656743989303,-104.192619132594,-297.042795953875,-475.893974735243,-16.1577611767984,0,-0.229873290135738,-480.720869217823,-515.090356507676,102.29345948678,200.652070103301,-42.2352282669137,-628.525484541904,-374.025628230915,-129.252197484898,-513.159252125581,107.086692448,-136.741325405957,-159.928010064376,-122.813144233616,-223.651837864575,-85.2049082772861,-111.183331088363,-206.838964364902,-64.4789158977786,-159.119096572948,-242.186645196959,3.31528460796604,-34.3155519454377,-108.964951116312,58.6278288217659,-87.5855357622088,-240.544918720225,324.491649268438,68.9626356710096,185.073016647163
90.7446988907205,236.51485336034,78.8921240442369,65.5403531051609,167.950230758683,59.094549195724,66.7717039257479,104.465336745377,15.859552969212,48.454070900557,92.4495562322263,-31.6469995475497,11.2421235002038,71.0453598509436,-128.949643300929,-10.0343197484356,-234.146644324461,-59.7716116024668,62.7330711890007,-252.33638584474,-64.6136565190001,-374.442480362566,-120.851200811583,15.7271016270096,-279.883622613762,-169.622124772525,-208.688825596594,-359.65608667137,-553.112930215811,-32.4459909761686,-341.460116845343,-3.01356271853573,463.574412322344,0,137.610205758652,-283.937141169387,-34.1866897185942,398.388783708877,266.022187825531,88.0572357546651,-232.99674578804,69.4371426162033,33.2951643369976,-173.642712749358,278.958880894151,40.4172215071701,111.538542691266,77.5973323947021,61.7462559227453,139.85174741635,54.7493042615701,57.2619410223594,45.9111320870919,56.981247316556,35.0177905074252,185.175212141407,60.9025870648962,110.122079296179,83.4473947280162,52.59907454639,17.2108283307265,359.437616123683,107.536407535615,256.102112103068
120.889377975011,211.78325852504,102.691152749029,115.939123975303,180.076459974779,70.7544256517347,102.808934750464,153.41298441223,57.1719261375709,103.366210253483,159.785601617232,5.31472704849271,67.4135528968098,140.191807750064,-63.01959226565,74.9861874559403,-184.426689459218,35.8911752824775,143.618732113006,-123.304255507132,72.1489351383651,-343.946274852215,86.1215238344813,59.7807098114538,-115.241901306722,-43.7485721256607,-89.7546960043487,-171.315306629233,-502.902929242631,192.488233567796,-224.468036853111,275.417934611811,476.813901768295,0,349.22308562151,-148.291564803337,55.5448921878337,261.886348858137,370.773903923209,200.954468442472,-69.2950113063905,97.2519304765436,104.260799453838,-72.7839949782743,231.13060199588,128.43170839867,304.864927695841,177.758025784664,242.763627692732,285.484719868687,117.974845154095,208.496510487747,76.9764268293389,158.891976186911,203.335538537081,268.980215258183,95.1616445863841,249.05658308361,90.2948787426001,137.819754773751,204.073273295229,346.72846924527,136.548142035741,294.40564944903
121.005864988335,191.049355521628,106.168587032462,112.367020112212,156.324618450208,85.1165350695044,99.0221994262106,138.572384956327,78.8589722948441,103.048792391969,141.206086006731,42.3720970656255,81.8662901478714,124.421131725888,12.541040763205,109.099064322583,-72.1243610039502,124.102750340881,154.559012847568,55.4624924217443,154.228295835233,-115.415230864755,274.672009575473,103.938486546558,163.898125193546,177.997831434921,166.15213995522,165.510121696088,-214.24324076537,435.906236623996,-17.9363405863951,255.779225836634,261.292950548482,0,536.338563814257,-78.0530094838036,-124.431974029874,-123.505309609917,468.772957753346,262.894149260186,-168.36061358845,-160.425566544653,55.9315678149773,-209.285995145766,7.7841640814402,96.2196614611342,281.462271602335,136.519046115298,211.866479871019,260.671356219666,80.0234556800532,174.216017761976,42.8515493427494,119.829946035536,173.692332441504,214.10437045324,72.9004172592255,227.458795980602,81.8161697734481,127.142079771991,200.212060720012,280.117014111208,134.599783591334,254.335302935343
55.8795716421113,102.906836845511,58.3042122845193,50.4447298819904,71.377210794392,59.6893542339003,53.3092815348936,73.7649617096278,56.1475178463684,52.7601691746835,72.418344334894,52.7616021976155,56.4894311176962,62.4499930669273,72.9892634251944,96.8825946696196,53.5202903499213,175.500272827218,107.708379286466,199.621045853046,176.467171837084,104.809778355897,377.654869252733,90.1184208653142,350.116702954432,330.701829283061,328.729907883142,391.701386503575,13.6218097900432,513.749262700175,171.999176185969,195.760542511448,209.350962918768,0,591.162620120916,33.0301402222211,-164.005475033378,-375.620759678559,453.464470886038,271.632858178881,-232.141882767531,-277.976357356114,-23.6855479699659,-300.186284434635,-194.84365304823,12.9959769205387,117.756757465202,36.3674447323816,68.575108514623,116.237024864716,13.8708519836964,52.9710501580435,-4.01707245959053,33.8805405525284,53.9979342040742,79.5587755013674,24.6228942927916,99.8189632067618,35.3616491210013,55.764291887455,83.8632657209385,122.979769351252,70.3984389462905,115.898462759862
-16.9643127221929,6.77369650669327,0.899105435628067,-15.209085741229,-11.324073038387,17.8943635044455,4.63631562289022,12.4783822752313,23.9517264918356,2.37576336146607,10.7267889808896,50.1467293264742,28.5659020929182,10.9993475058079,113.988453113388,72.3275800920756,153.567121186398,179.739561125846,48.2321498823763,254.996814446221,146.614539991934,215.481536237878,336.570307919653,30.7538322054151,328.965686808922,308.879122157142,319.000573546385,393.779706749337,114.954485312363,408.999947081015,266.691180976071,253.505691878485,261.842442787041,0,466.128924536912,144.142853601035,-26.6300136304649,-393.825404109541,323.412469043157,201.501107175399,-153.22567378348,-178.3517725754,-85.9303085998414,-216.657043829118,-238.081672910603,-47.1020860936544,-20.2489982632173,-35.1702695045909,-44.6523680378223,-21.4284477749055,-35.4344930344655,-44.5435507134972,-33.1952604569149,-29.6564588991179,-37.0264093527154,-37.6453382112733,-16.5056951645921,-20.9398092237856,-18.6551934336817,-11.054398379407,-16.8809429670264,-41.5352881489177,-8.53554083889424,-25.409003355802
-28.6962301567675,-19.5432622973023,-15.5764979115364,-26.755102522641,-27.5714865395834,7.97380395805056,-5.78355662749345,-2.88510606217789,16.7521412913883,-7.01493667393884,-7.90893560710932,52.2776673384034,21.341038264948,-3.56309523478812,124.591097244071,48.7844738488818,191.954241288105,136.010498189455,2.62248856147721,213.451661184753,64.7875730482801,223.088265560197,161.830514329713,-48.3458600768081,158.354365881217,114.953838155277,213.379068585854,195.307824064226,155.27509417951,199.203682756694,229.928850691373,387.358764236294,253.129108142773,0,195.804322143119,191.934921855945,163.494802148287,-271.831025714945,151.573953221725,48.7052396941437,21.3897261976749,23.7902033555438,-123.10443512175,27.789606741803,-120.657579376142,-41.5952562502774,-40.4163272722072,-34.1643428727276,-49.2262985462024,-51.3209900671369,-29.6244917912712,-53.0735719708876,-17.4486144038619,-28.5366657720907,-42.922960248149,-61.9015623065035,-9.97540331682467,-50.3561332363146,-22.0630205888823,-17.8315355816964,-32.0530509721149,-93.4476391901627,-29.1895157105235,-67.408906750789
-29.0707009957714,-34.102128883535,-30.3854028654299,-25.1218592838432,-29.142948034498,-4.10690985832373,-12.1833953587557,-10.5706878681742,-7.12124471989476,-15.3955983691017,-17.2758946835414,19.1887634030168,-5.74763508060538,-18.54462153297,68.8860724302956,-4.94362979619775,130.935412106568,40.663329647157,-51.8801717625896,95.680468539812,-65.2325828515132,147.244615403112,-60.4723491272763,-157.900483045213,-15.8390696907276,-159.254324718555,96.1341743149036,-54.655529136625,176.504208326836,-47.3713207808583,134.540111570627,456.76620815628,145.399694911663,0,-56.941508000246,223.758802040039,322.190506646005,-164.154161882134,-35.8090640503679,-108.846886608006,235.022658530109,217.994367168182,-115.528746705511,336.845989635578,10.9162444514957,-16.7350901146291,-9.94902568473246,-5.32938676777227,-5.8067091339598,-20.1471846378525,3.73507054032567,-19.4333488537151,12.0207143506629,3.7996393501913,-13.1344467441424,-40.8750206616793,11.5007017381755,-34.5189418268283,-12.6844382948205,-2.28916244204822,-11.8299739441068,-82.3155117435243,-32.1551946753841,-61.5258221467189
-71.8756693396141,-84.9807884066984,-78.1636432807695,-55.2422292554574,-60.9070337580318,-50.3446009030173,-42.5482230996472,-35.2445962166222,-61.4178549454679,-46.2343531505801,-37.1790738591787,-50.7776096641211,-53.7710537109731,-42.6737984241667,-15.6575597341627,-58.6531929918361,29.8534726954129,-40.625629348042,-86.0404865051994,-6.96741844958223,-144.529232852345,59.565710193173,-183.974781424356,-205.547358263685,-73.2368399140804,-306.643961735238,6.35786369914102,-124.482795302493,296.135771996538,-214.223618397514,144.444880837761,436.195849439516,-34.8427498812364,0,-94.3771979274928,355.310521706998,409.787456715319,-146.945230977812,-218.142572649456,-147.334793722841,444.607644851213,337.869411577808,-20.5449606332413,587.506734576767,45.4140493017281,-30.3527337884721,-16.946498024814,-5.80649008573726,-4.78296512998258,-20.9649949460012,6.0030010974118,-17.9292594000283,6.67029680442223,2.27004102604195,-18.1324776204796,-55.323554889966,-7.93127732865597,-49.722462787154,-47.9233290168911,-27.7485355908995,-32.7777613969911,-116.192767990174,-81.7252416827588,-99.7799490042395
-96.044526673522,-98.8350563622327,-103.434767895308,-59.7008856089084,-56.1692373617303,-75.6576596646971,-39.8205745393572,-13.7207966413689,-71.2663956389273,-31.0538361423914,-8.89802620741646,-74.6460999336542,-37.9676477097825,-6.00620370159773,-21.380349487818,-7.62142282807079,11.8303364867179,4.91836941620409,2.12611656548821,12.153161237972,-22.1689259235531,22.3950363669985,-82.8892900335867,-14.556776258306,-33.0377068704508,-131.698825729764,-108.822101392549,34.0314315052828,610.958969836025,-249.30959411057,326.297684512571,498.751107099516,-176.27780793363,0,16.2949535077339,633.226684549885,514.362723140452,-96.8694933031434,-356.707562885812,-35.3684821454508,670.579941793587,445.279287269387,166.269471137135,765.133562592302,63.6453005473354,-43.1887152322082,-27.360406816429,-6.74736570401545,-16.4598522934957,-31.2732813651356,2.67900226536596,-19.3242950361669,1.66965362147435,-10.0308108610955,-31.3301268228364,-71.4198318970302,-27.7317352045057,-65.5596992468668,-78.1854124791027,-59.5614722769311,-72.0346849026524,-162.220704734631,-128.758773657612,-152.801613415305
-39.7760425949503,-27.0404320551959,-53.1636445454506,18.0376526125289,35.6634414629739,-32.221289149844,40.1178859496316,92.9816893783172,1.88919549526417,72.5012385062362,101.602547294919,-6.38039552616684,73.736054955212,119.435925754155,82.349910452697,161.009506453418,103.260682544297,182.707412192532,215.645887103558,158.567382648343,276.102068621602,41.4820578747806,207.851002083405,367.856954532088,31.5834182385615,286.602653551195,-274.424771601077,240.108868530016,922.864059712562,-243.642928852481,548.09356140787,704.513841958079,-126.324768645792,0,7.18659753876284,917.848558320246,766.534216407292,130.441227897469,-438.69063830173,138.314577295365,956.770690266673,652.73429687386,374.522914009674,934.089332965929,160.396362399764,15.1871018205113,21.6458511785158,50.8429029996572,31.2006642474383,13.8783834893006,67.7529163154075,37.2415160429865,69.227860238029,43.3960235848039,13.9156281562179,-22.2396101554232,31.664560978936,-26.2265538883357,-29.3581987478237,-23.7182417449754,-63.7270049043267,-142.23859744556,-98.4468008539323,-151.802873171239
42.5002520459506,57.4463127392767,24.6878005593655,120.284630102182,143.547748097304,33.7693707556283,133.532526393043,212.015152102569,85.2729270140736,188.985870687496,221.051711742612,88.9222360151749,189.719539979938,245.531459692617,205.660203329069,315.283207633768,216.431243859281,353.65764838766,394.129232128534,335.648614333472,515.243372049661,130.119494100655,482.161832124051,624.290024374749,140.775271237239,614.739268524257,-365.561254970124,362.271381787367,901.155731525328,-256.024796015511,637.209842184325,824.216833318787,104.129773220632,0,-155.078001424438,1002.28532434107,1088.86461182296,439.9555203151,-472.251076994532,282.176175325238,1224.19555853194,904.523203865986,517.212253492363,1063.04039173953,240.902031159976,115.210096283755,85.978716736922,142.632422716928,107.942919040682,74.5419381925049,192.273513509658,117.487432886729,194.417530898433,158.722334493674,103.703968850645,44.0613192795517,149.334436526125,28.4603211122056,68.1665785032193,58.7420903685093,-25.2918502308019,-105.034986000688,-23.4950430464003,-136.485751982607
47.2032037294194,55.4513094920925,29.0663819771303,136.948369832126,153.26511085082,31.5417742177995,133.301738083989,230.360631837192,83.2795508320235,205.49526206573,234.397507404424,105.557123503626,198.633115671292,256.845121008184,235.182616680585,321.625016925115,251.988719262188,370.467788594392,380.57834149561,410.526487687804,505.971947596538,245.871558695057,536.130260201593,544.914907158317,264.52027646186,615.753712563012,-333.195011969684,374.81245365122,540.07413840683,-298.988083444382,546.042421995672,640.057736516311,256.287815182335,0,-276.79854157307,831.312469664635,1184.89789202239,565.4158955189,-488.116193003635,320.090926425276,1260.90490609471,968.746672296814,518.901590422412,1011.74442569833,142.817794174289,158.562053994597,71.1154417587212,184.614899143515,122.77929592905,43.9059925801909,279.920049322038,132.952588364661,277.763737753342,242.712345480076,159.172250555733,16.7268769179442,222.205101726975,18.690449039993,118.496633312496,92.8325058160404,-39.2892413610098,-164.44460403918,-0.70455340670698,-215.067696981672
-34.6729421866761,-40.0973475486192,-49.8232549821115,50.1445984306909,44.645774536483,-49.2298302311502,34.5457476712117,124.539085618843,3.13268504740667,108.229798028049,115.318081682969,32.0043515085434,101.399188912233,139.770305037326,159.093830230867,186.627439608977,198.873263783822,234.364029418229,194.873341163541,332.46290806459,298.335113239976,282.394773048072,369.767886195154,251.437886983999,272.797448730762,377.612966065745,-295.496951453962,278.572600713102,144.094553115495,-379.15287627594,333.677496142913,199.469323559911,133.699512016681,0,-301.872746741549,504.047207607685,894.606886151188,413.775205774696,-497.107966245533,200.070197132252,954.18771760069,732.393839994973,343.942921913552,725.796585603574,-131.214132775742,134.041209355439,-19.8174224948543,164.618921407624,75.5612340206629,-82.6322044940774,287.42448491892,87.1503964599688,274.611593211441,253.200580199649,166.893369207175,-91.9041675415671,218.220438009643,-31.4616231770696,95.2017213952682,60.4182699285034,-103.738853180146,-307.336070509569,-46.9812663983691,-379.772753873507
-129.286783931213,-167.639044426626,-132.174386800481,-64.8714700739746,-107.875522881208,-133.347344512929,-73.7296260590805,-33.9846843475207,-75.1785866471993,-22.7976946131236,-54.4981852013019,-47.9302858096767,-15.089660010502,-20.0486413718338,63.0767703935355,23.9443419306946,128.898971157532,72.320309117307,-15.6220022534475,196.154813328083,79.7162352315382,232.724255987821,166.861200601817,-16.1610124395749,179.8999818397,151.625506333702,-276.606466871891,158.030277854201,-76.0673140313096,-389.383285727391,104.235872019099,-253.85097051513,-100.61228443459,0,-331.390144246953,159.821935330529,445.524649486605,180.89130929961,-457.789154718951,-6.49646400476069,479.674313670786,375.340220073187,74.9928085435156,342.618814144384,-408.032491969587,106.408255845782,-105.110054179626,132.620535525646,38.5937523451211,-201.536903415493,252.85002373726,58.7007146874458,227.616307669657,230.357527829397,175.649366032425,-163.257024706665,183.45672560173,-37.5319639929487,40.5280125856136,20.5649654004487,-131.923738219721,-411.558832097543,-105.01204052523,-500.540553469201
-202.552208692227,-282.243403634957,-186.939302437903,-159.727742014244,-241.070569307647,-180.306091260772,-150.67537362125,-177.849474533854,-126.148093977042,-131.473194934416,-194.499343196578,-92.4236816499434,-105.552070583357,-152.232951369367,-1.29660027799653,-92.5508050390897,83.0121818496573,-35.5063107407406,-159.53828680905,104.105623249259,-50.6970061574258,182.603335740446,52.4999161824101,-158.52729064904,125.239014114322,54.9044779511515,-180.167612067717,110.986335158127,-127.773020064229,-242.649437725035,-24.5521364205259,-476.775770155926,-208.386505742335,0,-396.194399638082,-91.4823077865747,165.238151935993,44.3133925964363,-367.253772502838,-179.950274360049,127.081306950866,123.069114125606,-142.377152522927,50.2820365877098,-523.667768378396,84.363908776099,-154.938590529966,92.4732649665551,17.7279305173224,-261.90084046328,189.532137905827,49.8307733819595,161.222440154736,181.543143269166,168.977463819403,-174.520651533811,122.904873787252,-21.1967912718342,-28.0543379351145,-22.8970656317865,-119.553925808842,-440.120764886776,-158.920420604094,-525.100123376523
-259.595840912548,-361.589580908359,-231.869371741437,-232.814629252391,-333.30695669129,-204.70141964433,-213.195923128601,-277.260722054587,-172.130886001036,-213.425980877415,-285.806253583172,-124.506708619342,-176.500950613784,-246.106912203825,-49.6304769710118,-172.232034783828,39.2395987479796,-108.587697286635,-249.981127565409,43.7570971162817,-132.183589919009,154.349263557154,-21.0010974342892,-221.924763357112,113.769178632222,7.6193200900596,-17.6096065317389,95.2237014518886,-114.276352946411,-72.8055016307361,-38.9376422170604,-452.451621469647,-236.719491989133,0,-433.26670704323,-244.23959935481,69.234860738833,-45.6391155004998,-290.589258503565,-331.010891558923,-11.9997077004731,-17.9494109477918,-256.640579400944,-95.6592629891497,-468.944983978848,38.7625616819378,-195.871540979131,22.2033169201637,-29.2200954838408,-297.204675534734,86.6414927210548,7.58448443609785,67.8261384413522,82.1732572507745,101.941072933759,-200.378101601952,19.4782670968247,-60.7088538458823,-106.072409745768,-101.048717746438,-139.319314482345,-458.805077762196,-221.355899074533,-516.839175387524
-301.273048193113,-408.541515597783,-267.580546747021,-288.492038599927,-391.606153499262,-224.795598109082,-267.50286928092,-337.695508110784,-218.765128652433,-277.470651216977,-350.43393332425,-160.495276380462,-237.234442430543,-319.151866588306,-104.007855028548,-247.658634168213,-25.0577096890619,-190.937712464258,-329.85897931833,-47.0888813289932,-230.671546002699,94.1837775531523,-140.932086504946,-289.149766387956,35.5439213572266,-99.0433279982527,80.5663255483629,6.48361379840746,-160.486750822768,-46.7284247564578,-83.0329164336918,-395.526340789284,-325.638684907503,0,-431.800541626164,-380.0406439939,-48.5802069173002,-190.706279464441,-274.088712022069,-536.550657046533,-65.47544033649,-164.88875476158,-327.737607063618,-190.004807304471,-387.966679231725,-33.9483133159453,-254.563431694124,-76.0756768206948,-108.084521435789,-345.100616638405,-37.6832404482219,-67.8106473478141,-42.2944218422458,-50.3617620712735,0.244768052862701,-270.070691865691,-101.502676952483,-149.237061771419,-180.111393366014,-197.593368693427,-203.151138787638,-513.261597536626,-283.029036410726,-525.487074880404
-341.373798304671,-459.094976563057,-300.777615591673,-339.642221182172,-448.00022296853,-255.191980121785,-317.61060416205,-396.274864411622,-262.347582005839,-336.85942038229,-415.070056499141,-202.896198819084,-300.253192125388,-389.447310444716,-174.988902370576,-337.283490452028,-105.516180258624,-302.80180741452,-423.460855969465,-182.417809260146,-357.402222284019,-26.7764626667944,-305.420130269671,-398.678437991829,-129.137567057299,-268.170011073321,49.6951921180514,-160.076780898055,-298.517913317,-141.383742062399,-242.88658309662,-421.952194571216,-428.998732393874,0,-454.757052140919,-505.330545372397,-242.512559218684,-351.835747038606,-309.13571001475,-751.00725899967,-152.469540187665,-341.321397284724,-406.239233608963,-335.047463364709,-400.631296976969,-133.35500189443,-345.009218952871,-196.631310618184,-201.278856652096,-417.039626393324,-162.252038506088,-150.872749202238,-154.108287540388,-179.709196982255,-95.3197471566417,-359.578555400291,-211.365421496646,-235.679649480124,-261.02680203598,-287.613662613919,-267.854342526643,-593.632164846886,-345.550732819809,-548.572659649728
-381.437526328552,-514.172504780191,-336.621533988287,-385.363091491762,-505.410749819138,-291.091558274671,-362.682200026868,-458.030065338316,-295.498816455061,-387.808151857125,-470.453697168273,-244.718416617596,-357.723406375101,-446.980773541787,-249.063489840731,-424.866432041305,-178.822770100725,-416.426021345051,-513.850814427438,-317.695401769728,-472.337392971551,-168.435231358104,-449.892109268332,-515.873908492529,-289.989792424778,-432.664333552663,-38.6113639063878,-331.961160634528,-429.005667416769,-244.438691489286,-421.710881118587,-431.664856961686,-437.903083927986,0,-527.164907535422,-540.370421939604,-387.073335099163,-403.033251997345,-359.520438304704,-838.064983643909,-261.746125152352,-455.686194600934,-462.108608697178,-501.568396895381,-438.000029250969,-241.675327511725,-432.394121135948,-315.877929886986,-281.705918471445,-480.00781791772,-275.862933605504,-225.714974727127,-260.075928247411,-285.178155061426,-174.240191022677,-432.006203134356,-306.356522309306,-292.743503181236,-355.884343084493,-367.64372837652,-299.244471200883,-648.451297138273,-416.351679110707,-550.795628044071
-366.820520535778,-498.363710081135,-326.997432889613,-371.644162649506,-495.074502196107,-285.395500829669,-356.084350043932,-453.528312110952,-286.714936237292,-380.582936968254,-456.99139297244,-245.52621782132,-352.854581811251,-437.451035249714,-270.712506444838,-443.744006830098,-208.037690351164,-454.119172109073,-532.742729035679,-378.60304044416,-510.182884185009,-245.101492392784,-511.115366073906,-563.607132603464,-355.956275893953,-530.121065421795,-56.6281103756324,-444.171737545355,-481.117408923647,-274.005544288489,-525.755112056584,-373.256887838103,-353.123202959661,0,-583.391675504282,-492.465535783423,-429.818432592953,-276.488984096546,-361.670770674281,-746.969712236245,-337.04043482648,-436.013287533259,-433.062795251716,-566.160379690556,-339.251506834904,-279.632800944034,-414.835669661691,-355.076697168408,-284.488517416147,-448.975809724699,-337.578830670383,-236.319893024852,-328.751621525642,-329.750031419151,-188.052670191102,-415.929755178614,-365.334903899431,-270.728965427521,-416.346113401304,-400.454587770297,-246.247108762432,-592.54267765857,-449.753568750607,-457.114046435837
-243.86331342391,-360.110635944566,-221.768337278369,-248.967051551477,-358.909084836847,-197.472158990006,-249.663355298554,-327.386915806182,-200.870787596251,-271.207392281066,-328.306855637383,-166.332107035715,-244.472561357636,-316.968128676024,-198.943869397771,-343.663939678907,-168.753768157754,-368.437199508678,-427.413876287394,-320.076174519723,-430.433338471851,-203.272954926008,-459.304259355621,-500.080668054713,-298.946237232897,-532.921512874659,54.1721183562631,-466.201874917219,-493.55465854025,-180.844588969578,-574.359253163692,-328.382137733883,-223.699226510274,0,-531.015782682997,-455.330319889514,-444.272678197861,-29.7150484285967,-244.188324242135,-546.414656381159,-366.338842100949,-332.177967523848,-307.528300980608,-484.26424934876,-93.0741075642073,-188.55770740702,-230.187405270053,-252.897799175456,-142.583978726358,-267.645979277061,-302.258655402796,-110.615459859379,-327.892945258489,-268.07494421753,-62.1051851170011,-250.820477570389,-351.268913356019,-113.593655020831,-390.257431251294,-324.682939314591,-58.9819360306985,-395.776098711652,-381.12912327546,-225.461109341664
-54.1399482741604,-162.28324044084,-59.4814288156954,-62.7533933456046,-151.083983369389,-61.4202335511665,-83.2190113354025,-135.809688917282,-59.4280225212888,-100.733238005227,-131.136441995224,-39.1305942928627,-83.063896635278,-130.560506212424,-76.1429966331454,-179.186685409845,-87.9243643944381,-220.276167220907,-251.30529492868,-190.466453287638,-283.330862086996,-96.2560551522251,-339.582643927875,-384.880157265105,-179.401583539578,-493.414974502486,214.220206416075,-445.887970390108,-528.863435791827,-9.01065933057886,-616.0868201474,-340.719895749463,-90.4158330731559,0,-361.692240890094,-457.855345557762,-484.988878704151,183.780621869153,-24.0124975097985,-326.655443872912,-361.836933961701,-265.569313852699,-140.792133187776,-348.824749956384,135.940538883668,-46.684826069125,39.5871663803322,-75.6299156595275,109.843589618449,0.441118413844384,-209.012894159673,131.590562126141,-301.356191544255,-123.063241535279,182.57485706625,3.91326107941241,-287.177423548794,132.623520343061,-313.664702548266,-153.890592511231,215.946727244294,-175.708268166307,-231.103932029066,54.8926712628662
124.840586784056,22.4414534616459,96.7167381582078,114.086861788702,44.7110291844475,70.5769022399064,74.1822129099376,42.6943489889621,85.5408277901409,64.2138941509221,57.3799884656143,83.2554844914123,64.757243284017,45.9428964757563,39.3737781294287,-29.5949896763359,-0.668570149589744,-88.4695058758151,-90.4613650046143,-62.1927676944996,-147.929769675901,6.30325396138684,-221.431835131487,-298.560851398559,-70.6903218944419,-476.742502832559,329.064450626967,-453.223725142118,-588.341471133579,128.272118759097,-664.443141866706,-357.053720859297,29.162855362191,0,-163.935941990941,-447.126479243324,-506.069245340966,290.409150526375,190.356530136611,-131.609143324921,-309.346635617897,-246.294921553357,19.9843895878093,-229.936769425971,277.410577351542,33.0745189691565,264.285374135654,58.5227671304675,346.702080143399,237.917248101669,-143.274627203248,381.393389185825,-318.203487587374,29.4075930017804,425.349903857079,223.139168125202,-235.358390705847,349.768868570878,-257.204994357105,27.0284250168844,473.85947027528,-55.1109462905836,-74.7049594949113,272.452409370125
296.375401121481,211.871989835329,257.001001649979,285.745644538531,234.213489839147,213.158042897547,232.683527408007,220.868572437703,232.820338297058,228.549574229298,236.829747189108,215.243762179563,214.383834966152,213.155069982318,160.524413619492,118.982373030976,111.894029516211,45.6734160084919,64.5387712388797,73.044838730422,-12.6996249139084,130.083268322718,-94.9437446535294,-207.559446439522,45.1850670206824,-413.849788952454,427.889487916966,-434.054685928397,-590.212168954704,207.212780360129,-667.556842839719,-319.627618715641,175.116553245329,0,-6.79593923644991,-374.933909481918,-429.216891608243,409.561525092117,337.850477040205,40.4192766253119,-195.359016820799,-146.506504610376,179.794543693481,-89.2637187157244,465.352640807741,60.3765184127858,383.412301782005,110.99914040165,463.016776945292,394.304207050734,-125.753296736498,524.79180546247,-347.126925516579,131.538253151935,540.528242500202,367.01707378862,-200.143594218016,456.612161267071,-204.873277621927,164.611176504787,650.426095257745,24.5618211064987,71.9166150612678,439.808454831797
455.630802941406,387.818019182419,409.952618749314,438.416001103641,406.32608995409,360.727955555341,391.471089290589,389.840771910554,371.451806590881,380.838915312993,398.831312849858,352.119999794364,362.486090198448,365.971273253154,283.518522055256,270.324679274446,240.972404525786,190.742441010539,224.207213899732,212.128388563347,141.419875038945,275.996338501556,45.189313214648,-59.5966909129949,171.314218582393,-226.631064138134,536.655469333112,-308.653291627982,-454.754399127843,267.088215279594,-543.650004331828,-251.527519820942,328.106813687795,0,97.3036196164927,-244.742335046388,-290.352307920397,602.790388526843,423.867867787916,181.18504308358,-76.8343609390049,43.9990847378995,319.411318995836,59.5758622725338,725.860121651254,76.8742564771978,351.564768938667,64.9916597470979,388.698230685008,440.601913006822,-162.228399253412,447.437746820819,-327.835290360351,100.550154408128,399.84112520475,418.785011830354,-177.153941925392,368.929838234402,-114.853526853422,235.249707933722,661.462571522897,139.527938599366,212.916501181691,562.005969832486
496.915596526961,429.840396219598,450.428180748979,465.328072989981,447.110183916369,411.5926574116,445.481672454576,433.851274212519,411.413412365436,416.873203329392,442.491230562821,392.405312992587,403.876613123136,405.34072386832,316.588885890868,321.094561230876,286.336230919607,241.246369726468,288.982812474288,250.346567384997,219.676085875209,326.808393343657,94.1597066723685,62.6447438038806,193.125772028685,-44.8231291463503,554.019324840297,-176.345806332353,-238.979108960155,268.293724498817,-331.898277486205,-230.577107266099,339.581707061834,0,107.311352260227,-119.078815576182,-232.457811736479,682.258083202046,417.574498502687,231.711235871892,-44.4015723029699,138.238882472482,365.230070193927,97.5094674476041,835.220508866034,47.1116969855989,155.160417716594,-96.1407108570941,112.908801018032,334.790478761741,-284.45776623061,109.951931488722,-299.727196075163,-139.306768193884,-53.7692363791773,297.22519477776,-208.002318960243,29.7760286128876,-26.5122870383504,199.281139269631,409.662366731302,214.688610631156,298.439911630657,543.004535625104
394.813815928964,322.468078490717,357.53569788501,348.716008260339,335.220076339283,331.777582772644,353.767536759245,323.88100108565,326.260529175837,311.486893345144,342.493199136411,303.280251198385,307.369610825132,302.396413464223,229.248430720496,233.685749554712,204.549601431414,149.016964096843,213.687264662889,143.646707047338,160.423811506097,227.647500354733,2.75395759458969,83.1691175912051,65.1092457144698,-20.4899268686013,431.693535210205,-162.225504316259,-88.0260609711109,182.207554125269,-176.042295941624,-278.401124201809,154.227694063774,0,9.86621895022658,-65.2985090936583,-297.332396708521,505.01702703343,310.53687638615,181.620482804451,-110.85458203946,42.1009609825924,308.873040044492,0.293503422148991,680.597257031871,-10.3786508443465,-42.9989457981494,-239.178134978291,-178.073718069842,180.430396642871,-385.504481799214,-257.198536958621,-268.25003998366,-424.60666250773,-566.75292973355,79.1556372264745,-228.883058152662,-342.624008047337,61.4811100057795,109.268214656006,31.7405029064093,260.484005804746,336.576532292237,427.991145610242
299.76114459764,235.06219046556,275.900736240545,243.193800428712,235.966096176539,248.112676746289,246.056774482313,209.342304503559,235.460049024933,205.175940832433,237.172057053592,211.126871349381,205.891667104423,192.963938869568,129.751844775905,135.835061829025,92.18672302997,36.4997511281878,121.436617915744,5.22843704631669,73.8066668385729,79.2256561732425,-94.5076919564393,86.5823394399763,-81.4368525202034,-57.0964503493078,278.999135675277,-169.340595370385,-25.8829887880982,112.058198823331,-76.1097491603638,-313.880825583261,-67.0959116208231,0,-39.7284187117475,-44.3479337635846,-358.51397241542,204.747751755496,216.042780667817,174.643096687102,-197.819315134399,-114.689733415297,258.063283049471,-105.905372452111,441.775668534216,32.8416186355783,-4.06541730105309,-147.341895745085,-196.862838083631,205.298947675393,-236.456580027118,-290.365827852199,-95.1841784225804,-396.115108895685,-669.068928825966,65.6898705137975,-48.2880252685143,-336.07480214912,266.650457027978,162.98757253046,-92.0243719327302,453.102687855543,449.77808630861,452.355841550744
294.954422512887,254.474243162382,282.446427868698,234.043064023382,241.687076103641,237.089456101333,212.561348220548,177.680763019418,214.720661498075,180.64066759901,207.298583714153,192.666019510967,177.281266681332,162.164429859139,83.7463530748281,109.280872734295,20.9111289916188,-4.73373330266593,100.881850942613,-84.6214491928488,64.1637101531451,-59.9882968613565,-85.2307288215654,149.747916655017,-166.120004719263,6.94415325595721,124.340694660221,-56.9774241803728,52.0456260197766,116.916556171258,88.7404271108818,-238.586094284308,-144.940556930463,0,100.76359000456,47.8784421413044,-297.249156085626,-27.1454056339311,214.467608213667,323.418881829668,-222.738192883374,-181.461862114534,287.520866573994,-132.041004108904,288.343217591794,202.968192523261,263.723225574861,163.31902258296,73.5810060823084,422.837133677414,164.560734621658,28.7219665402145,257.620929665916,21.4596659099607,-247.384608457203,343.717956133666,341.401434334694,100.798754058705,580.295812771683,436.044251100578,190.721126614022,769.333605227405,656.325691938235,655.577731812407
272.203215328292,246.0047099449,270.652212739005,218.858726769238,231.234812941312,211.706704509897,179.123745496663,139.026730064912,189.018072462877,152.128108901138,171.467694711636,168.214498063951,144.817386272364,133.166603589787,38.1384098442205,82.5728963406136,-37.4306775037085,-30.4848895822903,84.3713062805782,-163.301544721648,79.3247107886364,-246.067174587663,-39.8677893177992,198.712466062052,-276.164863719081,113.810309739121,-174.984854407856,81.2560668131436,157.873117677645,53.5911217484514,256.517894296356,-46.7413331896035,-58.7233292738502,0,246.622290257783,194.184710630769,-116.953799495586,-145.64679686218,184.163145094106,468.442477969895,-164.047320241615,-117.129713382547,319.399511113787,-97.3233148639103,192.225735678372,341.40159631112,486.81623290589,420.171945888436,324.016868884015,565.595266071593,508.591313582278,314.6499250328,565.343419198246,455.081363146557,242.346973412289,598.887600424053,649.110390652957,523.338636265428,766.816452110392,697.70619570439,565.767772857292,919.374113669141,768.268976492306,779.993197192145
165.346254340246,108.636917097802,173.091687045909,133.913970243622,114.087237270864,119.948435164122,94.4721516169628,42.6441589646985,110.121062631898,69.6602602866947,86.4387033003154,95.2455999354998,71.3323729603403,60.376989987479,-13.3549707417883,20.7643404828919,-71.1250063065248,-70.7459342611064,25.6148591372117,-216.470845408304,60.1637326904185,-439.497629755276,-40.5518254258068,164.478798038267,-429.440916879658,120.853109229574,-611.273471301592,92.7025107078877,208.086691905703,-180.774563796099,253.989659000003,182.816136111454,68.6294080113555,0,100.987615055898,316.07392496863,98.5321359917918,-206.993768710322,-17.9074688627956,396.802351309854,-53.9353718817536,30.9941055228348,252.59152488753,-27.7166523950561,81.6461984549402,347.038617223807,511.091509468887,461.172926194641,357.374174870911,490.900335414244,578.740458721598,317.992484943656,628.800733965049,585.577203622776,382.218374439779,586.97540965781,666.792099294812,598.778529123628,694.930001693057,725.626185464323,705.337796594596,782.686140787077,672.581760147901,689.585633191173
86.9230072686841,-36.4923972420817,96.5260562888767,78.1864884402131,-1.05327110941752,57.1981074852775,42.3073362857617,-15.8457105831967,63.2153462568833,22.9356842027315,36.4722961472175,67.1006976172708,38.4846810562157,21.9063184821652,10.525793678049,2.21981929029673,-5.57655933892154,-58.4335135301382,-8.37745711426106,-151.331561463641,47.6916773189324,-455.843266343961,-42.9791964171194,97.4851068527125,-456.555011946242,54.8610799773354,-879.353745623307,53.8288637884741,246.813937910557,-390.212056975809,148.127650973808,358.632908346212,79.0963349817888,0,-242.940396812595,450.724532818028,230.452712276574,-303.268318959945,-287.171425836588,198.815466981365,35.7602438926944,140.651184711208,119.761885627945,61.132051340665,-47.1030527355592,316.659032118043,469.348377751184,405.79681962097,321.85936946245,375.733094754523,494.911829126602,218.196386903128,536.550458325219,510.500064325995,298.317482552045,442.378330626942,529.746663368506,476.78650919274,527.598542539369,603.481202704645,659.630603973565,572.208456873021,511.149318868908,552.265710728807
112.971394212581,-52.8731320058076,121.572334698558,112.207543093006,-5.58361282320865,88.1902215995044,73.1872925608554,12.5250084633156,98.6051277257988,58.0707814313027,56.9171525804184,127.290875837529,78.4715813400393,50.6826930067111,105.808642431209,42.6465676931766,134.038906288894,5.18480456755868,7.35864321620741,1.94765753116283,45.47267764864,-247.073535465566,-34.0151218032954,39.5522645256608,-303.249785522443,2.68978404660363,-782.017267560419,76.8882786163403,383.995059731301,-362.743546908089,151.177388349269,399.567232771623,-79.6832171894456,0,-416.397568431579,592.409271558898,191.873315235364,-493.671656187119,-395.960937618709,98.3328671908202,10.0030416366225,105.634065657078,-11.0361005023767,111.313534792874,-171.146764545153,327.391009655774,459.109203975576,371.54270058309,349.026260780053,363.836008380762,423.053594962806,227.262732608251,447.670053875504,421.479600348336,268.073951355052,347.230066048945,413.422371547217,393.654168177072,420.931865262571,471.574456991958,578.297945438952,466.626618506604,412.925010288251,501.616189305386
153.358341209644,8.91636097003015,166.631952552407,150.636613642717,44.7719071141464,137.623483307574,112.801813223622,47.9746440861013,136.378441335489,94.1873749788595,75.1378021880425,177.536907411227,113.252624515264,74.2312606331598,155.661072154634,56.2763858422529,211.994642014049,20.7649178895324,5.78949113173583,73.474634296237,-19.6794396661261,-24.7296265095309,-109.926037771854,-42.3055647868028,-180.557890772801,-88.6297826980993,-518.170912096788,55.5342811526913,519.170781284266,-218.138068260194,251.586942076221,304.743739263176,-259.82761738608,0,-318.458197960551,593.636521040746,82.859729488962,-666.02140311015,-303.680469501573,116.911304895986,-115.397770167783,10.7912167962159,-129.025912855467,119.062236508939,-230.691527115264,308.099622020295,384.55178764742,300.228788530836,321.99986464567,348.057490109838,330.602452365143,260.554595869088,345.510232451828,299.34944296038,251.018286669324,265.012993867869,281.252859373362,327.055173494571,315.877846001726,294.703879820097,432.87463453763,393.966994711493,307.105772894414,451.29309481584
152.148793445793,58.4570412388487,167.230160914701,149.635663545534,84.2014338384821,149.154958583042,123.84769427469,64.5176736351949,134.583074001194,100.279261085756,79.5590252788291,163.420285056777,113.732669771436,80.7900208676403,123.100272946166,35.1616029334463,181.057074327867,-26.2777434678581,-12.185813681326,3.62793604169942,-128.109808637238,30.847690928792,-271.765551457937,-134.444818749121,-199.716116497025,-259.687437251381,-333.141746532651,-71.0342712182832,438.301922077156,-130.882211869758,281.543839976189,224.810175408854,-232.106737662166,0,-142.393008749625,449.873913896764,170.945759687468,-558.959916427753,-146.072031829764,159.707357383227,-129.719290707425,95.0180198685219,-180.235105468737,223.227762782921,-120.688471821235,240.942832338966,240.843548742541,179.572143045724,191.06219669712,260.918295477522,193.916088636881,201.246090257996,203.7312147563,139.748267929155,149.801425039914,157.734062625193,122.179925209579,215.390031917598,174.064390722159,100.257191545159,243.205902364998,267.742517107036,165.879085527648,342.942760893901
176.869248943524,113.361012782346,181.261465444143,180.899725311562,146.783566327898,173.758673381677,166.59347495361,131.269225851628,159.607354046174,149.13827819888,142.743751398644,157.051168026861,145.648511202086,146.927574138425,96.7372678403283,66.7261604349599,126.961004555838,-38.9087068367444,49.5426191467688,-81.4092171258416,-145.540355829933,-14.5914147340009,-360.797544559348,-121.208464424684,-188.930814246287,-351.539986175369,-183.640051575614,-110.704827240694,210.107908460487,-10.2592301956096,263.901230375898,306.728924429705,32.2970545342803,0,25.8425575031278,351.533476145716,536.468097908706,-75.1774763991566,-8.41543152342994,206.094526306786,139.647645663167,425.777562598812,-89.9298250052118,499.616636972457,163.470514477871,213.979694991507,178.764120069186,116.378394781979,105.892746347706,214.99346496424,117.862316179833,116.745019404961,121.712469638918,72.4592433994347,71.0177262964805,105.155768739844,67.6459765472198,127.727278352046,104.608591118663,54.4026768885538,165.889897855042,151.191492797513,113.314033935729,263.903182980624
240.667029937966,185.395651576193,233.063664186015,255.821981240367,233.61021832705,230.191761508377,243.28995893908,236.097288124431,224.368211220682,243.893159060207,251.368841416049,191.584183707567,216.155084906592,261.706810242754,116.614068089814,159.301871259524,100.495637594372,16.4342520216514,199.988490028493,-80.1078980773555,-24.7346266053183,-16.7607414053744,-282.265145419459,61.2567463004521,-17.5538456414561,-219.372820458191,69.0689906939986,54.9965439471974,135.77841253345,250.058344147602,347.298246057116,462.1077734258,293.26664132306,0,265.16264542825,353.048774844949,869.264196932463,487.452649582442,142.333173150589,261.950740973245,555.104957330288,719.499574074691,95.2243933912373,751.063791982091,416.181458487081,227.69256016449,216.669867138024,128.636042600986,120.296704228151,242.15672272883,134.507950561007,68.2775635865386,143.002060517414,116.238594384879,78.719037343428,109.265826809474,139.070753273184,90.5024318722712,144.139762323858,157.721462109883,205.103527039105,116.811123920448,175.387558376616,251.677541109522
246.000134174855,197.066765343633,237.576715262906,267.846216898967,248.08229281009,235.617303138214,252.005297644381,261.521969373174,232.842889107609,269.672852242361,283.064896513875,187.780339041991,226.560364627973,297.278523542556,108.794778931724,204.598661503961,57.1213515758552,55.0397173559354,297.064887582572,-41.5621107432307,101.162996270288,37.5664842604302,-130.881708486744,261.907569414159,196.769934024284,-1.84983449337949,365.974817723459,236.24484435865,231.964300127918,489.59716486431,453.934118815618,436.750251188972,305.487061726025,0,528.158559899869,296.449147754761,805.319327666281,666.530440066867,303.76453804208,274.21026138451,770.682934056844,629.117129534357,237.659512353273,692.100776088544,369.82178419319,189.91588018298,198.773644058447,120.444230408013,108.404174695982,211.695742865838,150.500757102612,1.92215463304652,172.219954251231,140.127242098435,59.494285270189,59.4157372035924,191.644352770138,19.7380624506258,174.888510898152,209.334364082375,174.897617067578,124.228226420224,208.396886891045,217.665465798627
128.345463152162,86.8447128796126,130.298445098078,148.548516741626,123.910150164464,126.573059307925,131.304518665164,149.932412430954,123.078757771905,154.171806491602,169.822209731024,85.8463581355174,116.538992758026,184.874178365908,18.64759084953,132.949470393783,-37.7736577597673,14.9950728550092,237.36070697888,-49.2696883629459,111.136238930819,53.7826570167503,-23.4569252892986,285.075876798076,275.743559700452,98.143990839434,489.803819699938,239.027926570245,223.030367358429,470.164260603074,397.420672780222,161.298066555068,88.0765195512762,0,604.51591745106,107.975235279117,374.185756275736,345.140958445736,342.997880941741,186.324759900454,602.977826396767,173.65147208658,247.738020545275,295.168791005285,7.95757803230375,77.5396763927361,51.1938694747695,41.9486598676949,-9.21963132319785,59.241993412366,98.2134768257502,-115.75657522621,125.51643021063,72.3434182487487,-60.742696424411,-74.9426046828701,131.039984068075,-119.356404531096,104.468018184776,101.788971524896,-1.86753761713479,93.6777450595267,114.794824367721,94.8796356705762
-50.2411898908287,-90.6825928072789,-29.960624929822,-30.8973583088126,-70.805185607423,-39.7222033645211,-43.5418840503304,-19.1054238432754,-39.7230414011769,-24.9005683496355,-9.52975828744692,-59.044612637152,-38.4801422732677,10.5288478316341,-93.2724297302764,21.4992156428725,-137.779531813881,-35.8231802213506,115.062106967151,-71.6483990605444,98.4528405130938,-8.39635544048736,98.8629258781285,219.366094545475,241.42167681646,194.4890535464,367.778579013156,210.075417789718,101.961102553404,261.94357192004,301.186678450296,-100.515915419998,-89.9863878034884,0,462.258216200232,-48.0049315695829,-49.2165338493848,-106.889549041627,220.740160199396,83.9470707040246,240.434909004803,-278.250574395084,176.104937923037,-171.76614904306,-349.445781129975,-29.7230180756682,-110.051243926749,-53.7367258807617,-150.317222878533,-106.489196151617,5.88396799254642,-213.664852841134,29.6389338500013,-30.2231027905866,-185.103590229457,-180.458600518884,8.54473031729863,-228.063218051142,-24.0167987987572,-63.2095444227632,-181.895149029489,33.0651268784205,-41.2747900184838,-58.9636065429805
-166.876044353511,-212.331682300477,-130.328009976213,-147.313125123261,-208.851819935288,-150.570324656012,-151.570478354161,-130.809271444853,-144.602810363237,-138.33921623441,-133.675855805803,-152.332498147518,-126.978190097444,-102.188189135175,-141.955165960908,-17.608462376359,-176.687723143231,-5.38031398312697,77.5005922662997,-16.229261662848,212.209753038522,-61.4042878490122,347.407426884467,299.008067975204,301.638561839625,509.637177748274,222.777526581496,426.014470286339,139.396351872731,227.682990221583,450.33039718642,-90.1033007429515,-34.6400161969875,0,389.098991992138,-6.90643421262184,-227.569168993667,-353.658586437393,166.533046690673,183.769447983142,9.09491871029812,-485.344598443117,179.371204622372,-445.078188753313,-437.379142137383,-52.4002285900799,-146.858773555282,-84.1948764451616,-189.409894926702,-160.300524716692,-48.2441185633377,-207.780549144119,-32.1922094787121,-76.4793551473289,-191.657778932865,-161.168546584037,-69.3963614955637,-204.686310180044,-105.945773594937,-142.500142564757,-218.574836921765,17.5774882852317,-136.024581326073,-134.864164613682
-179.134009959008,-229.714409683779,-143.412794969451,-171.479390066057,-257.451459190339,-173.422471024688,-175.401864511501,-166.575103602187,-168.195413679269,-168.279708982187,-191.059061706597,-179.07689469515,-149.593188441291,-146.7740580382,-143.232071053648,-11.7585373030569,-165.348208076476,55.6442243841264,87.0010021823076,95.2498842772696,358.64149207308,-3.13347379053483,606.355476608094,451.396503517089,543.161324228904,879.238397294217,318.823687734274,821.100899194298,323.006199406777,529.481119768483,775.328217016683,71.672994849303,91.9091056054041,0,611.473307539258,112.2279640215,-323.316316280712,-507.413137119066,366.177478703349,521.582193453488,-40.8373572101216,-576.108001611217,303.807811128203,-514.893121978768,-382.9025367478,-7.52544999828098,-82.0543248955549,-46.1296105951061,-127.508354259843,-119.694269436976,-36.6287144899728,-127.800700120519,-34.7999821436858,-53.0242761869578,-107.894889325032,-74.0444000790551,-67.3814710859683,-98.9243326369532,-108.84954233167,-129.539307377636,-153.534683503615,56.1842579361543,-139.789776366119,-116.721275586662
-163.830280153947,-228.495717268785,-139.986700636954,-180.77764762936,-294.862568359954,-172.267182679946,-193.423210596551,-202.069205115185,-176.556378717555,-199.30912856971,-262.588651749458,-194.213146569105,-189.596766624899,-209.910262560812,-163.770894036363,-75.285997360033,-160.066011744757,21.2766500344793,-12.7775178521032,145.852148599412,303.016043995236,153.483864766159,623.476789844355,361.466279527132,775.573716637754,906.046877625238,638.317319477473,1024.89542581919,321.825312872847,893.075991509074,886.786320096286,27.5798795848938,-37.9267222340546,0,938.885135132509,30.2284448394022,-606.665997378643,-791.692497928037,638.656466979718,782.263732113172,-179.958758391678,-759.379573202325,356.897489135249,-576.067139088383,-455.458479256811,2.77130142183418,-66.6227560139867,-36.5824954907962,-95.1560244897884,-109.254382484252,-34.9818767294218,-93.2705248115458,-49.0373809407488,-43.3617728264458,-64.559836998064,-47.26106233968,-60.8318504553221,-50.2421126683853,-107.899823806534,-130.909323641859,-126.977391145509,67.4914190650995,-136.759844153893,-100.877847974213
-213.640623442916,-306.179541124749,-184.748358355894,-250.987695178897,-391.241916137294,-212.535575887897,-261.803737229953,-304.736378379492,-224.244152713251,-290.171930818005,-393.900015749072,-236.826125383439,-284.918615572004,-340.068889685278,-216.339347020763,-231.191418155662,-179.027328297387,-121.000784755796,-249.598894708995,89.1714418863398,22.8520305242569,281.544741361279,367.695279871798,-28.6459045234704,769.920690904395,539.788104959989,907.560533656416,844.193652945398,1.39424709466888,988.682499257353,589.237167102906,-390.581463780853,-523.84096564117,0,989.421133535172,-331.397324070231,-1115.95469406088,-1153.22905095714,671.294419924955,654.402845341838,-655.382021056448,-1075.09846238858,124.442576556662,-813.861807159178,-706.684704843569,-106.560021700865,-207.421835486928,-145.381116181977,-198.639351701586,-222.177535024108,-142.795071675647,-182.215878702415,-157.101776991293,-138.449686351238,-143.059479073778,-139.246318481268,-151.488471316897,-126.87734984429,-192.060333455679,-225.871517168139,-211.195041317088,-17.9209720960051,-211.106559066187,-179.181634047404
-329.521617174941,-435.409157974245,-275.026391273299,-375.51992378092,-523.483794155886,-295.811334177695,-366.21305373063,-456.528338356431,-303.694297075088,-420.874717827021,-545.90421974744,-301.12470120935,-402.156334395157,-499.207440255918,-276.65369498817,-395.866242246329,-213.469025533163,-270.408610236167,-492.697032589783,-17.550306456488,-264.377188417306,268.593966943143,73.6505220602511,-427.728689889178,546.211235697046,132.233960194532,925.297777193979,475.19277050905,-406.348032863833,825.132374218606,103.518364302741,-1002.41698823602,-1189.02430944915,0,710.571146759528,-775.979526813569,-1678.8536229827,-1430.38000249102,445.067181955312,251.04382911037,-1375.22342771953,-1450.02694512184,-325.172844345753,-1198.25809332447,-1013.51350071749,-315.365285413135,-441.131655678471,-346.82809439809,-398.755224489997,-416.174939287519,-360.455787776539,-356.010408077645,-353.006371860679,-342.560324564485,-321.854787142495,-303.579085336356,-346.445630484432,-285.959943260234,-358.087558425836,-401.939781107262,-380.901266245692,-172.296318466674,-357.595261372379,-331.588372188729
-411.679141938865,-498.422634190879,-344.000856921513,-465.173775517356,-591.381293794671,-354.841771052169,-437.945964494771,-552.19377869202,-356.02320748618,-509.31231785758,-626.343462266962,-341.564456166726,-473.31668473397,-594.681780765173,-309.958124037341,-476.067632320078,-236.760468067103,-333.901644132839,-608.802484477018,-81.698184707728,-374.990900218992,172.383946510026,-45.3250452088741,-582.917072787216,342.818746497262,-23.0910986300502,792.467345577851,250.954331655516,-625.366443084372,655.028736197635,-188.95755240507,-1444.18084889942,-1780.56043552637,0,479.561710199584,-1042.67788492127,-2074.53589504314,-1567.07122952151,232.490920735024,-7.43395946556755,-1926.74694062183,-1749.11111101967,-664.531000319068,-1456.92041437053,-1253.4081492731,-512.952958845689,-572.949428324534,-518.256074629335,-538.581762824873,-526.017275040962,-564.29749176316,-485.621842014337,-525.881171234976,-551.910076457275,-495.497297558378,-420.870418768596,-529.732722026792,-421.144267887253,-495.513577352173,-567.538838486601,-537.604399774471,-279.947951514782,-481.849406949104,-430.710596142587
-395.584535946613,-452.606833512342,-344.000951235502,-460.933855329945,-544.918476177969,-343.59397156385,-434.770574567243,-526.920733543184,-351.192320639955,-502.4859579798,-593.898854003775,-333.687125117811,-468.488234888538,-581.024163744573,-303.88633234938,-461.889831688075,-232.260536294925,-321.459354004913,-595.958701860574,-83.6117836642195,-350.255447486834,115.108272696793,-29.853051416348,-554.242512435062,273.60976768647,5.86303550764231,683.736464680872,240.545938171752,-646.876753737186,579.103384294443,-189.955245008594,-1512.57935960764,-2115.38006693475,0,550.850731415961,-1057.31302830436,-2227.78813729439,-1565.05470881689,195.060568865465,42.3178572673042,-2001.15005179559,-1847.18260205333,-706.049247069017,-1391.63284913662,-1363.23147484298,-616.105600301691,-521.815649417137,-583.537495888149,-536.599929371996,-476.549936773495,-642.719361671602,-502.225923671384,-579.274067086909,-654.998306495509,-571.399538449089,-433.159049931206,-598.46571638848,-475.883196681807,-520.20421775267,-634.416102766857,-600.9301849422,-289.603789492227,-509.33025236476,-415.564982979804
-366.379864675733,-400.442377438686,-338.035731402194,-437.915102223302,-479.104153444266,-333.008136243171,-422.025027406443,-471.23143766626,-359.917914498609,-475.730850728834,-538.881430794039,-345.685317044214,-463.236989643555,-544.987148771542,-332.406532387861,-459.474890188472,-271.139951653478,-354.881622523884,-584.7311325537,-152.386709141796,-384.374008162423,20.2462516465718,-105.77158534646,-575.244560013743,138.420161443399,-59.05491514493,507.399709738364,150.115979164244,-686.41868809102,399.122534566726,-247.102916754388,-1362.81982225467,-2130.97991309544,0,616.726434206325,-999.390752680267,-2253.98479931111,-1445.35209196155,174.675926742061,73.4075713204874,-1747.19520001279,-1748.4224291587,-635.170365198436,-1145.30047783807,-1346.46844075534,-635.594606925084,-447.57091257306,-584.481930490569,-500.796906013822,-418.567678820505,-624.151074024478,-501.668591805298,-556.717613542986,-654.818309247819,-587.47278589532,-446.700671735632,-587.536301887441,-520.134099581687,-493.385464944261,-622.184411710401,-617.869344886228,-310.206977099163,-491.524896802487,-403.159148888776
-394.566694510506,-400.468910969173,-377.71788608288,-458.164883591301,-463.733034083856,-377.338387690428,-446.053491172088,-466.740653223243,-420.112016222683,-498.084597192743,-526.277420112776,-419.334402342614,-507.337275623147,-550.707748249956,-442.22301597352,-525.098218889655,-408.254662953275,-481.742711010947,-626.046022341178,-385.829165602114,-527.780666768496,-279.861956420458,-343.831287328634,-677.506831381945,-237.904833961684,-297.505903638613,74.8548686638907,-231.606761451362,-810.537792979809,-27.3252656447374,-636.796884284579,-1152.7074441926,-1821.13402791359,0,280.837540255891,-957.639682429618,-2096.8812298331,-1175.36513637759,-5.19426114671215,-167.619735922254,-1462.18341045766,-1450.29595108437,-637.423743515429,-913.12838278868,-1175.8060652,-590.024567937276,-457.525891816144,-545.108401582444,-508.428900939033,-452.277222325859,-567.647462864359,-547.423122287342,-526.360953429131,-598.024691214562,-599.735123181251,-519.269313385108,-551.509275230575,-584.60959638039,-481.320437612251,-583.815257233804,-642.709235239817,-390.964796250113,-487.818399491783,-460.00562799687
-356.694793094519,-316.750498581357,-353.064367236531,-402.717421129146,-366.024002785316,-360.715535273753,-391.117316590974,-395.712683223802,-407.037356400906,-452.592277770051,-428.436531585457,-437.258555465946,-478.513548350664,-471.359568014479,-512.055557507335,-519.058728380618,-531.536831450649,-546.95943329216,-559.470391333378,-648.285252935246,-582.268287982762,-723.318179435235,-542.51562669875,-625.647465264746,-678.069868396034,-494.274142798293,-516.054626830605,-674.617975605582,-779.640860725953,-489.283690151261,-1033.07832776859,-706.6037538746,-1151.22171677795,0,-246.264719423685,-699.873024904424,-1413.81562696721,-574.410924461583,-235.466852323892,-378.644859905042,-1088.03950954057,-807.575832697517,-535.994775556993,-582.882705868619,-714.760361888736,-436.801063513526,-382.52672511597,-382.843783268566,-416.328365432035,-393.713341739053,-413.27749692908,-482.854711653537,-410.648099691032,-436.178067966107,-500.591416565365,-462.638221246295,-417.390530888711,-514.768328830947,-391.710738147425,-458.511927404136,-565.425667660947,-341.100387908536,-406.841052648126,-413.995564707157
-137.866606425386,-43.0803138801544,-164.601067395561,-163.414152026448,-68.9473205399699,-181.287799317132,-163.43170887594,-137.152395417391,-227.37144606196,-221.114940971904,-131.081580020654,-297.127294002157,-272.389455663129,-198.527648842941,-428.128731509347,-325.412538033117,-517.375708125912,-434.744835449456,-284.769717036714,-754.964711708188,-449.181288726094,-1052.24392415194,-593.642141405033,-351.907389458669,-927.993915337573,-568.831761789149,-932.206142438671,-904.341292676045,-487.240340077542,-704.16317374509,-985.577141095327,24.171386764495,-148.77503895868,0,-425.251372257431,-131.021231352043,-187.866598922471,400.137839522097,-289.439365934115,-187.772206730895,-401.836191034934,152.296232544379,-129.587193752025,-1.74343316735645,29.2435842392364,-165.910376624063,-83.4534110246153,-71.0077205987169,-109.988957837877,-86.0998172267322,-111.229215427685,-175.124537221769,-130.320378709095,-124.277681018858,-186.696092214002,-131.336490243187,-124.866817244651,-203.067424799805,-135.332484235345,-178.393398372581,-282.559706439923,-23.207955292163,-157.23593673647,-134.412693952641
133.209305510017,275.281369986423,74.9669321859994,130.155447669423,279.377555190602,48.3485864399014,107.625886362482,182.100101771519,-3.2924398272228,71.2268582663767,222.556118195641,-99.4512698233153,-12.4165284250014,126.771525928329,-272.48243725545,-73.2553367944278,-417.638238383446,-264.009400248485,21.5030212942061,-716.380126935409,-309.848716844826,-1113.79472639504,-648.607393943039,-128.023841819961,-1026.25372065719,-734.325154132696,-1015.69336670194,-1026.02213465826,-249.915168640801,-694.837063358949,-666.620304655219,580.401707907805,930.27436333666,0,-174.282026234695,360.050417334279,985.819768904585,1317.49979590757,-139.446328553595,211.757292991643,443.492425193922,1008.16102123197,368.304365735196,611.307431511826,681.695762044203,108.563770655535,264.827749031588,238.648785522419,243.305733695094,287.370067146606,206.455625477893,209.397096620305,188.018424865485,211.222319011416,190.15787248946,273.101410692332,196.565541675907,172.379861717853,170.896297430718,142.782660825954,57.4199936694219,351.105958044071,143.846452871163,191.985919806133
282.88638832748,455.696220106736,214.410079747604,299.603086049358,482.470890901227,185.264632602761,264.482424089865,374.373086514844,127.461938257891,248.450329948933,437.734778348486,26.7720705193871,149.706976149458,330.446221711082,-149.989651445205,92.3861268705446,-320.981483028747,-140.03566690292,203.202934267469,-621.166921712465,-245.896072378924,-1002.94422454547,-737.261524575742,-67.32715064733,-1147.39809767385,-992.29498267306,-1009.51098483664,-1185.34413767362,-257.639151084739,-691.984614812332,-484.93639637526,691.065153824039,1709.40299256893,0,124.951198661603,480.707623353836,1630.16099371039,1689.67078555895,37.5647964174422,372.674319586777,1058.0218985383,1418.19084069791,603.247042852029,918.280748419559,915.620462596489,258.917317037686,435.155651451878,397.767762087024,424.182364742666,475.407060374,382.774912531489,427.556906461105,373.832142466382,403.525126342456,403.285469778946,474.877808932251,385.642407005456,372.074745907424,362.965669156475,336.396055595039,232.483336236118,506.503411110508,324.616106600419,324.770333841764
339.670288996922,526.27543730273,280.014891171017,367.066750013317,568.773402147071,262.33314570625,345.278228038998,461.554383623788,209.478447003887,343.355184072913,543.017656952938,117.369733119895,257.62420324337,451.567725893599,-24.3574649741095,234.764826718349,-202.227145825889,16.8785881024296,365.175087490995,-482.142537765576,-83.9150156139908,-915.86204960666,-664.073405857804,94.7446308331982,-1297.8690046449,-1008.04452687385,-1260.7582728407,-1252.24253416773,-151.308975462929,-856.460969217395,-371.004274514288,824.39204495326,2094.11696148187,0,186.089216165461,578.087206371795,1963.43924879099,1604.30059665819,62.5732974770499,244.038664955838,1374.94903981785,1573.4067692082,580.078954594443,953.380760012612,926.847912601825,286.396412118155,444.856467805124,430.367138661612,442.389465999621,497.588874197514,439.290142526757,474.31098911966,448.234157365054,456.324106790291,440.833753285333,486.262962840598,460.866086164271,395.590547086311,452.99351167954,400.475969828249,242.485089750948,476.065047581798,391.366202248116,298.733196119829
377.964558228513,562.384238144084,336.290994477612,411.083948026386,623.543562461072,337.438993050265,421.533116557335,528.830522973198,302.705667280557,434.44606116776,629.732254444478,222.837401770845,375.199067947859,563.031688615766,125.639298232009,408.967903476599,-46.2605618684635,225.871116765509,584.422094438278,-323.459536008663,197.98037634726,-910.979507169566,-421.86379745017,463.662907671213,-1367.00797561785,-709.152442133402,-1754.46752042201,-1138.23120971517,344.592095024196,-1188.89163266027,-162.739476488574,1356.80983472855,2331.03053622023,0,-70.9158832398331,1013.82480623655,2363.3995341119,1467.60652488292,-145.277365155407,49.3981399548865,1545.92651321386,1806.21412407356,514.65667398202,962.145593086893,1065.61293845576,243.198734128057,386.905174930247,384.674132199787,381.72918085478,468.886443767667,441.466097393696,437.414729458184,494.581212156787,432.469753419927,383.639226305678,441.023341025358,492.331925665016,343.663114927064,505.035219926671,400.203828528785,187.769172781208,423.2405145544,412.885437783244,245.893096478747
317.282044174142,481.522919844291,302.343862968873,354.188457271789,563.549926622181,319.973205222046,400.203733920508,493.483761204297,309.498456933584,426.570453935844,609.918520828838,247.420430890365,394.990105608739,561.535134318445,192.268378026505,477.542240090374,45.2209849276801,330.150184146077,683.691179921663,-217.544350255965,357.127234944342,-876.981835133011,-232.598052592591,720.414804240787,-1285.34978733202,-406.726641197754,-2110.23086249463,-966.830494237938,829.48394164058,-1513.86134975548,-106.798383305066,1792.56356490475,2421.37859841241,0,-653.487865602936,1389.61225189501,2631.70403789976,1299.00537356909,-545.827011199036,-185.070218204566,1459.81406512519,1963.93933076275,383.316024014033,911.136248535313,1202.12312594183,113.910227195364,217.699325003466,209.05489103858,196.670928872745,333.828892309264,335.975572697994,262.659845972964,460.854258783641,280.486336987326,190.891690098239,301.585798134897,421.86206840269,183.425739124398,453.086750086252,285.660575759122,29.8887368502674,329.169671035276,327.630309832562,117.376010785005
73.0380979257317,206.122870730799,92.0287695464836,108.336101467337,302.7568329205,122.697067281018,179.991778423234,256.738177026826,139.285761385148,220.726599585516,372.96209658375,108.910578925489,218.877003742004,344.623009355845,116.660372075376,338.842836719201,13.5958765467549,261.138645209605,514.545188406223,-144.026145177442,297.222598630868,-682.882783507567,-131.347922321869,631.553462974,-988.821060952793,-232.058105573144,-1968.08347682043,-766.650268338519,799.287022791336,-1546.76432024363,-300.470386182352,1492.62711591073,1914.71959609279,0,-1302.83864322428,1091.10826550834,2241.13983740205,749.415040622813,-929.850671186877,-506.972954642053,935.614059777997,1591.71842697961,33.0167520306009,587.105781540572,914.834338373212,-86.553806318306,-76.2960919893572,-65.5504964761043,-116.307112852935,27.4395290672339,113.529816593955,-68.2627424432671,291.336690802179,-4.14865142109171,-134.569016376149,1.07498881051025,213.748480561527,-103.537632982735,244.309944725969,23.9828197027386,-269.924576701421,106.361715494751,78.473335140076,-169.011894186901
-240.407535609694,-121.711269531108,-191.825541453248,-201.648471502435,-12.8427198913073,-146.542691668762,-130.891984144914,-52.180511869544,-97.2211745640213,-52.0894834820737,51.0449468318021,-80.1779656066591,-26.7063170649488,46.0825361085525,26.3260180401369,138.032639497186,-18.209965685308,176.488109283026,236.21124736329,24.6504064529301,215.698056666811,-286.194146786016,64.9497754724453,407.405183067579,-432.602612033833,-5.13281644462447,-1286.27953727494,-387.710205541364,402.199632301858,-1159.52910800181,-340.859303754452,617.147895834807,659.981684979706,0,-1498.17165547846,223.540860742787,1138.91738617733,-208.829215467821,-1027.52615890014,-752.154796811193,160.881684569682,656.910663246607,-440.887900047169,66.931253424765,208.050640434755,-223.139060759464,-310.220469646173,-232.352976769841,-351.403510921474,-287.046668828833,-47.7384016706751,-329.992096590532,106.536323795882,-204.178245953384,-348.374899004752,-304.593760125905,29.3289109160971,-322.046636065914,17.0024643689825,-216.060327043064,-528.969491318313,-168.639389778203,-190.073605147657,-488.105974445888
-436.991185223195,-283.008350133307,-378.694573683015,-367.963662435838,-151.916821452342,-318.570709696238,-336.076296925154,-207.491662638134,-231.75967236987,-182.631440605976,-113.756458021283,-159.058418712029,-143.722703640615,-107.969861011315,57.5441080848591,70.4924099723021,73.6125347157637,218.191114425351,103.601998793134,313.86288051203,268.654610189393,216.580569251575,389.341857266947,340.4615527714,247.379321328512,351.526645029628,-369.799203843993,189.751324544446,147.806712756538,-536.88408442992,-43.9648410288406,-185.420605452539,-815.022013948511,0,-1046.61183673244,-588.490808387771,-168.38055411718,-1013.05847260685,-778.613059992698,-791.25891094395,-534.86681796688,-338.748370573477,-821.619942655983,-332.89061300542,-380.625733109013,-204.926879564775,-316.51679407927,-169.845488167688,-323.132049494771,-396.771854605061,-6.3594566818856,-302.15343779498,53.8659343947857,-126.907514699411,-223.983837253607,-398.531877938767,22.2802723724149,-275.894584863191,-73.3283535967727,-249.161963629825,-523.626327614233,-352.058063212293,-299.282916946572,-646.894011314549
-477.133260946019,-243.720679170668,-437.142053453721,-353.607176116028,-89.458904241607,-374.771073276105,-384.710145283384,-170.440779906075,-248.789895090011,-151.008668629205,-86.3426606652657,-131.14862671637,-112.83319515043,-80.2577189302229,167.618136539741,130.699718246087,231.878476062735,327.260682029439,140.955829931154,582.351313409415,384.139057300593,640.278792492839,673.706931842449,426.399978283933,795.344000347566,704.686413558525,379.33542316518,755.912534226189,224.200815992362,19.4262346452887,228.294015311342,-564.215950047158,-1948.44111119507,0,-388.78211411544,-968.612654803108,-1250.08604157835,-1147.53425502886,-399.103327751638,-763.613246821028,-1058.15121798421,-982.785055608529,-1083.76435864277,-489.022686426797,-449.775143956945,-125.437198674803,-193.700957326386,-25.0962160552113,-136.827924581315,-345.941641859766,113.774050352535,-93.7020133470878,82.6150901316845,90.7831596474236,93.912266159578,-319.503120257588,89.9613594146323,-72.974145677599,-84.6767257696569,-150.107047995014,-313.037464323021,-450.390386432287,-295.009445227811,-648.307590220407
-428.229736858783,-129.512833162437,-426.27581974243,-263.121069563583,20.9636992175431,-384.06352502096,-343.128115475087,-71.5097387124811,-221.081632602575,-73.1485781748259,-13.0651304361307,-96.1965353483277,-43.1544707734071,2.86020698641137,241.671914689004,200.703851258814,340.973065371405,398.325924241011,218.488977189107,724.044818601842,464.117366508944,879.872765116567,819.957430982095,537.7161612075,1091.97364547944,949.16441263636,764.128924823089,1115.63063876499,468.295732748312,325.12011058921,216.833300303125,-670.518582921931,-2455.86945577496,0,-53.1813598570929,-1028.1455293315,-1958.19845142997,-686.241043767121,-147.570934879063,-837.313953687435,-1462.27956465624,-1233.23206225763,-1311.69058408687,-533.817398349025,-121.117307552503,-128.191672661899,-169.967955971536,-15.807188253973,-57.2181274308829,-346.888383210043,86.7205827470784,-3.24033678512658,27.4744482110778,145.68221287715,237.892535324105,-295.433000295535,29.0994422589901,-9.53245227258818,-166.245236992198,-140.779972844306,-180.058809007894,-574.653768246364,-336.349069582307,-643.677425127664
-329.233831865959,-27.1345963506336,-364.366157148034,-160.946445554577,91.7331680176624,-354.410956509389,-246.439244922064,12.6485598912076,-171.866482271835,1.62620825669451,42.9065496544351,-81.9322447748867,17.9836192594665,73.1730014446098,259.758072141817,249.19976464505,371.237565529855,439.896027504696,305.376721700373,772.655777666516,528.185167017044,971.533571910159,867.995357397577,671.456023631846,1197.51636581638,1061.67002308357,857.199900690727,1218.22868825447,706.823162048631,395.553024236109,60.2001984807034,-832.270637230303,-2013.78182585611,0,-72.2875661093487,-1091.6375819349,-2091.05141460941,79.986090266087,-77.6213135646203,-986.438506887154,-1695.18850844476,-1064.96698200784,-1468.20929468125,-540.897420922922,381.341558839471,-209.845293142074,-287.581894648407,-154.674534793139,-156.66204218803,-441.832708236671,-106.762233770963,-115.608143067665,-142.150094001968,-34.4144289778797,84.9284803316285,-396.575594039199,-165.311445493285,-177.741286651478,-311.513972101354,-269.516277304094,-262.010671805112,-718.12111030459,-428.92160658846,-682.411107254719
-183.802598032946,73.1821840699358,-238.629349571579,-30.1879648399151,168.807791972601,-249.48312365065,-85.2575532868731,121.144005144362,-77.6961633895706,109.517020188854,148.014103927897,-36.2363528118588,108.578773745662,176.963066292456,274.670126445096,324.208534700822,347.792734667792,496.78624514243,449.061758632206,778.465323499349,602.944750342332,966.35745122922,851.823928102352,822.849054016289,1176.0522352251,992.179491196896,832.127240109362,1017.4620304293,832.650680661588,386.450046979557,-112.281504975646,-1087.56847791435,-625.022265681104,0,-146.78157690727,-1320.85704202754,-1476.09293208885,1031.92080275389,-47.5700064470458,-1096.58919773992,-1520.87588426975,-397.61378119132,-1391.47944721085,-379.324376459695,1042.38266458397,-226.847391239823,-353.431686990302,-245.839871287423,-228.425765399327,-445.776579221355,-258.054083723961,-199.359019966492,-273.20637786392,-219.838770868204,-103.902435393949,-439.524273753916,-304.772054078728,-343.149019135684,-378.707614366596,-365.139843939812,-385.923751310525,-737.667888408769,-441.547249979631,-652.643490692868
-18.6318966927455,175.516336040128,-72.7108003501222,128.504559836903,275.720278461211,-82.1683618274753,110.801430494112,267.080271457634,56.4964339634929,249.475420193595,310.255839744804,62.093965649326,234.674628695481,329.241569835466,301.683348165035,418.327638716093,289.246266167616,531.93866575839,598.357740749412,705.649084845622,625.846718798789,837.90274762946,735.819823740624,836.492013571915,987.546287742203,676.376454455655,750.295617704793,428.436674944389,652.053840686131,364.899644393154,-361.169071773399,-1147.0170988228,875.777241517549,0,-145.582719338767,-1593.93807740933,-412.636192237899,1996.89360315445,39.3967389816992,-1138.16754311946,-803.902095918624,553.38456666787,-1017.11376334965,36.7333243416214,1744.53884040699,-96.5336126719096,-223.139064911858,-149.611321413993,-88.6414739405367,-244.243800759844,-206.357058778834,-42.4423657522744,-238.787453173131,-195.484647752378,-49.2783172996893,-276.29043949421,-269.045161820002,-269.888362438054,-309.217916238683,-294.215523130919,-327.744449176482,-584.965710333423,-329.609923741778,-489.38266941545
86.2260461234693,209.967099125931,45.1229052844696,225.194038332486,318.67683548801,50.111458412372,234.408664901666,349.983078330461,148.652394394652,326.769697683369,402.462862569527,134.009370654559,307.048123490013,420.919750899211,281.769322471471,432.083545199112,200.435826696701,457.214840147987,615.793277787239,513.074047070824,505.768620464237,601.030171506088,486.416266436088,575.70378046912,644.684538258176,168.793647592878,627.001807242851,-369.104311865174,-38.0046007165845,306.733633566786,-652.448515447965,-835.561567956061,1674.27377067963,0,-140.197957670414,-1672.17007933962,521.353417426303,2665.54880690368,153.375295552001,-1125.60557455383,126.928158571612,1325.64603380273,-521.827849606205,498.737689136057,2141.50064113185,62.1038587959366,-28.9670985567658,11.4581166314972,136.691416761799,-1.86449802518303,-53.7150393627745,221.900371832447,-127.785687228583,-38.4573316041052,168.791713703579,-38.8772285950471,-172.192191846424,-50.858163437577,-227.251426583772,-147.453024700375,-131.552847396805,-417.605825170414,-217.203303546851,-315.214316986687
59.3169112650991,122.217722199822,31.9960916814752,171.981527557041,217.217863738555,53.7281898704103,199.854940884127,280.478006438217,119.284936449149,262.433685485491,326.140716633033,93.9743648126891,246.59277756864,351.552936300599,180.41385810938,314.27461918801,119.133584555428,284.552018784036,470.102342675279,311.440216549314,272.425042606095,450.976291619187,219.730574808469,170.943184162182,426.446721648653,-238.581636456619,668.709140804914,-781.011547671719,-963.714024838054,373.659357607963,-695.548711071029,-255.633719507187,1893.56066927029,0,-80.1605660170349,-1365.92331023337,1063.73475748339,2841.94399663405,313.348645030608,-965.496956545902,722.96746210418,1620.88409114199,-131.367045335554,685.044086609459,2027.55967470321,72.1915776154052,-10.6808673810514,19.2804345949426,165.218777190633,25.9983380177781,-23.4530551887531,270.673571226365,-124.410295078027,6.47832946989157,237.077382158137,23.4065309116263,-194.456337446681,29.5765473043619,-270.794392131612,-100.658672059657,-35.5884187150271,-402.787514164386,-230.378197781397,-283.716134482545
-47.3429714185049,-8.83206844378106,-64.8240553880674,31.2081598992618,51.5258525229215,-28.4503388369354,73.7068909098487,129.538305322575,23.0261822267103,126.071869123975,163.081526980755,-3.75175020403194,124.029562799559,198.02213441891,89.6563468080364,184.269117573688,128.233428384798,186.58076342678,319.011306567326,319.289011185364,141.583981120185,592.667291402461,216.784210316815,-35.2474427840317,650.225138008008,-136.826861957728,1075.26744712069,-331.191721785012,-1285.76438646461,767.874847144396,-233.155298774675,363.423628913681,1967.75327217204,0,210.187102583662,-666.318433259768,1240.04952451055,2553.80228869176,596.690336977599,-536.898726594432,790.745018100236,1430.97482922603,111.439921771324,522.69975614334,1537.47958496839,-50.7261176267905,-186.231639790454,-115.425382781204,-40.9634590752421,-175.003114840902,-130.111527143037,40.4828088314032,-213.538220474943,-107.862314447678,60.7897041908517,-117.699581099546,-286.120946719054,-100.42148863346,-361.729675970958,-154.874456539034,-125.110311071815,-493.428737517119,-305.897577377022,-362.214053730608
-119.390579134664,-71.0425868915435,-129.672951905846,-68.5375830150468,-51.3596340394583,-87.3960348962205,-20.83582610048,18.5165748224224,-34.9150495961318,33.9014486850523,43.2316070348559,-49.4664580995374,56.3581834158269,93.4633663028586,95.4589317227676,161.137340577616,226.216921234193,264.214802111814,287.347798348698,547.820330620189,260.162937826724,907.464409434312,566.976705587319,100.849682548737,1149.31636513728,506.007610037543,1592.73150420211,673.819829328684,-574.153856175958,1277.68068335597,582.928435599868,743.40361702015,1899.58207468796,0,701.072740299371,153.741810199831,1057.77840213755,1990.36896422137,918.775615868809,47.5800922923469,551.162941759115,929.4650458664,241.711617141741,211.90117913437,901.763835536224,-143.642579411664,-370.992243101829,-199.047941454664,-252.350665456302,-396.647393113453,-185.983751368377,-211.945353119943,-215.32238859289,-196.013175050945,-147.982720528716,-273.761879897327,-259.925713857116,-252.534420038803,-319.954375904417,-186.474111765574,-263.218142998203,-525.804569204644,-297.289489437014,-402.532375168806
-164.487730223177,-108.017243859295,-166.018049881785,-140.145653953292,-123.247534642312,-131.447519219422,-98.3691935525849,-82.5356176800967,-82.3086975273711,-47.2225951288008,-68.0689032633878,-76.2242455461849,-1.7210489884541,-2.48620531634647,98.6459474334749,138.07691666004,256.76458566553,333.032375662882,246.15658410893,681.085621332775,413.004238728824,990.397347617038,891.954271470941,283.03321307219,1308.3672026424,1092.46685850351,1660.97475876514,1337.38784828964,482.054266474098,1401.64720849584,1232.87583877798,799.809396684241,1599.08617511399,0,1046.41913068705,663.077381882921,642.675717727485,1322.89544804025,1020.92290559878,419.531906578378,267.172194719779,381.828616408838,199.147175324833,-51.5610707182882,232.110001224457,-159.672233817924,-476.526976565601,-184.525003528116,-341.720259775112,-526.645316762513,-141.632861076362,-314.233187601245,-120.699658417101,-188.326643945537,-241.180052728295,-350.454317390071,-157.750782335641,-313.967331970032,-192.259724357991,-214.127706460402,-357.206145718087,-486.435330619156,-239.573353489282,-377.568127235778
-254.991961206753,-216.216449414723,-240.507336983382,-260.550842174011,-259.043451696153,-218.023883324321,-224.495645572277,-250.710817005035,-192.711810131874,-198.246554294269,-253.186961305721,-170.580052730512,-146.633665992932,-184.878880002606,-16.0414237474517,-23.7395116057597,123.926994987965,196.242145115998,40.8290017479146,502.436883677775,303.470482774597,665.779142699145,802.752176888774,191.372617111295,855.966606083827,1066.18629580585,1112.83789509476,1193.16074046283,985.280001254564,1012.46946108495,1315.46167125739,755.479109513868,1177.56267606677,0,954.514015406256,596.847422285212,261.064015987737,571.065985345864,794.223936848978,333.498501873759,14.13343020943,-23.2607384051287,-43.080995626702,-237.828748071182,-359.983294590561,-176.125063718768,-549.643244221459,-188.224214986707,-384.288747917148,-609.593680217165,-132.516761746204,-340.310286690622,-99.4489487479965,-213.380163857886,-287.340993956458,-407.958791509471,-191.834172046281,-345.693989588637,-182.646090561342,-354.678081196232,-437.033384093012,-481.264474854849,-279.660759098878,-364.784521763701
-334.588076068037,-324.417840178863,-303.221975575521,-364.835011743737,-390.315422315841,-283.587399924916,-326.534195569265,-397.442248899739,-294.144775837658,-335.978676172988,-414.907542715227,-265.154757760354,-289.357125817845,-358.377395339505,-146.827012230241,-209.799927951064,-29.0800581726878,-17.3995952384046,-197.256962997331,232.047190572115,24.0893268111593,278.729609895607,450.243664055942,-50.7827785578498,291.503100103987,627.158065844776,437.333562400455,712.752407459925,934.980476370566,550.134552176807,954.124526810019,738.683888775311,750.318589676614,0,589.105425886517,131.127455119494,-3.24443615873716,-195.113838408677,464.173517324562,19.610089636525,-222.733498477226,-278.381985526329,-290.826757209646,-376.849341257902,-691.525757949913,-187.586413810182,-564.367565676673,-224.186392563649,-403.725769078537,-629.043088979394,-192.367021452234,-352.141982802486,-186.064163169089,-304.585742835735,-328.110733511115,-440.558537075379,-355.6714025565,-356.318843034918,-294.541697019378,-545.933790290984,-474.001032237321,-498.067334671211,-389.812049271566,-349.546712030045
-276.46495761019,-281.334518277363,-243.988965162715,-320.156471066827,-360.114424635684,-217.379975426936,-276.853337136928,-365.917268646531,-250.288130329497,-306.940769145133,-387.925991033269,-224.813506530828,-262.340678501312,-344.715664695268,-127.561633559804,-219.41125199435,-18.3334098715197,-62.6582919172033,-229.052354498571,172.805035991204,-103.649480222666,228.949571417947,235.691978960359,-102.837694058057,175.990945268631,351.991419126875,169.821316523052,534.56340311779,858.295640983493,406.526468908935,605.465808383285,685.567709448744,510.064027483891,0,369.886346186093,-225.750231178665,-120.231360757462,-641.651111007198,310.518783015241,-42.3619587181703,-298.235788249452,-334.315195541084,-249.816641902643,-375.173729205602,-653.177178606158,-106.360915050406,-424.852300331017,-173.948550558052,-306.52881336616,-491.351391439581,-185.943689463389,-277.226117124746,-218.643018202015,-304.35805391911,-265.625528464133,-353.596296126674,-402.525455901078,-255.03358763742,-318.630434872019,-555.975270622891,-358.152525670659,-422.648812717031,-378.992630988646,-242.397507257152
-50.5628464868702,-52.7780442039546,-34.4641568399134,-94.5662680615232,-125.534123877084,-1.52284300159564,-49.6295938250757,-123.733190501467,-35.4216986846369,-77.2925114255816,-144.96841357149,-26.0994673694182,-39.988347536301,-104.775056219778,53.6305595236523,-18.3025309292897,152.280634795124,107.108357286087,1.0911948273708,316.953659522257,62.6404373781048,444.339698066764,305.678777738299,178.986157149657,414.001189326884,484.437865873292,271.675493698456,684.058170037074,977.611054126588,489.746308897656,551.944732920235,766.698437844384,810.138288158137,0,477.821163348007,-111.90414763757,218.814264404863,-438.263522611512,367.917843635675,341.869341227443,87.1286957531891,43.7782890111469,192.345520680925,-35.7913408977865,-238.350131490682,93.8342888064668,-117.534928272553,31.6352642443086,-45.7171620144847,-180.752171657706,-2.13463562878922,-50.8544216317081,-55.192478375038,-78.1368016921478,-17.0819193649628,-120.064117154324,-168.967972607546,-2.02945920400258,-111.673771144131,-252.493682592025,-47.8834379375579,-207.944457899199,-135.786690994346,-10.735519167151
275.01391992182,289.101083475152,267.954616197039,247.56702571681,239.551320791588,296.287702691711,288.598193112989,248.169522728278,270.711151830448,274.068791310933,233.664274054387,252.909547161979,283.165679337801,273.185333808813,304.159238249377,309.522483717588,361.637421630132,394.649899413161,398.745212943916,490.965584211377,445.679904352735,590.356749584714,560.865313108245,696.844100582608,586.600006678895,859.437413771561,350.588468787917,815.025741616568,1180.8602490541,529.285453641861,700.203658118644,1291.68774668863,1714.67291881008,0,768.65835857993,433.857001688478,1243.65355520232,322.473978740901,498.14114935641,948.293943323788,1021.57197695612,927.143142587458,871.620184175507,673.628657796045,470.832693627542,359.228364617832,279.889523715539,338.737479811795,312.461974376125,219.798097494627,317.830245917661,281.875843899872,269.136100921187,315.733503961176,363.793116621918,196.701979712603,249.973385474295,351.139991345935,259.510698875545,248.754198025319,380.211796919689,123.733107589964,260.30340231924,327.66465787124
602.068755111857,647.457227829264,572.064464654948,602.536827651936,624.997323700553,584.935043814373,630.625054219977,627.987844417847,562.79956261768,627.095127898888,638.434508934308,511.092471941129,595.082290578563,659.727457548318,519.345657923126,636.463386980192,501.387693247588,659.468183263327,802.700099856243,563.249418082729,820.188076905035,526.964139780123,769.414650431904,1168.04854688998,508.949270598608,1087.99722481141,222.267853580879,667.832317112203,1262.76867381603,402.171442945172,765.139571346889,2091.4555279154,2723.31744817668,0,1004.5140752072,1127.03686493688,2572.5299054143,1178.79523806396,565.044435308541,1419.00463970669,2158.64805675838,1927.65849635097,1485.07792386723,1462.69465521987,1196.12466894792,599.271415705235,656.216062092328,621.945248328736,644.3595887129,597.283322969327,621.713084427285,600.69551432053,580.714599593414,683.772510945937,729.268748963445,510.965947738488,626.536747090942,712.980009554435,608.590009534536,701.948608526957,799.75681566842,530.814524411208,635.53590598339,726.537420248188
836.869795679653,917.782190160662,790.55622176296,856.950762346217,909.213510239383,790.556762693598,863.894440503664,888.75497290519,755.457750376841,862.999751752322,935.83417581451,673.29749002799,800.555974345796,920.134390074687,611.420121774074,813.812274183722,512.189494502048,746.976776782538,1015.99231438695,455.324768398881,915.409009287786,317.844605450073,682.008406768146,1250.04560261069,232.229336362297,827.234131359753,-42.3829357576456,199.549628109361,1006.94231479883,106.992780201292,545.551436326681,2560.48784374273,3247.08781556635,0,1025.41696220312,1662.63986473033,3419.5402965252,1727.92596862453,472.029061294313,1526.13855771785,2971.96041958365,2510.42156098718,1794.62694696818,1954.20878426079,1576.9612676409,717.825616916369,911.619811667837,773.612437236059,856.187972129053,862.55702201236,778.848940062366,812.578212830177,736.73714289441,880.13107443689,960.371790599862,749.265236061863,816.423977048151,986.661551527487,800.540195309182,952.164458411459,1100.04803720553,911.77299477765,867.268174558285,1072.79742573573
937.485850080865,1033.26830580614,884.1217112599,957.224882739859,1021.12306806782,885.020344496147,947.45647738879,979.545950145918,830.808937782685,940.939706888153,1049.31614905645,732.525816333762,870.574292747973,1003.22349771445,588.126590690559,810.134883966061,439.539802733697,647.28912648138,982.144265785363,227.563363907907,705.912718507682,62.2211499825426,342.271854184008,896.230478229324,-82.6219061572301,205.561266084021,-358.168429388753,-329.219496117562,472.36096908088,-245.221902297603,97.774915229344,2459.24578056218,3167.60563486336,0,808.306179073485,1985.3334868312,3361.4718800326,1893.37440468808,205.244282504605,1298.54437671515,3243.20285085277,2537.15512601942,1816.51618858991,2091.65109182733,1581.37887502038,695.417777871441,1038.73285490056,788.821977767869,958.748654467093,1011.77518587888,773.067874523374,926.307912447193,727.029345991903,903.748061870972,1047.00098619723,896.46394796559,828.777293649084,1123.34008938554,821.474981764767,1010.48212595461,1232.59222665018,1146.59865657698,930.950351806688,1253.63869875613
944.990648020508,1029.28888036361,894.348256957688,959.361594710084,1013.3858595904,903.490515469679,949.88760362744,977.133087432848,849.208694883203,939.143920238866,1049.12534329539,751.103848731409,877.017511063633,999.946538926313,570.576318534329,769.280557873646,418.673710421983,552.218429826785,879.593851139968,99.2232166254935,478.641840124191,-114.182833642135,91.4343604058868,471.188186293667,-242.126132238615,-250.222837771383,-634.398024973886,-541.412264838478,77.1478335881055,-469.990355885989,-275.509355669744,2150.39673337843,2792.02756078379,0,382.018240493443,2318.52232936905,2773.57215052032,1818.8526621694,-97.4491843692893,981.802844456282,3198.08286215732,2335.71962624608,1783.75513900299,2165.61211315154,1575.27418191378,619.260324535005,1106.52150988223,744.946663513223,1015.18777330748,1114.63903345493,677.446219197652,1001.24192014769,623.217205950673,840.315185988449,1052.17311062802,1004.67748344699,748.970765582349,1157.23687878363,738.68187516266,967.024606967472,1239.15192612059,1236.31413936454,880.671334849515,1286.14628534294
900.635595900332,962.361423301006,868.502547237357,918.844279472008,954.234315529769,879.928538345409,924.129804236928,945.419794979221,842.028374438432,918.666415892811,1011.87808616082,762.291650857385,873.06348292807,981.104318410702,615.892715344678,782.87576922625,480.615285394908,583.661389255554,847.599256569285,172.566639963176,444.28820040993,-144.027938301728,116.161821471995,300.317603108316,-213.580541649891,-249.200344172336,-771.896952133158,-383.031402917186,65.1417165525321,-523.68031691822,-285.096939264814,1899.66302923261,2374.49796009485,0,-250.638598039358,2631.99353957979,2303.32052464623,1562.10054829342,-299.203772271509,726.595516959742,3028.67205276777,2164.73516160881,1755.40982681409,2312.66583235578,1738.87300667462,556.13019596207,1102.55590891802,676.009215708981,994.801789574854,1166.694561259,548.750429215863,1012.70271824657,477.441993993265,738.849869275705,987.23074574267,1069.04217032229,628.233030304528,1110.51739869993,617.523319697307,873.308226842974,1166.1209144013,1241.49474470444,782.032699963706,1240.51843936124
787.658445438795,820.279755946106,782.657998329086,807.552341525669,815.362667865326,784.641714025371,822.704073990028,833.95220048323,759.677724661871,824.33388566417,888.573741350405,711.590566080744,800.453984814479,878.301604896153,624.550248984523,753.445115320982,497.045221304867,628.015703074846,788.437199216106,297.412279435376,504.274394175926,-102.372532916115,278.665709054062,332.849340263968,-115.272045898224,45.1538427079015,-755.48494990319,-70.7850501086573,266.895127924142,-494.903288224697,52.1959816849523,1594.37725812436,1809.19938736572,0,-890.506054221442,2527.29276595604,2079.07295281606,996.427047983656,-439.465764416703,448.689423050322,2627.84197152744,1858.45502676113,1525.90595097506,2270.83124371257,1745.63837056392,514.098094094231,972.26847771584,588.657376930242,843.94394209021,1090.78188653797,421.321009175057,897.955415444233,327.176560694201,611.521807335097,829.87133297669,1013.10030231378,483.330693353002,961.484096578182,486.997545374054,734.095682498941,1005.29820086141,1153.43639941845,658.805353850316,1118.69226580517
633.483314207074,630.521476817555,642.423237167493,645.521860557699,607.167231401313,623.416341606447,644.167671371817,644.317019543657,606.716124708743,648.208134222034,672.506238909347,580.026043751569,639.954553278496,671.882309969857,535.119321593653,616.487041169871,419.00682453559,568.698670920618,610.708761637767,340.434666212807,495.039229667169,-24.8902546117862,394.759900986597,363.962657200944,7.45259240335436,337.030973420041,-601.943702146843,244.554843889328,462.761530767701,-420.614452546636,419.122132528011,1209.46693170884,895.329420300123,0,-1134.63952920905,1992.9846913605,1787.77544776614,87.9601918114958,-596.802230659653,144.737111014093,2023.58261354544,1220.26179585597,1078.60773224907,1823.3115283494,1314.39085633231,533.465444817901,807.026560293776,561.549968839278,671.226022907077,934.537151561618,381.190065735811,734.265922359105,261.49966203388,529.082940858669,671.736580182151,867.35945451528,388.57851266644,777.480178003874,395.345921599028,604.421177304207,808.861156550677,991.659434235735,551.616942999008,950.991629140263
490.512885254381,454.744537808721,498.38027731211,492.907408663101,395.132926087063,456.17172276592,458.168754118448,452.085450402831,446.740307258236,461.871538160366,438.030817515302,419.916096188412,454.469057351068,441.707014170171,399.959458567651,430.008104510377,331.071993653046,424.3681677883,362.709313557699,320.671624366896,370.785189160693,145.413141752052,373.28804445042,268.778954152274,142.434197619324,393.562128776345,-348.949717789821,404.199666160798,495.851554714104,-375.136890549708,482.064472933717,827.778441357001,-209.706277055131,0,-989.286682814238,1488.08708432274,1254.94534526887,-908.314993171839,-764.376284628598,-37.1013415358153,1475.79302182716,408.894584086349,642.475059034091,1111.32022238979,594.530396374146,588.195981227039,687.551640908869,591.207408294232,569.37615326713,779.248043223792,437.206837899518,609.466158831555,302.078874985975,514.9963219625,586.423240086912,704.837595771259,385.711527523175,632.807392732403,365.919336716776,529.126457996137,651.513543195943,798.626338293843,488.929101351772,779.572086314654
288.539063804613,216.726034434218,303.064164333727,273.490887341142,115.338821475619,254.45164902059,231.198046925345,203.038826402008,243.611046892494,220.502072914148,139.236219416873,220.826936022348,216.72232128281,159.074019351551,220.55043132209,184.451496351047,236.815340141325,209.44819447836,49.6592512147184,259.100913995481,130.2817657809,359.01936499928,198.222388426738,6.57965871366691,208.639450655181,162.771829286324,-102.128609847017,254.920969235076,217.145140022425,-459.891331125125,208.801223940511,308.276195214904,-1109.36786176372,0,-955.456685126332,1103.30868910427,578.719950422616,-1623.84178772256,-886.341640063122,-107.083869270185,975.994474150237,-303.053539925925,263.363961789271,382.356572155636,-172.74799420142,508.448862849105,472.747884548185,489.337364158663,393.502508730477,516.709242909428,397.25579120225,406.874099600855,277.303145308923,419.377183446499,426.78534294926,441.321275824415,339.314459277168,417.723967136932,292.642485138723,404.87767901273,443.556045866373,491.86511236768,372.533445581509,504.813467919134
-40.355892927741,-167.097378276989,2.28181916046937,-88.4898514116412,-302.083821310104,-25.7555268138704,-92.5825762043669,-179.074373167405,-52.111174077858,-139.814791214638,-284.758117172615,-38.7878246235648,-117.256428558474,-233.599185076098,-15.6309766865872,-145.675230392594,90.411777376336,-48.9558943016397,-329.891412501647,184.349170151128,-156.81704305764,515.38808211236,12.8752121676728,-326.858829651683,239.212623566189,-83.6582461753503,109.425597794216,8.05287127660992,-266.672572379178,-529.949607546518,-82.7264569550566,-418.163777014391,-1665.52178651238,0,-1160.84456991445,567.258638178602,-103.186190841495,-1854.47822105659,-859.247667251227,-191.69119604637,311.210831587431,-811.962256305329,-158.500292495049,-219.943411015909,-829.860050854112,228.5614859016,68.4753344498615,174.119106570386,30.9354529829781,67.740041763986,120.660986752518,28.071981733367,34.1681339883671,129.917464987276,63.1629905282764,21.3445311686166,107.158819816657,32.0145116606589,68.2223395523748,128.688162975252,71.9539947888473,21.117929829096,109.11070595118,53.7409593027522
-383.326317307389,-570.669155384746,-300.968460506816,-462.474793839654,-723.287194826421,-291.780521713563,-414.587456869018,-572.416632731822,-343.406649997729,-500.056033729394,-703.703504969008,-271.274984446486,-438.696229149748,-621.864381053576,-214.936032482782,-446.720431201543,-46.9455156075497,-243.787522367732,-656.163759363145,161.666729472457,-351.315975919368,608.289455215368,-2.82526034950811,-560.901775279809,362.667727795544,-46.6180798786245,337.010166564808,39.4523220459999,-612.390616027152,-372.579797953056,-121.205420582164,-1048.96805963284,-2092.75904050102,0,-1171.92306426482,-45.9081146161668,-775.75737000444,-1740.91321281285,-647.274078530444,-289.370818322786,-426.77541733706,-1161.58104810611,-531.957170510635,-622.738047003466,-1230.84925840241,-97.344144115014,-339.714789117692,-185.397810015331,-359.790904680617,-376.545685106596,-269.624507412496,-375.505184455508,-342.362185059567,-247.093480560016,-368.419404287166,-383.26048352155,-246.725564923249,-393.628675760936,-243.538171322463,-212.583268276071,-358.379544784787,-455.141892391774,-212.060787281881,-415.901239873113
-610.141609342679,-840.624631355213,-495.126536475646,-705.981885610982,-1004.06725583825,-452.038392950697,-627.273352738118,-834.389968026168,-529.238084751181,-736.452878124039,-986.878223220934,-407.823877411077,-645.772029724409,-888.792870363292,-328.889117411456,-642.258292333459,-128.083063932775,-366.481565662805,-875.319542165249,130.766650687274,-462.094951161067,609.881674023089,48.3713036886851,-716.209422921567,493.496339021413,126.21747738851,517.933138842357,265.011744680256,-743.644901488636,-107.214898683197,-57.2671537949672,-1412.98075127655,-2616.29721569046,0,-852.644493140173,-474.084501402046,-1520.06742211386,-1674.73860904813,-397.780664043224,-362.159026627479,-998.181893710122,-1493.52744909804,-707.10051922704,-867.656902839351,-1434.2607915599,-347.221689493286,-577.483416187651,-455.797811755098,-614.196956997938,-627.285455712072,-596.961415159631,-641.951645645058,-671.428728300613,-571.025662175288,-702.863043740022,-627.793792377861,-561.719882068938,-721.873425054151,-507.829941632659,-491.039232207868,-700.193907398703,-790.387463547879,-456.735707381226,-741.289507239174
-747.322630304109,-1011.82615247035,-619.098277605917,-864.203695331384,-1189.50525822212,-553.58629155003,-773.421528842554,-1006.24859616653,-651.464664830403,-902.18850135683,-1187.73087840902,-507.38600045404,-801.179988281834,-1090.34570665583,-448.780382367044,-828.426895098585,-221.648515008696,-550.151622498214,-1103.15852555223,-42.9005227357132,-658.959691488016,467.766099656656,-97.8951757470087,-979.250080621428,432.968859054198,61.4797147746528,583.577084281,299.114641438876,-921.13611714842,34.071640989048,-173.648444929511,-1734.82269048125,-3156.97587673219,0,-573.38431367382,-772.013398612638,-2283.23389597138,-1864.28755713096,-265.972459042495,-438.333450193821,-1404.20571714541,-1908.24562150469,-735.454100493774,-1093.7527353386,-1689.00832895139,-547.117313311163,-734.746844537585,-682.155358055554,-789.67801903128,-762.718813410678,-824.01449280633,-825.202483038457,-870.703751965623,-830.705460358729,-981.698444542345,-786.775191151307,-762.78257500471,-1001.30437909324,-672.274662659599,-715.701696154896,-995.950882147835,-1007.878304684,-619.921992882926,-966.044062262914
-889.59473585435,-1188.93978477175,-760.510231018691,-1038.1708685632,-1380.41083007912,-674.304550604019,-940.500726842146,-1189.58421259927,-794.558970456375,-1090.69317577178,-1395.90529914561,-645.009278510099,-995.848705184914,-1310.88573847187,-639.799185370313,-1086.51998494532,-382.474084602535,-840.09749994767,-1411.470372101,-336.776344177789,-1000.08312368224,244.093978762169,-456.65225429817,-1380.91448251877,209.519817211661,-270.095633618598,615.882926237028,95.8251250467922,-1250.61761328081,74.7363796007744,-402.124960917465,-2118.93776819781,-3442.15020484521,0,-514.701185484181,-1096.59454380679,-2805.50106681245,-2148.95647156868,-246.069873213716,-504.239641011915,-1698.50693396696,-2315.73178856189,-744.353013428021,-1355.82921175682,-2073.98683133645,-726.923760852805,-970.440442411969,-903.59353237237,-1007.63382247031,-950.82789903224,-962.294746472743,-1047.56083628059,-941.470087990539,-1045.78907126109,-1284.28766029694,-969.463832891305,-864.764053186094,-1283.63142574517,-758.705911316231,-936.615561535087,-1309.15754823516,-1151.31157235522,-762.534794328032,-1176.68253333677
-1052.37581333007,-1365.90165112121,-916.068072156686,-1219.39141824067,-1562.02793621152,-807.273776317178,-1119.83162219696,-1378.65594934057,-954.095472279418,-1282.71432032072,-1583.74647769091,-801.625760480528,-1198.27480191731,-1515.66194974253,-847.826652453397,-1348.14895299221,-575.616800617874,-1132.15462291497,-1712.0786346711,-630.600252657084,-1358.34509856808,16.7774158649023,-834.441167946566,-1751.64082781641,-39.4626937925403,-626.217510377183,656.575541291472,-114.296251404957,-1551.37177305666,134.670200182193,-519.037969888084,-2391.2556971692,-3432.06450602635,0,-465.734191604231,-1414.96394560183,-2977.10436226829,-2337.96506545195,-243.011904129767,-533.18277885859,-1829.84800892688,-2596.78693408748,-782.310342246375,-1609.07812875804,-2442.99660227659,-848.883518180444,-1245.12718873886,-1047.33976861976,-1244.63899530494,-1189.88209209666,-987.823177066303,-1290.59230326192,-895.367679813357,-1161.21918647579,-1517.80671227294,-1153.0116712018,-886.541029452617,-1469.88729548956,-788.785190831125,-1101.09900923485,-1512.78445154901,-1201.04430745486,-883.294605028683,-1321.48767928447
-1128.51493860335,-1420.21528768018,-986.069859749919,-1294.26981360696,-1601.85624662171,-871.00943127434,-1201.02284122199,-1455.1004174029,-1033.88474272612,-1362.85899694074,-1627.83019166093,-885.283063131908,-1286.38911677371,-1585.18363803306,-983.336237081969,-1485.76050236443,-739.312190033749,-1325.63731196231,-1861.64605211018,-893.700328771014,-1598.15987740581,-253.532417357107,-1146.29716822764,-1933.08119749375,-328.998003584469,-913.380274401903,601.754899312315,-287.951832937223,-1651.71752821992,200.347288262291,-576.842639961013,-2441.93861361788,-3310.17547978176,0,-286.803174107817,-1626.18664993706,-2965.93014865505,-2386.88521480258,-175.921202399438,-568.95670558022,-1830.93811497485,-2740.20016410421,-844.109526853942,-1805.3227787551,-2626.71037446961,-846.418309169321,-1330.62702888541,-1011.93981406683,-1315.10053353707,-1287.8292640544,-873.588247423862,-1370.71123272012,-738.494537033913,-1091.13670815694,-1489.30634269138,-1193.38563118718,-802.093391471903,-1398.05236179849,-735.794859392559,-1089.31221605219,-1422.05551079033,-1092.43497120791,-898.533680634086,-1253.383465865
-1006.53429455949,-1254.61127693551,-887.865476928687,-1167.84268304653,-1398.62821736069,-797.570598235795,-1094.5904810161,-1316.10364200552,-958.183086316172,-1244.95609166504,-1439.61470491089,-837.682340264536,-1188.36602575646,-1438.99431361969,-1011.91887218806,-1444.01244841692,-845.425286422007,-1399.34218834528,-1788.53253294694,-1149.62827651834,-1681.10383233682,-613.964674329334,-1423.6330530579,-1883.67514519196,-719.282246574198,-1191.0374453734,369.313380633581,-540.027578346007,-1532.87775555592,201.449008423671,-725.61698649673,-2236.47539407121,-3017.10423234183,0,-66.1768855747743,-1596.28458187655,-2804.9186800835,-2224.63526728893,-41.0065731246592,-569.187211620013,-1736.48038331463,-2685.6002097987,-821.293284603304,-1856.42686902992,-2521.96628740873,-696.599501126196,-1069.50305258305,-783.62565181686,-1063.48889211035,-1072.36725180984,-640.454173328876,-1118.3532152335,-513.695246468821,-822.942391059218,-1122.41662302586,-954.277126447535,-600.123981346366,-1007.432148304,-578.905545060739,-863.890429967536,-1030.30118510792,-764.589934710064,-749.639161539647,-899.936971400384
-710.222741108406,-911.444832678368,-645.08468898039,-864.544028885717,-1011.27319989873,-598.632239159761,-828.309749713124,-991.623762168774,-748.85852567298,-960.233261453169,-1070.90711731296,-684.772720530413,-946.243368321348,-1116.36230114866,-946.243867203192,-1259.5808282984,-876.147760192719,-1352.88000647344,-1534.9248388775,-1334.97522723291,-1619.83668683747,-965.93623238123,-1621.60576356701,-1677.77276263187,-1100.88533375238,-1444.17089167191,29.6013144339692,-825.996745816436,-1302.88287779627,165.727297015953,-833.271261799359,-1729.12402870833,-2256.31039474076,0,161.537294959174,-1152.0923930047,-2286.34804196373,-1786.73190699105,103.849159298006,-331.677246202191,-1408.94994936068,-2308.89789643178,-519.769081639089,-1662.19755365891,-2154.50435234787,-474.493537293663,-592.547434878053,-470.757663055639,-587.844782497362,-626.012594580618,-372.215782283009,-603.883506474563,-314.251445900419,-447.681618850071,-550.353136841962,-483.559963725086,-350.465805089197,-420.469836240924,-381.924919460406,-521.507926883251,-495.538430636956,-295.238723077432,-494.69743831733,-378.252988511501
-348.821983067458,-508.749475187614,-335.485963383208,-485.297134793507,-579.151352059443,-331.451349445425,-486.225143940683,-595.904128763039,-467.302575477232,-602.483133860738,-650.983970921696,-466.709516872333,-635.446766400773,-724.831699999965,-785.533638763865,-982.728422073803,-784.429679425744,-1162.69732853139,-1191.33948320453,-1315.3116451999,-1419.01727898252,-1127.30761492552,-1614.57164967662,-1439.26055212025,-1254.69161266556,-1564.00023982054,-209.469762135262,-958.433061306209,-1107.44760627678,236.004490106729,-668.884005448802,-1059.66394177917,-1089.68278088478,0,462.260329206231,-351.924262403949,-1452.53101102454,-1254.80067846682,264.301747046229,221.411022853943,-803.323576680451,-1703.66654124395,80.0692052322323,-1289.78073293366,-1732.45785197177,-285.167011841099,-213.586270849262,-218.982514926388,-173.416289385759,-249.457879112768,-165.04218532708,-114.035146694103,-199.065811836372,-97.7357096045928,-16.7733409134194,-9.95397821372199,-146.879082642461,127.592980473557,-230.917144629538,-191.277705678907,15.6140729364608,99.5965214270023,-243.733846507701,87.6215394714161
-19.2738585923974,-146.128240651444,-35.0912633304004,-133.680315019713,-202.780081142243,-59.3943920088796,-152.2915948912,-229.997819477617,-176.732585494568,-262.484570159183,-279.754579976612,-218.820838344871,-322.413126451295,-363.770215501597,-548.837934119132,-661.327241931936,-575.392722488805,-858.975043094771,-834.457698337136,-1087.39758649673,-1109.33421360361,-1074.34027025145,-1390.50668216651,-1216.28410262495,-1148.14509184489,-1491.35691907778,-220.511813917226,-906.129910794613,-936.442470471734,438.893632149394,-281.499754006277,-494.358174264524,-137.902331568857,0,723.317985555611,491.217430270998,-749.561357187641,-1008.46247285246,457.31254133526,888.284133365192,-133.998034448122,-1249.04700561479,751.102042087128,-958.262756136792,-1528.48640279734,-165.414991352455,-126.038121996098,-102.782265833955,-9.34196119124222,-169.516127264136,-75.8067642084634,104.006629411712,-154.087686589233,100.442235137003,264.744854812743,245.447614414331,-48.7914191464546,416.337846669843,-151.224058906408,29.621102361522,353.951861855579,270.500612431573,-67.8060828410406,338.888295469955
190.178766120904,88.7642365506199,164.782351272015,91.3870489772387,41.4847255519666,135.3719318134,67.7745423526482,22.3370877071121,27.0435496383429,-33.098956966817,-33.7732325447895,-26.9145700392544,-98.8533222839533,-121.509995058596,-336.718226628835,-397.011840053912,-373.00972985007,-584.129105900651,-556.689222307152,-844.160898715092,-814.747863443948,-972.705147422022,-1134.93458531861,-1007.93331194369,-1009.54707226699,-1328.37808231445,-132.936160703531,-854.980431869576,-679.73555787043,522.449815862212,67.7143920302508,-100.569221784952,24.3430000185228,0,688.94550850432,1161.53655877415,-507.848741582066,-1242.41485377003,538.592187821002,1420.99954159217,370.580842002999,-1228.46755584644,1253.53741956218,-801.251500955906,-1672.71265659699,-114.185138258944,-241.824847270646,-116.007026010217,-66.5602212243021,-324.150691609108,-123.318798545105,13.7342350877545,-167.289758487055,53.2274729736631,195.088898562649,194.239735081332,-96.783482541954,343.827143928844,-143.117531142673,58.1171527088278,382.702052204721,236.10878816668,-6.53852311942562,356.788391329008
216.517587510857,131.401177333411,190.784511674792,125.987612957623,93.4442544240667,171.692001989403,95.4258226385841,94.3902716563745,60.6487920952045,20.133247083398,24.8643112491444,18.5773494252429,-42.5397922555922,-62.4164210832765,-255.206174632984,-305.360822916865,-293.521409534283,-482.052539717208,-468.516945356395,-738.36982347057,-697.904859818109,-903.426192830566,-1040.72014581106,-901.651795729355,-987.761228146747,-1272.38391303611,-77.1288722394874,-928.596507417121,-473.258094159318,301.916906116734,184.104495990673,141.198095139465,-584.060019011521,0,386.391337567322,1530.73491966656,-685.639312512725,-1804.2736584237,385.768195453293,1690.52325069535,498.19086141219,-1578.47699085319,1406.43206667203,-842.512935562951,-2128.92138901413,-168.311045018414,-346.616160291892,-244.324436119627,-220.401766154862,-498.038794609591,-288.548474809866,-261.954795460901,-254.057920245691,-222.011091961978,-154.55745286945,-112.557654708176,-280.975377600128,4.63852270357655,-218.606278135462,-125.020832601983,114.328752632248,80.9537233021688,-79.777854797657,219.665073678005
108.972869799735,25.0985489761215,84.351053455826,26.6260397551533,0.162188302193791,64.0812321197655,-11.116165514284,20.640841743724,-29.8606322853672,-52.5467342027606,-55.5222387869215,-52.4915804134599,-109.073938710023,-137.466509974383,-277.94747274865,-355.284774678397,-301.978898655997,-514.682663971302,-541.379236150744,-695.861728464979,-729.316469058451,-781.704292969577,-1043.03262997818,-904.264521923823,-962.290204801381,-1303.41076827361,30.3919041494813,-989.645781027339,-477.951035368128,-10.1409889208512,146.995456149733,160.836594391627,-1446.9740766562,0,218.282867149492,1487.61567193756,-1086.71455241753,-2396.97840827275,182.135046333297,1719.66499462593,83.7353199659885,-2036.72478752138,1131.87771559764,-1070.86880450611,-2730.43340778766,-313.458178006893,-347.139333205202,-423.12089973382,-355.921846524047,-594.347957793953,-460.534764814182,-536.100877682787,-359.273715241585,-519.584072941197,-515.124546182283,-474.521450495272,-459.978895044161,-324.808635671498,-322.764204557312,-359.369605566328,-189.137583479627,-93.3189185844891,-209.758724240978,52.0269455421758
54.8529102228699,-39.8999313272664,26.1766190177109,-10.4133169806644,-32.4592214901129,-16.839359709388,-49.9249997955214,-10.1107771682362,-52.0359055986443,-61.1941684058755,-62.8316582223175,-69.5316129392308,-108.993729885995,-141.589042807893,-232.828139311655,-314.272942286626,-254.42470462844,-443.848795333752,-507.353380140331,-542.500824735272,-603.812002718599,-588.585038205018,-857.589603887626,-725.279944607533,-840.335921739894,-1094.35971618843,124.333190574258,-822.439735303964,-330.388081035476,-226.507658809987,305.378551145791,88.5506172243753,-1911.94043142437,0,459.608767059776,1261.48213171326,-1363.15706050005,-2650.87529617383,158.756558503059,1712.00961346033,-571.10981584369,-2211.72570116382,684.380229043879,-1258.03578658006,-3063.89309906159,-350.995735385717,-199.848117866746,-421.05652447725,-300.149772908891,-540.91975305718,-423.017173621562,-565.133847196357,-307.298162303953,-526.250797182979,-529.804093078842,-573.97336890873,-400.834007795873,-340.174771921286,-272.137939836059,-342.929553171193,-181.243957568227,-104.181295967909,-179.551680308281,31.5717327084191
205.202619202729,112.0833202223,163.611926331918,164.575225168738,177.28121485838,93.4848706240884,128.521055715034,167.566476491254,129.080534699489,139.515819614483,171.918657380484,94.7379873652609,100.088531771843,90.4384812476535,-7.15864473798632,-16.1934063534106,-89.5161868464125,-125.386272800421,-158.194905060719,-279.225207510413,-139.881295268874,-485.239801379182,-409.547010701699,-168.319243215219,-818.196326212243,-542.511305813368,-269.562962938956,-504.319874932285,353.494041729896,-674.268336470425,779.968067526562,223.525284354121,-1620.1288094343,0,838.835311879772,1244.62031727318,-1102.68205232295,-2232.98890241341,164.220297574633,1784.623717645,-831.516343666984,-1715.8439322247,471.305952765905,-1023.63634201315,-2678.36177080483,-104.599963784661,200.89466361179,-53.0433926013829,101.268987961611,-160.132397271546,-69.8540604722013,-191.203726415763,4.30022046427892,-126.069647411944,-81.6940586719251,-229.193734530279,-21.7833654131682,32.453014589009,54.7144460249246,48.3021678727188,215.216453746724,180.001479193133,150.788135897178,282.961306421829
489.869081869018,433.853754865943,429.743030055756,467.166256252448,552.841928618773,343.055133051788,441.572717068481,481.090888660051,416.976067692518,458.467829026196,544.922181562965,358.697508521391,422.674660602989,462.076284463166,281.969347982183,387.479424052782,83.4701935546389,262.434593881048,339.048950298801,-103.512044738231,402.340206453812,-610.449088589047,-7.96942079143838,471.971538565696,-1071.01841321389,-42.4979469167883,-1407.54478432106,-343.646508346038,1134.84808506434,-1600.9721305352,1129.45148979524,547.159270299545,-812.783816513942,0,862.416346671252,1359.62332010734,-298.673962908389,-1255.37218247575,-99.5717931254883,1736.89955690938,-524.39215761175,-599.691093291645,546.413385741544,-335.665498205328,-1648.92971148294,285.702090700594,759.456813656332,485.229972116793,686.560060258243,498.972702154285,393.349705814493,407.950705149423,408.790769411954,424.786251440657,521.168174248057,361.229716290781,461.923760463261,522.700585695138,504.087897856149,569.135110719875,694.449950312576,611.655549910847,616.789975678127,678.314724657235
727.429904479527,725.193277312216,651.702279924556,707.724197100495,861.964125456293,558.105833163395,699.91876946284,734.689705960376,633.83653598148,701.365633633148,826.496984590705,559.23394663361,663.050259363601,745.952196786629,463.947421699486,645.816398400841,162.346331735265,477.607416279262,680.95614667777,-91.226584979579,689.417249347864,-830.735929102045,120.618252050169,827.857959070918,-1309.17195931566,133.285750965844,-2636.11541094693,-339.74178909793,1300.23554936067,-2352.84654646736,925.231976907879,725.226539264261,-11.3861656850158,0,458.329690419913,1177.94805578582,610.471746535147,-245.153989110151,-533.908856634738,1367.59140730028,-65.8493817455688,631.466966023436,634.023040357458,422.629396093947,-531.306753014482,549.393431527341,1126.12304976856,827.310400759922,1072.37798632636,1055.38328442141,681.664613904179,858.173419786658,655.974351587647,789.785238734259,890.334804394059,828.652915287067,777.624671902938,807.573148625754,817.499008620634,915.243451980052,939.480644792785,920.422994846955,941.35456183843,945.872790259064
814.305771955851,844.17486103721,731.321014206994,791.55920869916,973.274462040595,636.847910396606,799.513557338463,824.893859905662,704.185690633368,779.918512440223,911.037997114923,626.953683008657,736.958874896339,828.634317810353,514.082978963189,694.537969329198,181.653958432803,494.625391127726,766.038017643102,-102.854958090493,687.527878452663,-860.448767644768,93.9461259273997,885.194859575728,-1112.52801256847,161.166678183973,-2983.63173805901,-194.241906172924,854.86742793308,-2118.26871046061,315.648733831641,533.719880947688,528.075264706463,0,-27.5582015538288,569.255012472506,1216.66258511901,423.592186944325,-785.654664647487,766.985909853507,167.471721294485,1521.26000907109,538.789498056013,930.058157937077,278.556717211615,626.558692800265,1137.95689024378,879.732947441495,1116.13266366283,1259.45877888382,750.238208847648,1004.56840624922,698.223251283889,882.366115035383,957.369216403143,1030.4694079556,866.569864825852,853.229929402775,908.727471151414,1031.08238660276,951.412373764945,1040.02422569687,1035.93524940297,993.610095371099
721.374522491977,766.757473231816,635.318147345961,702.002601883564,886.076628229488,547.973421721334,711.021505742474,733.27384820099,610.428611982207,682.638424075462,796.99059355742,551.655015290824,638.755013942927,707.526127594001,459.096554275831,568.772183956159,183.532279578529,375.278920701189,612.246754170235,-70.0699061899344,472.759663923765,-619.0356539223,10.0663385144175,705.071884082966,-612.338890922932,122.371106902219,-2319.48997675976,25.1534721774949,267.982437704511,-1244.90684676583,-299.910949613238,17.3184255227599,744.406146193211,0,-384.012428337117,-182.650662439552,1343.96323512663,689.301172677907,-778.250655888597,124.395190341239,123.994519692521,1884.26976810594,255.529326610667,1123.40641028043,746.177925237715,609.634019246737,958.622614526656,781.923564835021,962.424259597286,1186.99732418388,704.400690918221,953.380106134395,640.754328022003,797.843055257556,863.802025192203,1045.55590303687,817.149993804043,811.693463053547,841.243486838734,991.806454193305,872.699276368987,1055.99891257249,958.601501904067,914.936015573466
480.347287398734,559.406091276058,390.985126627146,477.246781653758,659.578095596508,317.955726450261,466.53711986662,495.71759660507,378.050400424432,444.327747650171,528.596723484689,359.091666625773,403.1721677467,436.576633451891,317.182323976163,316.096073208022,152.945622316599,173.768328866301,270.269739883002,-44.1102873417766,123.739889702493,-271.004656067455,-140.408714760761,279.256932027638,-242.15622531623,-88.094425883604,-1311.05531024635,-10.9061129027624,-223.153986602568,-662.30606291462,-697.365665421291,-602.973784405999,473.610470759607,0,-653.520920261965,-795.402701433992,1009.84076256673,518.934321328484,-661.255010342975,-464.057070729368,-125.073961067592,1717.35007909093,-163.779078080036,1035.99078780224,909.727016031615,528.814513870514,723.754574839187,616.853689685713,713.506542014409,962.937745783617,593.977736416349,792.915607928936,553.710120252094,630.724612187496,689.878739737231,925.028719651121,702.733509470325,735.569782761876,691.024144517994,842.575228008534,736.444413860962,972.087849412882,768.266424361049,765.453016845694
208.689746243212,332.984710091546,121.177789357832,229.674161174101,394.464651909885,62.8724914515496,188.147801014862,225.670064067089,126.182129636629,184.415590392726,222.172094915563,151.477784075479,151.021455760162,141.379396783701,173.751172479119,67.0087111748055,113.482303442025,19.9656340573489,-83.6811077070021,4.49682576458275,-137.598289427993,22.4460385058685,-193.837123281347,-173.794180809443,-27.1766246981224,-262.964053533607,-475.499987865703,-149.407625068482,-565.742389742707,-410.919406988712,-763.563099308021,-1054.71849353302,-339.006100368934,0,-789.834515852198,-1251.36455345365,460.251917035388,-106.721210924709,-466.811496775208,-976.517860521042,-490.616886883487,1167.13787756303,-669.94770239989,735.070034804884,761.325690244347,354.207183915952,400.808271544698,379.893646933159,368.117560878355,627.335475895291,423.77896159637,518.669763993853,435.699551742287,430.128117161938,448.606884323766,660.157670858316,547.089981145512,568.4381723354,504.770666210356,613.360286087855,525.563620592524,730.810004122171,519.026305062096,538.768841036244
