111.137039330277,80.6160389662546,159.782149174123,187.693277773051,151.227569499647,82.0659677246406,276.428917786267,223.144035915586,134.988367405725,166.524317900618,239.963209512862,150.430108682535,199.220211402219,213.357016796482,146.152818845296,197.915275519672,-2375.56327773942,76.1937562531777,120.12659763227,86.5607468756368,48.862599157604,29.7235395469104,48.9350955955233,52.0524424260529,4.6397720268348,99.5376092631903,65.5367798790415,84.2408608622193,48.2826276542496,127.448737862118,98.5951555702395,112.006996585309,163.841949697604,0,160.289624239558,142.020521883896,109.687110571891,120.996554887301,168.191735972762,174.063947444224,92.5779512229381,116.791761487982,122.011505018171,81.2685069075283,139.700635870479,186.098356138827,165.726857083506,166.089339273102,165.799353521425,177.326287150593,140.208110935914,169.714161169067,171.671564992888,161.594560122106,157.679752474464,168.264232410681,157.172277409029,197.407800454237,153.402462637226,171.38157924121,156.882291657352,172.251536496242,153.329966199306,166.30682858686
491.674468824,348.375443561073,730.10653128568,853.047166390471,678.640780195911,363.809902117223,1280.40294404788,1016.54793658264,610.28570927148,754.195856352259,1097.00699955133,688.558673577736,911.294528957824,971.848668641406,668.19053443888,900.535362375402,-11271.9935597343,327.319316534049,524.107720143757,388.472362794699,186.614141050766,135.890269982042,199.862500944484,192.107848347182,7.37133196165863,428.44334028573,328.587159866041,355.570632332395,140.219333870681,566.535730915654,394.39287234157,426.133319312563,708.98967623332,0,676.982217448087,579.276284975265,473.557642064835,502.064433383896,759.932823928605,744.153477771969,363.303999655448,501.976808616929,505.140434091004,335.449676277662,598.354500501094,850.409057399143,742.364818358297,750.89945324313,743.796258871171,794.503991894916,631.573444225379,761.936953224174,783.331694846955,731.384239657923,708.168794650569,753.607145584114,712.720495082236,894.140100681254,697.950156820413,778.838372240091,705.834790024034,774.26672701878,694.778801797477,748.306613179416
804.392316839251,533.515782358282,1289.48430516106,1484.78013198172,1148.87497787183,594.115933642723,2332.41468681461,1783.7862937305,1049.04887540713,1302.03255427994,1937.68757798234,1219.10241023078,1612.90941748804,1703.34377573058,1181.35794936445,1576.6081537235,-21617.3784566225,497.27926249899,829.138635501525,661.353660795146,190.554280865452,240.402822534497,266.654214780438,177.527646216143,-37.0523535259186,676.714072571923,679.098443617838,538.241675918728,-11.0782809481336,940.35230824803,513.941493276393,468.101326676891,1090.38312387275,0,990.367391199104,794.234781966712,755.350696326672,687.717078160209,1307.90101691418,1135.25910874946,425.759323066936,767.777054145701,703.123955150846,464.590454045664,902.034727969812,1510.4047765488,1252.38762269235,1297.80862273486,1261.68707090964,1343.81898848463,1080.32627442814,1293.58003111201,1379.27867780387,1263.83903103853,1200.47185808254,1270.31610824373,1237.0694039481,1548.06826233111,1219.94860412783,1357.86079397908,1201.68984820345,1315.94346144545,1203.04576919381,1274.46845459144
486.350996276161,218.096582566573,1034.75301282669,1127.30430692051,797.285176051686,349.641742210132,2053.97805318343,1402.10947318756,762.951017989706,963.083139028937,1550.58245855795,982.117536154811,1300.55883390964,1330.62564655386,950.625835409432,1231.75803294272,-21699.5325798475,200.943600854395,431.30320077016,469.69255151784,-175.94623402705,184.643752231118,14.0619617366989,-210.336749411543,-156.747755497003,396.331072940624,724.812417524431,261.910331768777,-508.194256878802,590.40451947875,55.3225905094004,-204.57209286323,461.394475228343,0,316.455317466165,141.31299290302,478.910401576993,74.1889558362178,950.651871690988,514.772218792426,-141.536148919625,346.116143464266,134.631821619634,97.1763633784195,346.105484865783,1240.90072367811,856.239600760836,971.917420139013,884.976595868388,934.593453594594,775.338294842301,908.141238322039,1090.65756392627,940.020816617669,829.426892130821,864.174577997235,933.592026844622,1162.24561721995,941.99341197328,1040.72149673451,847.036867591626,924.561826917943,900.011846435265,900.361347886851
-162.463455988897,-337.917091498908,275.662648084271,164.145005272318,-18.1471766504027,-138.72130370007,887.369732534896,316.313032623802,49.9470694470094,98.2665284557237,394.816540152412,266.310299574568,353.030545198172,280.113748678391,259.661690087721,266.77915853396,-13774.3404587625,-302.199251176485,-295.223143335073,-0.796552339206819,-605.964726358553,-7.07589971415249,-341.316206934512,-609.671166725051,-306.965167530318,-89.6494236464569,353.403087003624,-172.654331605257,-814.928063189342,-207.052883755469,-484.827273338963,-921.984668000486,-665.084359642466,0,-730.516588346112,-863.005056924736,-5.23529685145277,-790.164169337226,21.0110728569008,-544.429039914014,-822.261102641085,-341.872029757311,-694.763996991914,-382.800766736115,-590.259619308693,351.630991356126,-63.5499379199483,106.116916443538,-12.8934138805358,-22.5117529441266,9.27817452650244,-10.8231698101864,229.506639547529,88.3934704027431,-58.6642819315281,-72.5637596302883,114.486406103843,146.015240770523,162.232496671118,167.415597029943,-7.65802341210219,-8.39142892986864,99.1396965695727,-1.93007828851446
-450.435028576607,-588.414288064278,-72.7369549714415,-297.657641891428,-391.165367371617,-324.17550282968,333.316303162196,-183.547928925784,-269.608097723801,-292.691569867435,-152.432252488228,-54.0421417948976,-84.9382288981562,-206.77480259475,-45.0043665616569,-167.34009291387,-9431.755735407,-490.319811044874,-559.993906226534,-240.785177113061,-679.113733860621,-183.633438171273,-450.701102072205,-623.833550803993,-432.860730618117,-219.764012039952,-116.427303840154,-284.847585522641,-640.666234467595,-659.728040495324,-543.262488654333,-1003.01617554558,-1201.36900098529,0,-1046.7270477454,-1452.19610168173,-218.709504749747,-979.231668180865,-487.099248132716,-1029.4732654413,-944.392501598353,-531.432519862374,-977.78148130267,-413.965876702745,-963.724454727577,-207.989659093743,-541.613957000379,-388.022568433667,-485.780978054611,-504.041629992334,-428.760365731145,-480.878056938657,-259.424595161838,-378.691303718095,-545.094295282428,-541.38410210504,-334.0083314043,-371.093824563872,-251.178325956902,-288.199006144459,-439.54866131495,-471.239398201714,-319.001800253779,-454.184442041501
-466.349046202852,-608.060299610329,-55.8803460743448,-311.253642145525,-411.582750188808,-261.198424231638,354.913396616178,-158.993001362882,-237.594686661104,-263.871322846899,-149.340296848024,-7.09881798415723,-51.7672841013703,-184.221366496754,10.4722199978271,-116.451394942405,-9152.98842739555,-427.790930600782,-465.793983882642,-243.522685315266,-532.226943846183,-284.206958735946,-377.063572410479,-458.079444589983,-486.992046174393,-115.555860144812,-389.443632743806,-175.761729103224,-410.342904504841,-676.027730356175,-441.408445699561,-883.278627246248,-1238.41650809308,0,-822.978200438033,-1747.54105207706,-476.961977864793,-672.229903669523,-547.939063250495,-1191.70586401972,-774.300007243688,-389.316894400791,-910.209301627754,-210.448358778775,-886.902567498342,-508.674566828288,-693.628432872558,-601.691146129353,-653.690084760139,-639.556552653845,-617.001980824216,-615.798169427708,-436.318377715551,-541.633698353766,-711.689320064661,-646.52596556791,-483.33354973507,-485.544352922006,-357.679229468991,-397.966539329619,-537.315595529519,-570.0300380449,-423.059693973901,-548.614460366581
-586.28686834348,-681.387403633662,-154.043073977836,-459.909309925627,-554.364053304607,-270.144824111284,174.66223666958,-290.156442281293,-294.411066729624,-345.966384031824,-313.45350913282,-60.4871085535412,-148.568130831531,-302.603600969702,-20.8606685303474,-181.500694228065,-7249.15835542637,-393.534632851214,-449.992865937302,-226.975412421324,-440.829507225417,-284.978382108847,-292.44726373397,-357.208928532583,-393.339553035591,-45.7412221782466,-394.996209857176,-48.4040770130392,-292.18108175562,-528.545372286878,-451.835076753166,-880.350523098779,-1234.17644563487,0,-682.792457974279,-1803.03772198063,-907.803111059942,-389.848097997159,-608.269110779942,-1479.38467522982,-673.906675686074,-326.208622578306,-886.171768782207,-138.752176025604,-798.220718744796,-927.884440608014,-986.51074752873,-941.041990877104,-971.024743815477,-935.32278051959,-910.999203951281,-904.114225434465,-740.315583746008,-832.524527137258,-993.82741197497,-891.385153557274,-759.630376328436,-763.329178728928,-584.849395116248,-644.982336401744,-768.384088467038,-817.275125929808,-655.721316406487,-780.313527582681
-679.606780011611,-680.113397729199,-267.374241968163,-622.529341286681,-658.046682718743,-301.091899556329,-83.7109446038175,-454.740028708317,-371.525604362081,-438.49326717765,-501.404596108356,-165.197220886908,-288.014842588326,-440.586597213093,-93.3976872745454,-273.30891168611,-4115.82369129248,-318.68206913067,-404.405203769551,-158.145258573642,-309.947523989856,-158.738618314955,-136.340272095192,-153.832756078522,-143.170875606686,110.96985479193,-215.082455090458,193.345629495074,95.061044982241,-241.849256073458,-229.660731894684,-487.570695435093,-979.953170970777,0,-506.818592760991,-1218.6462472478,-903.691407795907,-10.6379902150005,-625.515353671091,-1477.98551356121,-323.221438305986,-168.276419878676,-671.528420223537,-9.81841342008891,-514.283609375098,-1137.49133416828,-1125.96027151813,-1107.30846776186,-1133.39437662503,-1096.3677061699,-1048.72253556706,-1069.70600987878,-928.625590296092,-1001.2995262803,-1139.14968383719,-1025.14962328229,-934.037769245711,-953.561358397875,-745.258148053557,-817.985738460571,-913.620622640707,-968.896353669008,-828.997285608532,-927.8187246761
-508.219707104625,-413.938831131888,-143.006259261349,-472.877414362181,-436.690486704806,-185.42515109886,-39.2183979257647,-301.299397059668,-252.045620552718,-265.163415558251,-333.248466799893,-107.90668913374,-176.934426050285,-261.11070489323,-12.2252398321483,-103.72541821582,-2256.54451070364,-77.1204835423576,-102.768580322025,28.9820830141129,17.1548266521607,38.046482286048,146.988975234108,303.316335758094,122.847642477553,439.723745933553,-20.837265426599,544.803350399423,875.605512877167,139.340765517382,365.680188531213,469.621905184821,-357.277954759749,0,-37.0879464925867,-83.5782850707547,-281.817461747817,586.931666449103,-422.703274385291,-848.048505191709,478.608767934418,203.596649426161,-84.7145418925256,345.865946730542,101.051204272584,-821.622543679851,-753.808336186931,-767.68252218892,-774.527551804029,-742.491066611717,-727.781960421324,-739.726521881811,-670.456039237176,-713.564907743737,-808.818457344145,-681.21206128727,-678.374806166331,-665.665975616711,-537.244039809527,-575.482093220286,-629.520504230767,-659.913942102945,-631.368620228198,-642.901211114139
-154.080135007792,27.5940858576854,119.09794128535,-101.440983947376,-10.4232389647458,38.3433240120329,173.526889793993,57.8284111477875,-4.26543435346926,79.3391540806251,55.0872267201671,53.4947446387247,88.595321973891,114.927436131973,160.211442544518,225.70380544506,-946.219252305076,248.014064494482,352.737302735624,262.067723320881,462.411231504146,224.867176832888,465.06434858874,882.692847849056,292.245429981413,764.10623531695,97.5999369703988,789.237779775126,1682.6813481412,480.291830866093,1011.45756125081,1422.44624151509,282.844450405325,0,611.226470629364,1037.42786618459,332.044759613533,1093.78195310229,-8.61326380655142,127.915337096187,1301.37135066637,470.760435064541,623.513751044008,658.828008787465,703.399188777579,-229.251709335014,-94.4485078675191,-142.00405508329,-110.608862647821,-87.3887698382632,-132.805922158465,-112.010304261658,-143.604856874034,-138.396586451379,-181.307577241376,-45.6996873667375,-145.461544810824,-85.1810133187823,-88.1409666567521,-59.4555744538634,-60.313252623554,-61.9152015074509,-187.007555778504,-79.9538725964547
245.890230440143,516.151953658473,380.560758481915,317.887770358029,447.188616816438,292.155109134139,374.333654760743,439.453201365356,273.323885771912,444.232996702872,449.685588011146,237.423706485839,366.703304808368,499.437993978368,353.014476336527,557.228053887892,808.805590901705,576.463811766517,807.382014855462,506.831202567963,898.856973659965,414.536411173316,764.240297562449,1378.45069597851,472.417315675658,943.69724162526,265.254532704669,870.69820179009,2106.44608170314,865.399557373189,1510.34616326879,1979.8503528462,822.087610075455,0,1321.22192779708,1914.73623410735,593.658209494962,1360.7427783387,631.218414100685,1169.99445245147,1778.72739157466,530.543516555927,1303.94877517942,780.051561246316,1089.50163926856,390.373307613247,583.410679120003,506.242158840053,581.916966221419,590.436184789305,504.121536411586,542.775126488423,413.726557303009,482.86702796869,486.704443558643,614.395615855938,429.65915394165,519.265509442251,401.517666252814,498.899330844746,553.084730858011,570.033705524598,300.465348287259,518.768055036065
654.005494032291,997.817760704593,656.025436953545,749.133352004234,897.548738557723,559.875600553433,600.326445353439,824.532255189394,572.942057173246,806.81062089097,834.375337691949,451.236044314036,659.586820588136,870.980120383376,575.56567663534,861.874125307919,2274.95240828238,881.819418162436,1188.97278417742,764.542131402296,1235.38074075731,631.700990722161,1032.12873953434,1593.48841099574,794.038535134889,961.228368810532,615.932499449109,941.719446781647,1902.29657783408,1413.8214507995,1828.40300569945,2152.86829733228,1415.97422846385,0,2005.12696381709,2537.61958089094,726.890199843513,1563.68007458481,1392.79670541769,2127.71102006595,1921.71332229024,633.58185679338,1949.70884254927,858.330257746544,1391.47825969048,1055.41176805187,1267.79740792347,1158.2380185174,1272.83514087328,1260.63749154204,1157.32199547317,1195.06034537603,989.573262301048,1106.0593641609,1144.16180581214,1257.5465134964,1007.91342461262,1116.23531305395,901.556601850762,1053.57463191068,1151.23963164086,1185.92157954125,797.155051170094,1100.69255520273
949.855514442087,1331.63774457572,866.827384229138,1061.75859830441,1197.43356352809,757.809884921463,746.434552012963,1076.93995140295,778.441430612694,1042.68502160347,1079.17428046027,593.843101756397,845.96513358285,1095.84492601773,705.456646811258,1012.32158746814,3210.24118088088,1038.50502163582,1349.2140339596,915.080878321533,1342.52372888857,789.985006128428,1171.72522886866,1414.63503255215,1136.45857312848,856.489329915343,1007.38131717119,1097.61535881449,1194.35055943128,1905.54647129428,1824.97200103432,1910.46800468493,1881.57697411393,0,2389.95425409723,2693.7040272127,777.386469196209,1688.97028539675,1898.39521091269,2672.29207331274,1727.40199857594,741.888415812113,2318.2618808009,849.700229853291,1570.45565753174,1650.79160830672,1816.72278851833,1700.41286208918,1816.21984838506,1775.21014873135,1703.11918371969,1704.1262928103,1486.89733091639,1602.53622354493,1651.63837475908,1739.39473995599,1479.59181291666,1571.31880363136,1313.78691670051,1484.48373767822,1601.06858402282,1637.66602136117,1198.05058273769,1529.88372745553
989.291731732418,1369.5834936483,858.554919560978,1083.34411202589,1171.47795333794,785.519847888395,618.548758283215,1014.90550088001,754.125443303245,995.624309238736,996.363475013543,540.112833721028,760.633556874515,1004.99227097264,602.128059543247,881.095406193781,4308.07372996326,953.869251947367,1201.52087843862,843.393701107176,1200.7252800858,787.108901287934,1127.40842488553,1034.85841639455,1274.47079888661,761.612854374821,1145.17069348124,1262.11169851148,644.25908301213,1999.44612834372,1500.58158000497,1364.24465599852,1848.9579909556,0,2326.21904142247,2365.12419968699,625.452441625014,1479.47118471535,1926.67762951063,2644.69423053232,1222.69032972836,580.750199599257,2207.10851257732,597.253866712999,1387.98342029258,1881.72312215448,1941.42751824347,1881.59653904397,1934.58461571878,1863.45191284045,1897.70765146884,1805.49058548388,1672.67206715212,1746.6881110593,1772.34712455937,1815.19554824465,1628.90367396463,1639.53009042026,1448.45972474116,1585.63834859532,1690.93873251427,1695.16783187544,1313.36165094874,1597.86454109674
805.251151361097,1143.92896563471,645.840121834317,849.343743312582,867.889655658037,687.241846050467,276.162973448277,700.606630135519,561.353243329189,726.638836356626,654.707934305372,352.651923115879,477.881182399853,679.408367505067,351.99982747346,570.474657015353,5476.35448461065,724.967144190344,881.84813643483,618.480454753597,945.913301435932,633.712855352086,948.698085431322,724.187440276051,1138.62439495674,676.583933555185,933.331097348365,1164.60061205578,659.16986884502,1638.81693793418,1059.70032332552,832.573265038223,1336.89843508651,0,1980.5340441453,1866.75042834761,380.308639284061,877.479043118389,1642.91489986549,2302.40320789436,589.771453977437,208.237671665003,1762.98465514655,204.0385423641,830.975417765539,1618.22289450265,1580.57131700303,1605.90493946861,1576.88351945354,1493.41655414911,1655.16838927407,1461.88089791981,1455.70723565176,1480.04435117923,1468.09753294998,1466.21563316123,1393.7846645133,1299.10188376662,1246.98090896751,1319.74916785142,1394.9384481077,1354.1415313145,1105.96704960874,1299.97794033328
536.542040999714,798.734006724469,365.087838921129,522.589258546502,470.572709365146,582.977365543184,-86.7520285688774,326.209956779939,345.238250768384,409.576546175969,260.687915419851,170.452288506573,183.582619720015,315.816496816644,133.012366061672,253.446174038076,6116.39638134798,483.66478541861,543.738780935973,382.2170447615,652.510643563617,434.963793627349,660.196330011327,416.853891973547,837.445865293692,358.784181230407,581.217345031597,567.743200258935,636.202022181744,1056.89785071937,544.68154367047,279.493547673949,698.23069302796,0,1490.87663427467,1270.06359607818,127.473163922751,111.777318420551,1236.45304821171,1838.85113334522,-92.9548293219064,-117.915487768803,1161.70592725143,-167.342247217902,134.936962644666,986.351877191088,940.236602256062,998.974538076215,947.206775110672,879.126748420617,1098.70835523,874.84083614197,948.976467140801,940.667013734192,918.729060433607,889.424786603761,905.438949607356,744.722186942565,813.310324611229,829.719242585135,879.67846420843,811.960755417263,699.73344965106,809.772526427658
280.631242466613,461.964455354971,100.112801552141,209.773249327647,117.135906758917,488.429139579404,-392.715117040802,-4.05136789472599,161.420243060476,132.912792710077,-82.348558991782,27.6851286854166,-57.0928214118172,0.488116119066802,-10.381677494135,-14.2265934872665,6514.57488161662,284.954627135398,233.204258999433,218.460475974998,346.38975268532,331.26671506464,340.912186823631,-10.2025508572784,600.024576900014,-168.731022574351,416.711785072841,-243.838002843553,-110.765251883435,548.140170231963,-96.4837088282542,-539.503590734851,238.072470201878,0,834.057762660823,414.54822307754,-185.036186547781,-566.1249924243,751.522525195407,1203.95717901437,-787.082855793313,-335.706959685806,457.675004569708,-486.07618208,-439.235987047741,263.086669098491,298.085811827252,315.246989916937,309.087018823594,272.945969905251,466.741977249474,286.577515181972,361.199169917441,351.450354709795,358.302247738249,316.578328839055,364.42565451114,191.048437582709,318.493823747085,308.484741261895,354.31856067886,280.115563922952,252.778323843005,313.111392765444
104.36095342788,241.744285970417,-103.62499227073,-11.7599296022863,-91.4738004227437,352.809788894458,-610.241703004093,-228.40332112818,28.6169327130886,-57.5767651130708,-314.086061642515,-91.9684381875445,-234.233233294498,-220.058811049638,-108.922207155034,-201.526787769277,7217.19718289011,173.68235126156,20.8702802631213,162.191877260308,152.701620700854,383.123538230797,187.195678696673,-342.664363762023,601.41956011045,-464.009444869435,556.826080814256,-639.154606490101,-1186.55952941614,251.125368528598,-689.858581340835,-1296.76536523881,80.8349277524475,0,110.91137808232,-509.344579048768,-432.699403537991,-960.29247492917,288.056401093317,513.65000756433,-1230.11395285559,-452.238305370386,-159.346419105308,-656.01149610739,-615.123542857813,-206.464778050862,-72.7474721675641,-129.280995726018,-75.1942395739724,-84.0976138356059,44.4242515414848,-69.6515902031815,-63.5615861291738,-41.3849746481311,13.7560918116326,-24.3384707472834,-13.0884837109458,-158.331668979492,-46.3275451589999,-49.2320730350662,17.8660364023254,-46.2658991316977,-71.7574141687879,-9.8122506246119
35.8183752240037,177.131255145897,-207.565384031696,-88.3663534777479,-125.681112272659,209.667198283303,-698.663888433322,-309.067554244576,-28.9693045147962,-129.796347853896,-386.041137532364,-172.099152271665,-321.876803215031,-300.792507273066,-165.213823013864,-273.220298446243,7857.0674785496,153.723207180176,-39.9723860081066,177.433550634345,122.493788506974,477.084152612369,221.631578713208,-386.786077933276,716.931263700653,-369.669136592833,732.231278250779,-494.841347201372,-1714.79135976262,74.7420761193615,-983.797844651832,-1376.33719503882,166.767804557905,0,-393.464448349842,-1097.74040057087,-417.219896314487,-955.019374693524,-25.3077637723043,56.5502016340655,-1227.4122582866,-387.601083081875,-485.030669979285,-577.563424631716,-280.271075384986,-245.145719276575,-59.8810469856567,-179.542568328313,-89.1076370588189,-89.1914857354011,-32.4019180431259,-87.9976437565958,-188.051525025683,-124.546712950001,-16.5353029980906,-41.7896217938523,-115.052162934838,-204.899005949059,-178.522905677767,-152.043072828781,-46.9749635078745,-82.241267641201,-182.272385730766,-70.5010304901027
-24.3874656810261,140.372970238981,-271.23439473814,-121.391995549967,-141.805066818719,102.036998664189,-742.689632152204,-362.777694790976,-71.4943136795625,-184.536118950492,-424.490382269915,-234.784231935327,-392.854674707912,-354.044156972566,-220.125845417372,-331.447378445993,7960.81846469322,111.418284856068,-93.3753460854414,141.802392097207,66.5660293705869,449.705360222927,188.411749409195,-352.038403252921,647.711945171589,-265.754056421204,575.311034273597,-286.423194324525,-1506.06998499393,-156.027807046827,-935.352375891781,-842.073496786206,274.834167039611,0,-540.111005944916,-1355.1825411594,-225.871582521261,-701.626248805418,-276.737676272049,-205.697950327144,-1025.93813546077,-152.750558008359,-696.983877418775,-413.363267065015,169.178965005164,-108.675728598175,52.0337662574229,-85.5126677322237,0.43804594297676,-9.40749213873101,21.1026878546353,-10.07118874665,-171.200306649859,-96.3288339621632,43.7458466895367,13.3724915747053,-100.487617340987,-162.779830341082,-205.324622863165,-161.680582833265,-33.3974950952923,-44.8219755863031,-202.46447694761,-54.9218396254375
-199.034945771801,-26.1662611526422,-413.400301720763,-281.298477686176,-323.135067537922,-19.7977385037303,-890.512468736861,-556.047754473095,-204.870726659456,-372.421832432684,-631.539886257001,-355.223730482638,-574.556804155645,-562.823963915032,-348.675532438725,-529.592193480339,7977.95088799381,-50.1791582693623,-308.04235787262,-22.6678093382648,-155.207179223159,277.084166038834,-49.2854950460865,-458.47185837685,329.816450207216,-389.477958519897,84.3457545041739,-303.692938307798,-955.183755102697,-511.763362905061,-662.749391530484,-243.378499290213,239.940662523314,0,-501.301128426249,-1498.00685359844,-17.9534128609591,-466.322173287373,-664.165642911675,-607.2603749849,-888.678204796723,162.523234908675,-1071.12600436718,-289.871852549619,248.25195502847,-204.162136049634,-126.185114761576,-209.208322156393,-178.846874205282,-208.598463306656,-107.956919055854,-183.546848632957,-286.185770542144,-241.900927988184,-120.195665601442,-186.36189536704,-224.379591902272,-345.378893682838,-334.445978796654,-320.559553505117,-208.680126687074,-236.451330198026,-335.300520192849,-232.426397234472
-407.046276827156,-257.9190407505,-609.178109277416,-521.916352995974,-580.300911960102,-159.928149160778,-1096.51851915593,-812.901575098521,-392.617520335614,-626.30741046711,-937.497674055315,-513.843389338791,-809.848105505654,-855.816026106247,-510.070993708049,-799.012636692906,8353.64811272393,-234.696550380632,-569.93928200695,-221.953316061465,-376.957655395086,81.284093928855,-289.822367986023,-551.673373980091,2.8060397791681,-510.637701547416,-375.790725989432,-386.320207436661,-357.381285248171,-904.766336790588,-336.183948894872,252.278220255688,174.642663525027,0,-514.356237569015,-1352.3777816303,363.79589603893,-264.446262227199,-1128.74455498621,-1178.29718238793,-576.907678763986,584.395207724704,-1392.66406254284,58.5731322652759,141.968559765013,-503.891054213422,-493.359225929468,-487.301184295138,-532.769571085942,-578.165363429383,-368.482261803152,-526.820866093368,-512.993413825586,-504.927276197267,-428.164463652361,-537.686787522214,-459.736367387665,-673.500124519631,-538.220575393782,-580.452630613725,-503.464185075273,-571.382015764122,-545.631454862169,-530.680831922011
-468.739082331823,-369.074059385052,-709.81054343321,-639.959374927488,-680.150332091985,-227.184101633644,-1175.50058312602,-908.969473743272,-483.45546325328,-739.574914792332,-1076.75929564357,-589.460790569218,-911.971031282536,-983.503847669068,-579.205223095304,-925.57959157186,8592.31924198719,-286.193751053699,-657.998907329071,-315.344699355017,-405.248073116335,-33.7567570838471,-334.639906348224,-446.448872732917,-146.860810057305,-417.435464347448,-581.037707767784,-363.995800309753,173.95629105466,-1199.55726911097,-151.979667314587,790.955658391825,262.316654632213,0,-676.885983173976,-649.542383785142,1061.09918949476,-52.2596426118005,-1449.04229387415,-1617.76547713949,208.384840474558,1082.76498292746,-1284.91765472494,780.553255352518,337.030842071401,-665.371113666675,-645.363133064503,-601.349747328685,-677.238847277555,-724.629342275171,-483.991351180981,-677.423130967572,-623.735341106662,-618.430248491319,-555.899202161245,-684.797521516978,-579.352317428794,-812.848810117763,-634.033172110657,-698.523600205243,-637.366262510475,-719.354201458504,-639.626443941791,-662.026318957748
-373.127168430822,-321.41116927108,-662.105356963813,-583.586925590353,-590.901036703917,-185.273538522586,-1089.23518470755,-808.963157661224,-431.271466054298,-673.180628017917,-985.877834616718,-540.055640854613,-844.429742801412,-894.856378020613,-537.139326719929,-863.645838369333,8294.64332817868,-215.526669266987,-570.244105324241,-325.348663233093,-298.276809353599,-120.333933617487,-278.398417904946,-237.385436286046,-245.764234205608,-239.864761223181,-758.153399561504,-320.464478324363,567.167347309354,-1437.0469683062,-175.722783329893,1306.90031288878,458.548879976773,0,-1085.65151319671,413.378142915436,1780.63932901898,97.7713606245116,-1679.60797704675,-1799.72015967819,1271.69950099038,1455.66936374583,-823.796726145292,1504.52509175291,804.424785553146,-619.689371469529,-521.6039549943,-514.623802702391,-554.542580753583,-593.861541771012,-420.665316143732,-570.429813178851,-578.36099563707,-546.876217790514,-455.917262862821,-572.720466115661,-533.880793649292,-707.81282169829,-592.858337137025,-633.23757852017,-561.821302452542,-621.617994249799,-582.844502029879,-576.131747950305
-222.952328017768,-195.759884905258,-540.1954594688,-457.860502896278,-438.955396886649,-85.8468996582713,-954.776734663492,-643.798849781162,-320.305206386356,-540.586422210711,-817.057507079757,-443.157147888465,-719.053592318889,-739.035373869286,-476.840837207072,-744.482484989555,8041.76619001881,-145.073187826599,-434.392807282987,-394.878079936274,-204.130365062351,-327.40691951005,-341.218382281866,-75.1880181951154,-579.813967406206,-242.021000267875,-1234.97418056862,-471.747044477011,798.856376800465,-1816.9484667222,-264.258306667342,1564.71906421456,619.57946173686,0,-1838.79942646793,1364.84675818023,2138.33108512542,275.814407406464,-2026.27606147339,-1762.26334189009,2166.90454960767,1616.43439267519,-277.028063446923,1868.55698509557,1175.63804842921,-551.882021547369,-353.02238584332,-403.494433562944,-385.835801170807,-411.870847510816,-335.466247482884,-405.343289202494,-502.230651148415,-436.808233312431,-308.218671194088,-397.315231382885,-441.862837077258,-548.691598026769,-509.465854258039,-522.514619277221,-427.466666899011,-453.654935117763,-473.680630002548,-426.199482758622
-59.7092709689449,-49.1482390917906,-410.245797245802,-329.904698284062,-284.480389644142,19.769707452331,-838.913492524304,-480.042491068514,-212.545909691014,-405.522996438624,-661.857751558514,-360.541792085135,-600.291543757662,-599.072802475089,-451.476410726459,-653.901103072274,8224.46809203902,-137.077553759931,-309.239052872082,-568.414248634589,-173.805671170942,-693.519949548129,-580.702947963206,-3.72260593163612,-1198.47857738572,-533.834310395459,-1928.92440611759,-878.903891493835,797.702973239783,-2262.09061908249,-300.460633794639,1434.86839899883,685.533050928003,0,-2568.99243383571,1790.59339196664,2026.70810346415,554.150824416499,-2301.10542959769,-1395.63196865597,2555.85163165347,1589.86692545184,270.1893672326,1866.10938682373,1257.76955320154,-508.935987007325,-229.079806783033,-313.021441377752,-255.676056065365,-264.52437728621,-266.907389829474,-263.484767537452,-430.69083023464,-333.178295264748,-181.467162613907,-245.295260655391,-349.026885599927,-413.094847026638,-412.247983627779,-419.514265660863,-298.64185065776,-294.727230469938,-347.429810304144,-279.490485952074
112.050626265284,89.4406661051906,-277.263316154933,-196.085876618474,-122.673281364811,112.266847884547,-706.957070638398,-303.800770797218,-100.850176622353,-262.248978892849,-494.8908496765,-273.072845800675,-468.544849130815,-446.890315125694,-420.07147313954,-560.538204527343,8173.70334328385,-150.662400025745,-189.690919272411,-705.473071595684,-175.429151341889,-1021.21476391524,-809.252138005386,-28.5467717163753,-1712.16960563001,-920.616479975016,-2365.53519734298,-1245.88648295417,477.125491614231,-2286.87316772903,-309.716119379139,1045.57243097721,686.13558760173,0,-2448.8730342243,1553.51036725977,1557.4969220937,723.375608671414,-2049.66180437324,-634.615311181406,2345.61545174109,1350.06855925233,740.631267210304,1592.76954216177,1062.63155599153,-415.444138215234,-99.8436979331856,-197.136926596915,-116.082207947525,-108.582654683806,-166.487709303923,-112.709499627715,-322.922344256981,-205.747940630542,-45.0952750959693,-94.1939399357979,-230.402375368034,-262.163270373377,-284.19677486282,-294.421683767119,-157.96878719297,-132.230807392741,-194.659381808472,-123.171041354091
240.330986766043,183.150997945332,-164.237629979864,-85.4998176833275,9.12084670687532,164.130416864541,-568.91861797806,-150.720063323988,-5.51403027719617,-139.905309080381,-331.796731472464,-182.041333180701,-339.37332917401,-295.850969843636,-360.161725610506,-447.145327378024,7524.77539012343,-124.285062844297,-73.6223497133448,-661.305391084167,-143.052480868775,-1033.83373968966,-788.431302314086,-98.8467829670609,-1628.12612625265,-1034.36714911724,-2125.27498284812,-1180.599457992,14.4755736937339,-1620.98930813802,-290.82228564274,734.159341701341,736.349938030297,0,-1285.98600114581,1087.84766416043,1017.41380991447,713.686977351734,-1258.42575579149,212.115325337382,1807.60335275504,996.492201132329,983.014445445869,1151.18049675358,707.932019258013,-305.611813878319,4.02790087255752,-101.64015984491,-4.24040742177528,13.0709888794337,-75.7752741177464,-0.603655815146155,-221.004230184083,-99.319903862839,61.0924477176814,17.0416990061272,-126.013964477704,-131.720010830446,-177.048268630925,-186.898297775059,-48.8053531692687,-12.966775231183,-69.3301489712976,-5.70932441346153
265.266814483516,195.65177119677,-144.356560650252,-74.7134056616146,45.8995080506577,132.548559714766,-532.304120530093,-109.183411222511,3.30253045624799,-108.910570849994,-268.386443756403,-164.15900189355,-294.49550158983,-233.176323627591,-335.047326901315,-381.46445771456,7118.22875755018,-64.3233076103799,21.2559608227283,-483.143169926889,-35.3311722420798,-692.982921860319,-506.19899984082,-77.032518792299,-926.069221750519,-732.927228497795,-1227.33937350324,-679.190290206851,-182.660319692523,-636.097247210009,-176.299297369588,659.931034999917,854.935322335128,0,-49.2069694477325,998.212130201639,653.391002752565,723.682466438413,-419.824365113703,698.270173741344,1306.74974989444,701.940661283221,948.306707386074,676.04419917299,331.330951665769,-288.703929595091,-2.01955210046714,-110.640120385944,-11.9470419047979,6.69420241750897,-86.3491190624256,-11.3349245397565,-224.396708651042,-97.7955557125862,55.3356836531554,10.1297742356104,-118.041617117803,-115.757230371429,-176.271559185373,-186.559889230937,-48.3499398276524,-10.7968015897825,-52.562278215521,-1.59778347647546
228.798967935458,153.674868953881,-199.182186605265,-142.474933702061,15.8593748811481,51.9900666659868,-591.010818180011,-154.55268937556,-52.24020290377,-146.231962493875,-299.198422424326,-213.372090427886,-320.237787507681,-250.553970420019,-346.883698277886,-363.181352753697,7316.32289997266,7.14264082346215,108.281084110263,-297.494225012016,136.554576634788,-252.522654038185,-153.836927340051,144.452009557417,-105.918297619439,-235.178804174456,-173.03742291888,-107.703926572094,66.5447989175118,118.999594332723,33.4448754392716,647.756588266694,806.887591522397,0,366.391522931028,1223.21531785467,416.174007596772,809.695317060363,116.378203161566,746.333402676008,869.720539761993,452.880920807889,740.625330441036,244.567577237277,-0.365089922474791,-341.147897610101,-83.7447069217394,-179.647671537764,-100.484615260045,-87.3506745291617,-166.333893392639,-96.6739042290071,-305.279462573489,-167.215735923828,-29.0374752194127,-79.8342762000369,-179.198804970669,-186.841849471226,-241.941862605774,-261.609742009708,-123.798318222238,-86.7084774275138,-106.778343201311,-71.1422172122935
224.534425701528,125.245831348088,-200.096037602541,-162.589285483388,18.0065785174306,19.4295074776037,-571.000986406499,-147.053191841625,-52.9463045906479,-133.781448097339,-282.293649092223,-195.800856244119,-279.868133514643,-218.227402368929,-284.202933430538,-272.290506675336,6984.27639510922,118.197949081727,230.440084499656,-120.919382219497,335.794095641496,42.8192589834282,136.094877525125,483.759689732286,389.878483238415,193.076846366697,479.25926305456,242.59220620554,476.905047879133,451.811705498821,209.607019519485,474.047613284964,353.616564528506,0,155.511365889182,1155.77709489642,169.737061122854,846.527636502418,363.062140817093,608.306848818073,304.529435001357,167.207851618937,469.544547685535,-134.826873912457,-270.662869083459,-349.897889516677,-141.430106770152,-202.441367379093,-156.768430468117,-149.444859882149,-206.067960576495,-145.319093649233,-336.293825333663,-198.790352852796,-85.6474832180252,-144.914031686418,-202.721255180969,-223.413295380459,-249.718863436698,-289.276843423272,-172.379283198103,-135.322539106948,-114.89772768198,-112.818154680181
210.84598027829,73.0281145465869,-164.559494995408,-158.599479768494,17.8470760141574,9.63024879609174,-484.168979981072,-112.384012095172,-15.6869243574339,-94.2555839904947,-231.848213586472,-112.488754334886,-187.865055685356,-155.199541620214,-159.014822653625,-131.076870603379,5854.54522813124,243.746804253815,334.319179917936,49.8255790963673,492.142914397702,160.749624625072,353.186518919171,705.159714779703,557.492314394754,456.21649907161,609.541136795839,354.828136271847,635.177347666296,437.762054176936,203.765510956173,-15.3484058327032,-373.341786958495,0,-106.492496833692,470.623046490744,-96.7528702914873,719.496252811501,351.661394689937,375.348070583721,-415.043240501313,-160.555214196061,109.215936458136,-489.532071668937,-525.505904591036,-385.160525844479,-243.089712142364,-254.278007204007,-251.489659394715,-245.742337169943,-264.399833761013,-228.900720412115,-365.000975994726,-251.754008279988,-170.487440790108,-241.378088967235,-234.802621811149,-274.673609057868,-251.32983783011,-318.879425001456,-242.526844256952,-211.782021216427,-121.57353983467,-181.174167398647
53.7227299754527,-104.900742542503,-297.151145569677,-343.973537937554,-150.524367722383,-103.554508070434,-641.834692543463,-297.204327430602,-121.825740825214,-232.167768297037,-410.700666240453,-173.719448202511,-287.479761811149,-303.715867174317,-173.266458955003,-195.113496712752,6296.08135554652,262.188132409523,261.573618552812,113.362673488954,509.365839528337,174.916234258525,448.918388725314,663.877484666885,574.21093164036,491.289706842592,456.628356940072,297.673621123908,438.738025962515,168.251339104575,-8.40560150466553,-832.337916675525,-916.8473050815,0,-312.076863259964,-576.283988359966,-385.268560300942,377.798580783846,61.7893039883262,-78.8093758946988,-1073.48986360885,-529.909995730863,-386.320841345851,-839.165859706025,-870.415803515151,-665.325128252608,-571.25790699385,-534.572250739653,-577.168871722807,-575.327944862023,-518.730930963938,-538.875066704165,-599.32461101148,-511.774471491535,-460.990176985811,-553.638444801744,-459.959408417107,-557.077264133911,-447.250853427993,-554.999423626067,-502.889939562962,-500.90224829722,-312.991951273366,-449.88672787855
-242.664157700392,-380.087306893971,-668.23630684708,-791.127078595248,-524.551623017694,-327.934302802188,-1200.57716634359,-797.796107845099,-440.359788954602,-626.645698822336,-944.681095913447,-482.014357008602,-699.034611958798,-777.511666872666,-422.758311638597,-597.410918235988,10216.6705995127,120.580618040846,-46.2266504233257,-4.91057251753945,362.003346618891,135.853942471933,338.417964608378,430.485534277729,490.629609471752,236.077344132757,196.214465971504,89.259390886655,115.648444782513,-237.200874010194,-338.952094037909,-1606.46544296768,-1067.10883417283,0,-574.719823913799,-1462.98531445305,-719.545647859626,-97.054952470759,-375.33950786018,-692.857907375806,-1411.16733722024,-919.506957436806,-869.400072281232,-1117.43714347949,-1284.11063626276,-1187.29098495247,-1091.60243143668,-1025.802865537,-1091.67167715589,-1107.43452315151,-945.922330027405,-1047.75530124032,-1056.0232174538,-968.019013204969,-937.696149999102,-1062.43591215304,-893.915552572235,-1094.46913397562,-855.255097896063,-1016.443148225,-951.76771250268,-1000.09014119224,-711.470668237905,-921.466331575765
-504.571328631956,-602.65104420648,-1054.20716608254,-1239.32051176079,-895.333067552032,-529.148340707207,-1827.00608767538,-1311.98500813755,-784.671909582739,-1040.84237212359,-1518.03454682214,-837.822735727405,-1164.8838468811,-1296.18791335456,-722.029748961435,-1072.26106217027,15194.3466038113,-66.272364069875,-406.112389950277,-201.717912357813,172.544162360429,70.8398158548905,107.142011556276,192.940646235361,329.218240871896,-126.819073018916,-122.391463733074,-159.188461692101,-22.1180065892479,-554.992450194932,-607.260453511835,-1738.0117403923,-1080.68289861403,0,-755.179449291696,-1746.90317027739,-997.248779766893,-481.773752594636,-694.399653834802,-1095.82750726375,-1303.32618707176,-1201.13218004164,-1046.32611018548,-1186.43199329664,-1509.82965563613,-1617.23741230702,-1470.40115643977,-1411.4748256524,-1460.6752583378,-1504.40609214042,-1280.42789964319,-1437.06357307931,-1452.98879072074,-1342.44264202446,-1311.78134311379,-1453.66332690651,-1274.07547660227,-1557.58057366947,-1221.47560178502,-1422.53636480819,-1326.60305029628,-1411.10234129386,-1073.94947479761,-1326.12270997037
-559.272220603265,-650.288142137457,-1163.3762540718,-1338.75354095985,-990.16245273152,-576.138754518762,-2007.93103347413,-1420.00881110033,-892.476053182023,-1147.73353234787,-1659.23832169112,-946.58847405916,-1294.92980107844,-1438.13118319718,-810.130275753034,-1215.95582581305,16672.9932799029,-142.940981024213,-549.030827347995,-296.431983560144,102.305747543582,16.8935025431141,-24.8418426899684,95.9516123353596,198.192103157249,-261.019599532286,-353.162027129754,-239.837719426758,123.176245802119,-571.344215121263,-594.671349381927,-1100.21602682494,-1100.38055954244,0,-606.237904468807,-1328.30770048546,-1051.89179395182,-575.207230542373,-687.0211411289,-977.441844240951,-840.012214479917,-1210.15821096475,-773.459430900431,-991.24546618856,-1321.88698091085,-1645.20949672483,-1426.30232967916,-1412.94080664455,-1424.69128344748,-1478.21587451858,-1302.53173166874,-1428.25139033482,-1505.00691449609,-1374.28989516565,-1322.20431128852,-1441.5635650114,-1326.00170465456,-1588.09804602204,-1283.97345957153,-1478.45355249453,-1357.87913430241,-1433.58259193675,-1129.449769351,-1369.63665458403
-407.92661615113,-534.27128298955,-962.257219731028,-1061.94559546858,-783.177743511241,-464.120383156728,-1654.78350544545,-1089.34748704006,-720.513300322117,-917.547330526946,-1316.94507160288,-756.250794181509,-1031.94113708223,-1148.05261971602,-652.702291056095,-973.603804490707,13883.1478297286,-94.0388639947024,-440.913604712256,-248.384414595062,137.049695729166,5.37416686572422,-15.7296886275698,95.0026647549085,156.13883144695,-154.829227305389,-323.134251871034,-153.170463253936,286.133780017402,-305.906315227397,-330.889265395828,-356.174580871698,-963.371131806474,0,-204.045697577443,-593.807327677143,-941.454676014483,-430.376183542731,-375.976959516596,-481.672029526409,-361.380558594186,-991.949511474182,-285.870015250592,-715.00429121135,-883.240039216675,-1351.86520747704,-1090.3980155045,-1127.7935732894,-1118.70028521258,-1144.05209652499,-1085.55119528019,-1120.78927213519,-1250.7546771519,-1118.13752386724,-1044.028304813,-1121.32271028716,-1087.78282968302,-1241.20542231323,-1062.22242752171,-1216.51459863703,-1093.43522463705,-1131.28247411187,-889.604282232846,-1084.59856299252
-233.398827880154,-398.022365232743,-710.458527389679,-741.448271885597,-538.503716730036,-332.190084577639,-1203.64757486976,-717.246226530255,-496.085600156869,-648.375937029597,-915.696945164244,-508.077502406206,-707.745456440803,-800.45087930149,-460.238394909392,-681.062170253523,10568.3861938164,-49.1474003222965,-322.507286101132,-185.088960929492,107.535280423048,20.0071750432011,-36.3936177333196,8.12823368227632,146.328246589633,-121.71162432141,-94.7056040034847,-127.282544618848,168.671419436989,-20.2812434026093,-126.880846895553,-166.698388462747,-690.168032370867,0,94.0364158493322,-75.9112491741625,-875.190202251285,-332.222729602681,-23.960478857022,-50.6266525337629,-220.050826961521,-822.34516934937,8.56561036464984,-631.827077579272,-590.687121859297,-1072.54965279566,-829.417013903098,-886.020851409138,-880.671638750656,-868.231980806576,-889.384268286353,-857.772294638719,-990.18469763001,-871.085792373441,-788.288746793518,-849.303173720449,-850.115009391578,-913.421649301145,-825.768579796662,-949.824837647199,-844.149688216213,-850.670661531089,-637.148570895751,-802.281853824764
-183.158589036593,-358.961414430821,-633.518394123324,-636.393780600709,-462.247179708254,-318.290515398975,-1033.36511430982,-610.686769721735,-431.342936295203,-575.195294227053,-779.815018411209,-430.217670586564,-600.50796680535,-696.894190461186,-421.264287871954,-613.857497309729,9490.14450296698,-122.02640312186,-382.646007944241,-232.433575872596,-72.9761642399865,-3.57626746979998,-197.745308460523,-241.268315221118,82.5476353480884,-311.667838808937,88.598638868019,-270.667027135596,-177.193880506739,53.54535968782,-168.929331818328,-431.882675615971,-546.492854184669,0,105.401942493352,48.7023545161438,-878.156059591901,-455.383616232515,121.762281986699,94.4471351138688,-415.522064437839,-870.295779641507,-28.8153977409326,-777.257115106107,-585.235859556762,-939.585483868931,-754.675674617199,-802.43877381285,-798.275892271572,-780.016439742751,-815.212662219807,-767.042883613238,-883.93670579421,-780.621236566334,-694.009991287985,-771.410919915294,-760.959322483274,-804.814895313146,-741.940237649786,-856.311602295861,-765.864234197162,-755.354754156351,-548.435629564999,-709.840425777481
-188.441051901467,-366.992283195475,-662.333696018226,-635.892731445024,-457.308699930323,-395.147794956416,-1027.64901973328,-642.44581770574,-481.819185095823,-608.26365153734,-774.767022982979,-483.168611301752,-626.278518331915,-723.037751272753,-501.235653538966,-685.00892642896,9395.16341067089,-282.743988108369,-539.911419876345,-382.571713993034,-312.173930662631,-125.702823762534,-431.877683097922,-535.158975269348,-83.7467262587866,-568.42909352078,74.0490323147755,-474.494829516022,-510.069017668184,-75.3618547315353,-358.496725215557,-726.958124557403,-633.494964787929,0,-34.3468027142491,-88.0671307390312,-861.206947219852,-709.49519251512,79.2104212940726,74.711916234691,-693.485370072232,-1040.72132449837,-227.291298820643,-961.146849773714,-694.931021292689,-768.181644706639,-649.16815610834,-681.306323520634,-659.31275625947,-666.091813684898,-704.777678706955,-650.822429464328,-775.815500937817,-681.553422050218,-595.821726173161,-686.266737115569,-663.882832842659,-713.744844159155,-677.79759466984,-776.129664719123,-692.19740091378,-664.146640163268,-483.397875508209,-641.929783955845
-99.9242578831168,-302.009148246715,-601.050781710862,-509.959246047379,-334.423108992601,-427.054956225808,-883.818826823413,-543.785743133131,-472.547852552759,-542.532839576611,-632.58482010305,-485.935153376568,-559.083588200491,-623.942597489576,-543.063477706399,-661.308988565815,8247.64444275682,-408.066031803596,-606.736526135456,-532.014479126819,-465.988023254584,-349.117651882409,-600.859478956085,-723.485079239041,-308.711720232712,-708.223974993069,-96.6185132985281,-617.187130679828,-740.148567980892,-239.053969525453,-547.561119973225,-949.241616220312,-806.755067216355,0,-150.862266140778,-374.786337451107,-869.706171169523,-950.774747419629,34.1212374903419,29.907606613952,-933.966564098493,-1180.68968713538,-424.784319646269,-1054.90158954186,-775.111560051714,-403.564983198935,-353.713991543141,-367.232326074911,-325.383107851142,-358.524432893211,-414.825389378131,-347.029618959754,-484.37688443486,-394.764671970216,-329.028183275545,-411.54677771982,-392.886263819708,-426.210520187234,-446.985372531998,-513.901153931307,-444.952835831604,-395.164753546404,-255.518514078672,-399.963519098151
38.1707047723778,-194.713391458373,-460.43446552801,-306.672634476249,-149.138236106931,-393.26241640888,-626.676548226008,-351.002421846394,-393.91125398299,-402.005575806211,-404.443057203286,-417.798387368217,-407.1055043166,-438.108439541156,-522.190777920566,-547.392827327232,6417.81609308198,-475.164761081945,-586.7644412668,-640.298907454993,-535.673950747529,-613.577694731525,-679.6413377132,-827.984812056569,-493.901289301719,-750.996658294267,-288.604602377353,-699.289427342268,-980.301713721004,-346.790553047108,-726.670155752801,-1225.42389159921,-980.332751247421,0,-263.357472771467,-793.799336565975,-1019.39714282598,-1170.6528236077,27.3481055876089,-94.3781848965949,-1218.59009754277,-1264.92011487355,-624.226886438474,-1097.98428126355,-862.975730861787,-5.78497518832248,-38.0770585649988,-19.8028210400942,12.3905446572398,-33.5444732226778,-83.3950919333053,-21.6907321340462,-133.399033684763,-57.9650217386345,-29.8744537012761,-105.169581534577,-80.4324591909862,-86.6560509072127,-142.205902250462,-190.83220932041,-149.796363729674,-90.5976854273499,31.5901411609032,-104.918187959108
46.097889053959,-202.173338847959,-410.71052957464,-261.421113603005,-121.05230209449,-402.450588804821,-507.855926392973,-309.403316307281,-389.052969178699,-376.788037901667,-342.735465245495,-408.29804257756,-359.065895314269,-403.639903476037,-545.485620166226,-543.668780120359,5247.76506432607,-586.857501680715,-661.816408041095,-752.006872124074,-673.303990032293,-796.663220495308,-795.766941298971,-1016.48056145013,-600.242639798619,-865.074703531236,-388.128443579294,-790.783994123492,-1335.99191285263,-457.211124162532,-971.43535221356,-1600.53639664285,-1228.52822164449,0,-510.963655554518,-1309.5754586715,-1298.34943699134,-1433.50256751002,-91.9749291059055,-412.859187632456,-1582.8190004451,-1345.47867161402,-877.334439923591,-1154.87543261787,-1029.65053014798,137.301020828235,12.0133450287362,75.7907429044766,61.8303762578676,10.5668153310167,14.3654034286939,38.5205104118324,-5.44526570085745,34.7822727550261,22.2578979633,-61.6439413768944,8.83492229891528,-0.654823727583235,-22.3602593286298,-87.8630938565229,-79.7224741196244,-35.6190134144205,123.065599597293,-37.9055927544726
-102.972786921839,-370.878446736247,-482.763190127525,-411.370485873156,-288.335261078801,-490.905095462649,-558.678073369172,-459.804914398171,-487.14376817969,-498.579884352835,-478.596128347666,-473.150848377271,-445.88342472424,-547.48242273861,-615.110572085553,-678.049665104612,4606.72658306605,-757.499186040463,-880.059508212428,-845.517031890231,-924.154127785355,-784.705660757132,-1001.19072836336,-1314.85771052087,-651.137024547793,-1076.20708147598,-376.192749703933,-895.304837358987,-1667.92104201644,-640.404633392599,-1265.16026988275,-1967.5209741844,-1576.08462467247,0,-926.974777050784,-1808.02869302792,-1573.36667562038,-1734.69197470971,-411.450821976181,-884.043923394273,-1899.99098266857,-1437.18968883087,-1170.57932461306,-1205.57907144464,-1237.69324880979,-40.7494910650498,-235.691493558133,-137.568503839535,-193.55178494353,-245.803170855515,-191.496014318403,-194.072288896098,-167.245650297765,-171.787104331066,-218.759300434716,-309.266241130389,-168.156206229761,-210.089527767045,-156.479540483626,-256.818581905639,-286.15676565266,-262.476784561402,-26.8808661967395,-242.65966679172
-300.029360736722,-608.728424226601,-579.999336886134,-602.053638691971,-507.19311679058,-601.093248231459,-609.56185993572,-638.975055769599,-591.53176218469,-639.641441931944,-632.175518740893,-514.125174624277,-533.214643800271,-692.27534012339,-629.541469167796,-776.286433968411,3517.7527669687,-868.824625534771,-1074.48759691474,-840.379761919497,-1116.60230690093,-631.340854378935,-1141.4890741546,-1490.49625918423,-681.322241182014,-1164.35764505302,-359.455126693504,-944.283797230429,-1681.56654849718,-880.280262926003,-1469.44426500584,-2151.08615427243,-1925.32870601726,0,-1352.75975061111,-2162.38365410454,-1757.51501536372,-2001.11136044571,-822.004960363217,-1335.18160496847,-2055.75736141843,-1531.59792507845,-1469.62419273508,-1235.49099454244,-1408.17511390337,-402.891915166105,-604.264569052646,-507.685678142741,-566.680533214449,-600.61658608653,-565.11350189574,-539.77901497541,-483.790107649088,-516.286143913965,-584.372466604318,-656.811200331693,-477.909936080947,-525.199213026797,-424.196885625388,-548.207106266446,-612.88338500277,-588.600869527713,-286.747471618629,-550.755590325084
-503.376599339161,-845.348513655382,-679.534128779578,-765.751888313805,-700.784660072077,-710.655065839671,-615.68882057933,-772.582201368426,-670.668784626343,-743.629471539562,-724.448642845153,-519.586616044705,-570.848429730122,-767.458825790014,-580.306326588093,-765.485610590832,2023.25134216568,-869.830915678658,-1129.03562432691,-749.66228401888,-1121.36845695149,-511.645231750156,-1102.45740716035,-1385.80740992627,-724.961153251834,-1016.72813723391,-442.37527905855,-954.552899416569,-1354.03026151221,-1100.73937574399,-1500.55133968166,-2081.61751509478,-2177.5544514711,0,-1587.30873633934,-2332.79295157014,-1864.37015884153,-2167.25197070633,-1135.90979075243,-1650.11129239102,-2082.09974966296,-1634.24000968507,-1761.43094176838,-1303.18455278847,-1533.3801326414,-823.969574981049,-984.88207255554,-911.641680654848,-957.544612155107,-949.970370385612,-986.198065328707,-895.297224065081,-854.701096050873,-887.191554743922,-964.09629953553,-999.020698361021,-836.887833088354,-838.593312341952,-736.377975056171,-869.122801728251,-949.351524599966,-914.900383859549,-582.361894720023,-865.112338576397
-706.345187501606,-1048.95985182893,-795.781823165668,-922.631230239487,-866.662631566547,-826.10979416524,-639.956723262845,-887.100079879797,-751.20396647198,-832.103039319871,-798.074603124537,-543.61639307205,-604.798815434812,-826.329257803997,-541.551448599387,-732.519861470321,870.226489729748,-841.323471187876,-1111.96650802915,-668.004998731714,-1044.28548737531,-493.90092391475,-1006.08253584022,-1185.53824743103,-788.680406036776,-860.733728020144,-569.843906166074,-1031.17571295008,-1071.67985429851,-1215.96383790582,-1425.21887087395,-1892.28419861077,-2269.0436679535,0,-1597.1007340014,-2363.4250093759,-1914.67606102315,-2178.59890048735,-1258.08040489461,-1832.15289160082,-2042.22710588933,-1716.80600785475,-1992.26253695157,-1423.87994188868,-1624.85883375605,-1198.30375555541,-1332.94695771698,-1271.26197459865,-1320.65127203885,-1281.28171133778,-1362.84024391452,-1228.39475430734,-1198.40759294637,-1220.84905155365,-1311.13991823481,-1314.15824492871,-1175.86882171216,-1132.63924084496,-1028.27697985431,-1165.93836040026,-1245.94953775662,-1216.5999647674,-866.051259901819,-1156.05484783925
-813.13127874871,-1135.00706944248,-841.138221011449,-997.850433500092,-927.01608696869,-899.31597433275,-618.122692773842,-924.326814723607,-784.971789757401,-854.931758784703,-807.847165859932,-550.694745579522,-601.928331620373,-832.518914424313,-507.459970873262,-695.865488331441,32.3743874391901,-829.774875881596,-1083.10894342436,-618.440678348269,-1011.80207747902,-493.666096785649,-974.17364273541,-1108.05148780411,-812.730966742727,-868.038409899883,-583.578496040596,-1109.19165744997,-1120.4027764917,-1145.99132278743,-1315.81578250813,-1713.71637322836,-2138.76121062683,0,-1478.84084738711,-2277.41796798715,-1870.00881839482,-1978.55076280474,-1188.65283012167,-1888.66584284051,-1897.25497494489,-1695.1472801946,-2038.28273017581,-1480.66580717802,-1597.89706555887,-1346.56626228972,-1502.2487969757,-1431.57676966829,-1495.85512590859,-1461.24710001334,-1524.65257967069,-1404.08423957849,-1335.8760010237,-1366.82360610906,-1483.47495914924,-1475.95879622732,-1326.81587065799,-1280.61623829043,-1149.67021643629,-1288.55160472505,-1380.04955701481,-1364.42868085665,-991.896760782965,-1296.42439770741
-752.052007393053,-1045.41461300158,-732.721307107694,-897.797656467206,-814.194913606484,-885.299498724289,-445.667355051253,-808.197386572038,-710.101790311251,-746.954681832745,-667.55130698867,-476.043247764181,-492.020183664818,-702.911609716046,-422.064109903132,-584.102013241074,-1074.03390696122,-794.368463218846,-1003.87542510085,-552.378027601716,-983.496634104679,-444.747793829211,-939.727854905501,-1086.25246584282,-743.98590012883,-864.92482006137,-439.645472258676,-969.085911175687,-1274.23411135809,-883.866961540705,-1159.75070929668,-1480.80504822835,-1826.63692901938,0,-1275.66926130171,-2062.31397994459,-1709.41114441436,-1607.04397239317,-943.515955331988,-1795.06535539835,-1602.82677084463,-1542.03604409698,-1841.11095732556,-1376.50390016118,-1373.70650318272,-1147.75879047562,-1367.70869861391,-1273.30926569536,-1353.89849486129,-1348.59698194382,-1353.26924311526,-1292.66723526844,-1147.96152585348,-1214.23663533662,-1359.63884857987,-1365.85764012585,-1175.91529592104,-1153.57866003606,-998.24945197304,-1133.50597974992,-1255.79551086293,-1248.61584006289,-858.447784858376,-1182.47444247347
-649.878092617654,-908.278702336867,-581.084011315901,-735.785905163585,-665.40401079606,-852.663878159311,-237.599279552445,-659.846545553074,-610.164612740055,-611.081977216258,-488.529661375763,-389.605815038346,-361.300419682454,-540.765368574824,-342.413779524935,-457.427974749671,-2396.33552954076,-764.463145448543,-921.826386303481,-507.774243656865,-945.664735404021,-414.938469334458,-885.394681431218,-1023.21710890991,-676.364750814372,-741.903751041197,-309.121548609798,-661.399722567122,-1170.14168748997,-598.826421358366,-987.699401356925,-1140.83578248113,-1566.52570469664,0,-1016.96964213406,-1778.73051340191,-1542.50717004479,-1289.19332019817,-627.732984227159,-1621.97800074573,-1282.74924640941,-1389.7932689055,-1549.93122782545,-1222.68730798592,-1116.93488075058,-780.80804270125,-1105.29678455994,-963.429821823525,-1079.39878280228,-1111.56921687335,-1031.56317001453,-1055.6058786281,-819.667016226589,-935.010048484182,-1111.39633229381,-1154.34281846483,-897.836320100138,-915.344087486213,-735.534382969054,-876.74766839804,-1033.77787424553,-1040.36121538035,-625.38202779003,-980.101054494055
-670.249896717406,-897.502892862329,-542.215403560818,-701.308465090668,-667.216954002257,-875.718680565009,-181.93300387145,-658.910301861343,-606.533841980341,-600.623833229159,-458.376176629238,-389.464369902191,-349.802577273078,-522.742059361144,-359.97319333012,-453.056562675454,-3425.41762707663,-820.895478733795,-949.860053753916,-564.491779718148,-987.056498846789,-480.543319651396,-922.869235929253,-1002.02328764357,-738.022247704092,-678.228697376266,-345.326791379476,-507.553676640407,-816.622095222945,-470.94883442097,-866.818215500583,-858.351144305282,-1565.09586028026,0,-785.371289778117,-1527.54855948855,-1511.2744259128,-1254.28781410362,-415.062846977776,-1495.73212470573,-1139.56822911401,-1386.80538700829,-1376.03457284778,-1203.80925229347,-1125.85008048774,-596.261214334938,-1051.56737085031,-831.076852338481,-1017.45938956667,-1088.45214594402,-893.359415022085,-1014.03420302473,-661.556019924539,-832.678082907308,-1053.83373490497,-1145.8554206535,-788.733231178938,-871.201155043192,-619.455651924766,-790.937006555926,-982.375835463355,-1021.81649152096,-541.37085212316,-951.711037209208
-747.326208419518,-961.254338967355,-558.391810918271,-744.895240925358,-752.427918863819,-884.170621435788,-209.175406092426,-730.922569669057,-640.289394230037,-647.50216328448,-506.903675879407,-408.643577898468,-389.14704931423,-575.474479524378,-403.921479146528,-504.150730157539,-4187.94454609436,-900.360405913217,-1012.06984059828,-647.228937306506,-1054.89012775574,-570.691444405154,-1003.57036020246,-1022.41975071223,-837.262205573433,-725.57010436411,-423.49354958117,-568.096986101915,-482.310734779625,-404.549187011817,-743.951239544706,-809.20578972598,-1733.07442460313,0,-582.835445984717,-1305.18480632339,-1606.21135154053,-1470.95885947035,-303.644880447753,-1384.44087059473,-1200.03662095296,-1509.02351617142,-1317.68011031168,-1308.22300387784,-1421.68897182167,-686.46881570216,-1246.98234425294,-941.775220621377,-1203.86751173651,-1298.89769819531,-988.461907817857,-1190.61233815204,-701.317351566654,-931.158486754687,-1197.41499294231,-1332.53241003034,-866.044047591245,-1017.75802879583,-648.590961994764,-862.414616437899,-1091.2406122446,-1172.36292452384,-594.390003868705,-1068.25546512092
-700.989674529081,-911.271540245009,-472.699622939027,-667.859853936047,-702.129082540345,-789.424659087245,-110.532738621827,-656.299868570014,-569.461477550854,-559.841221286172,-403.076126872064,-330.172500542744,-297.026946099121,-471.679921380948,-341.314476380734,-412.143249656732,-5059.66572456397,-856.567101233473,-912.605148113362,-607.657681726804,-965.611289620785,-568.33982835611,-927.752345206859,-913.339622449654,-768.863352720736,-670.401054970229,-309.791036691088,-570.044482512901,-329.393155799343,-177.379271819052,-553.485589754515,-934.03426422362,-1824.45311080636,0,-338.088380130301,-1029.00182844666,-1708.9158631393,-1706.32172992754,-113.416849173435,-1125.54692827012,-1281.98314984868,-1652.21137094617,-1168.59237478111,-1371.19380081035,-1678.0726237258,-789.403924395261,-1371.62756880297,-1026.89183022165,-1312.72290319803,-1403.07553332542,-1048.49525643801,-1272.84713599182,-703.186622993956,-965.191179899709,-1242.94479364219,-1398.43208425796,-884.396999657141,-1054.84262538716,-617.195872537464,-844.062631621859,-1098.55142788913,-1201.01452662078,-572.040611523882,-1066.59291427502
-507.961535565276,-700.179607227005,-278.732588320327,-432.017089098505,-460.553559939793,-638.745373708896,132.452501224944,-401.419214187869,-391.129791909178,-314.318804487503,-104.412162611226,-179.347297087581,-62.085661392215,-180.259937507093,-191.394748914323,-156.13219529645,-5899.60784629243,-685.112962496753,-632.964377216817,-457.111016199995,-698.205641979878,-479.172169775554,-670.598237821673,-625.487295871852,-524.548514069752,-423.428817221203,-7.7739507891926,-384.458601725674,-326.379854921996,190.555409819931,-397.079477889736,-1027.57738484195,-1719.13843436388,0,-91.5261354405684,-686.914237223708,-1740.5459013662,-1770.51984556701,209.179719499835,-671.833396478815,-1215.06367276707,-1774.34049112634,-799.513811271605,-1325.74732595167,-1611.74445386278,-657.656071150349,-1166.12710880996,-861.095272753268,-1096.55494737485,-1162.35070038006,-880.145213494202,-1043.00067761788,-529.481678677083,-764.064212337221,-1005.78792410916,-1147.79666157762,-704.96930879501,-807.580590999128,-439.891898572112,-617.778962456206,-860.259843588098,-944.036328607328,-388.762209367794,-821.935302257319
-264.273847535182,-408.976514460591,-59.2173879989606,-136.474850313219,-130.183375707987,-499.477832496917,400.193491551692,-92.4899835464592,-185.653784894177,-22.6592479281589,261.240588804157,-35.7022649887168,196.048277227085,160.83827251747,-52.6809621688105,131.354037450284,-6318.42019729432,-494.639387247499,-305.679938270427,-320.188300514573,-399.847984525543,-392.302314233196,-399.285128596311,-298.671492644698,-281.354544260148,-146.397352521294,249.424106929823,-163.716788820233,-356.865849884071,490.993391879279,-348.473781339513,-968.343744323717,-1406.6221755959,0,61.6698111223615,-379.37121486759,-1674.8589549938,-1568.07415937835,513.845905906145,-135.781207327211,-1022.31925690531,-1799.67408930886,-326.729008634538,-1246.50045243454,-1254.23508983472,-317.795157448822,-691.52395272205,-489.590478733106,-626.793270539253,-666.589408914333,-543.789383029687,-579.834329240566,-238.581348063295,-400.465949418242,-569.592405173902,-669.056533542969,-397.268998747658,-363.123642473844,-183.68518162824,-266.677206257031,-453.286671768303,-487.85276601471,-120.523048748536,-419.808215328139
-3.78723781291507,-71.1462095032608,185.447855121175,187.343232572273,232.441788864973,-338.953041412344,675.997937603168,218.155317839266,34.4839493208763,275.257426470044,638.025639873752,112.271513336158,445.040747576893,498.670042636819,68.0516111472744,395.751277515677,-6530.9140158622,-335.173583115333,2.90572204396494,-241.992876206739,-164.499956664272,-358.904833340956,-226.678581481733,-43.4079161218796,-164.946588254368,12.3466123837648,306.046794340183,-39.029256841205,-339.16650180125,644.555844561248,-271.148555313564,-802.439227816792,-898.537574037897,0,187.658005994315,-244.029437266389,-1515.0826505018,-1083.59679331822,700.686262353572,378.07845864739,-874.296009740878,-1583.69907169739,40.8237201741138,-1173.91158307253,-819.883961831841,94.1968570401776,-123.821735520536,-45.4650657109457,-70.6027399053573,-83.1064990057477,-145.522282197965,-29.8252168678227,109.383085100465,23.8706856287913,-53.2304570931791,-100.30938814192,-32.7463790352763,161.648672554591,125.325672218436,138.443054894799,30.0934225900657,51.7616486605047,194.612430497755,58.9705688135453
266.290013824688,287.998173663979,463.804579612373,533.156883313825,597.71759391409,-141.632883298404,983.179631558707,527.302640618299,265.273139355363,571.00194007252,1009.15968027531,280.743169246076,695.012864077078,823.791945035867,194.363613675259,634.553132732873,-7014.11062582113,-209.704632580664,265.602957186059,-186.971156170729,-16.8086278499193,-363.557045530362,-139.915120936701,114.211488796317,-146.226144298513,57.3118390093385,247.178976841287,24.4704236948854,-307.599187276053,738.799210907244,-80.3978990267978,-663.886914560827,-339.713124701889,0,465.077133379989,-370.452721835473,-1326.65603534193,-490.82082223624,835.002291238353,805.365405394617,-909.821908633845,-1150.05802750641,209.084315199624,-1060.63464290027,-503.874973140039,516.280106158174,439.970777037104,409.767757239381,487.232621931992,512.714572164554,281.55136607889,534.133500626305,498.010710331365,476.037859808968,487.55220005652,486.199411599802,371.149250236603,707.258607420766,490.471961435921,579.576711879281,541.935626938811,611.762417527794,555.303494664651,569.645152121275
459.889965472017,544.630102067937,673.475437428454,792.349953934543,851.441996264508,4.28952542484136,1216.54946406929,740.663806259426,426.242002274827,769.288722172486,1256.00982225635,395.673030126583,862.46107608077,1029.96520962417,281.711831513447,778.967480541827,-7585.90953284508,-139.039666371735,407.538028197206,-120.007447957813,33.9529310429736,-332.787135788588,-59.8541670119911,175.46220948458,-68.5294426648986,104.83176599201,266.187661787623,144.126405725697,-302.527046902066,860.069015255041,107.518823578228,-589.468172722724,51.9235382479122,0,965.37832888144,-655.231283445417,-1144.90768770163,-58.4457933421872,984.069665704011,1055.65415833476,-1077.69886041573,-723.169787117683,207.508275913588,-876.025873277774,-374.918001471635,879.625916860991,899.602499996449,796.387834559252,947.157184834686,1009.04930407033,660.417914058392,999.459983624418,835.714539588938,865.517380904509,940.781788389371,966.517399240256,728.227635457612,1153.38398989994,809.255597985807,958.431997873792,963.063716534129,1067.55659402378,863.57153036749,981.740019197182
509.943222666384,609.202231122028,733.211922247986,876.144996700044,914.589538259258,45.7214648254688,1279.55678655388,777.595611768562,467.998331108711,803.779615411728,1293.1336845947,412.421683417629,885.11877750871,1053.71207672342,308.242355629402,796.289473173241,-7768.97944808859,-104.270834061998,417.554666584858,-11.6254254700939,49.9383857238547,-193.820236055161,101.677159048381,204.170235414368,200.895576450407,293.916934957102,418.205496495677,401.327227427996,-187.002677040752,1003.40354736367,263.82844839903,-421.994190040246,281.960261420911,0,1557.02181350602,-724.812820568012,-842.270989250004,168.533324049125,1101.19402456213,1099.83325883375,-1108.33956988292,-383.143213953584,144.608465792134,-596.882078698269,-281.264804914809,1100.2904681235,1183.43313944105,1032.02398315912,1222.7665598795,1301.36772568037,892.495141910653,1266.22004104433,1021.49935199075,1087.95091009066,1204.7508530894,1238.22358320156,934.324727708262,1399.87283552076,970.176667240989,1165.87773877396,1185.86294320461,1312.60961284784,1014.33924540007,1187.46553398112
484.764232229721,568.734189346182,725.508684457748,865.686255931323,870.813322121612,58.241230442011,1261.03196177455,715.877164611135,463.387509664222,757.070054232895,1216.29989887322,406.042935277928,842.537637383265,991.86877170939,329.276255828112,762.68928851464,-7792.51585401667,-62.5398826181098,374.769731684144,111.766939361674,84.7367569212817,-22.2217298350847,295.630526130568,254.555567998126,499.850960811771,566.971336454839,480.519140260753,658.216456937133,165.478436082426,1011.0944154056,487.801251233938,-70.9370469870929,490.542045501574,0,1902.41206910565,-307.121692018427,-326.265776400905,326.261076917777,1062.60821966483,1011.85071037586,-783.191871320074,-10.8996851898834,146.53966047928,-184.468322324273,-7.71988191436789,1223.44965495561,1384.56789817642,1176.26677754313,1395.07009780422,1483.39963283524,1015.81642855146,1421.42182293543,1109.58452098941,1199.36762998732,1353.53065578655,1396.21203039176,1029.71263057382,1532.53526271133,1030.04066040137,1259.25499293508,1286.13525036003,1428.8515993268,1061.82602309626,1272.99420289896
477.134859946643,542.830832532913,754.744709091487,875.469765034615,825.177626544359,112.921469042044,1275.35552611872,665.873743255834,487.845828035288,725.152074391705,1143.22512179671,442.345096546878,817.789908811837,931.207400540928,368.292253410578,726.33752383474,-8167.68160224865,-45.6109305663743,298.829748748214,145.122494460182,59.9030112988815,-17.0947729037054,324.867543214349,234.947651613008,458.9324668342,631.262816581725,157.404520704508,615.187011725033,518.175657454494,681.413544408692,692.462113847777,230.169489199469,608.902878921206,0,1656.53760813066,308.7520574875,214.491208103905,407.363212739734,771.760980566527,835.379336109107,-253.464554494581,369.070145068644,223.175984142823,291.811742415606,387.472053591385,1350.04926830401,1617.16499657685,1333.06209630887,1592.53088074568,1709.4073248278,1135.47725483732,1607.26538717104,1212.6020736957,1320.41295722323,1514.870253637,1587.21551817865,1123.06960461319,1680.21165885145,1106.47466484819,1361.35397897358,1398.13284527826,1559.71825518772,1115.46755793187,1372.19801560713
468.080636060449,519.047024614769,781.717559529798,880.509589657858,763.89964552833,165.276373547725,1274.75596660733,610.97833163223,504.300831289312,682.201294155981,1056.82892041211,470.455594982662,775.955333343333,839.434740070701,377.194251708671,648.918937470356,-8580.61919283843,-101.003009925508,155.070118062273,53.4447460962244,-92.6412929149289,-222.121627890676,132.489048845425,30.8376729146782,40.1041991331968,352.125591486031,-493.077788425916,256.04453927661,434.571436128934,113.260690388146,678.745296984936,240.318340032331,537.130257835003,0,912.093976626006,585.160678931303,575.669445381138,334.511884346168,300.695660388462,613.612953834958,171.797946160482,608.537267856267,303.594187651392,694.371215041167,676.88337491855,1464.51824015259,1841.29613754098,1472.03764409905,1793.29668758466,1958.2297231779,1249.31730334538,1801.79673646467,1311.50793396257,1435.84315105404,1673.23801107163,1792.65004803961,1206.91190389872,1817.16487674051,1180.83460701363,1454.91967508925,1509.44558260223,1699.12674039628,1160.21453641883,1466.07629175558
376.333206080994,421.031952053169,707.210909472488,792.293734347754,625.698904218623,129.614289323456,1162.05040262162,474.80964112381,432.490080520897,560.68618929174,896.234220381447,406.054003020228,653.053300274267,676.92069964314,310.941553330921,500.191755653936,-8513.78530408408,-209.953675864436,-39.2836619146201,-77.9953089624687,-315.596209686633,-459.962575070797,-124.887912190404,-333.60281538173,-387.717115858591,-80.2893501228113,-1061.49980132682,-100.277084664947,-211.754430246556,-336.298140528945,456.381851978425,78.6768736769253,472.537939584449,0,243.50307813249,421.195665646598,820.599610221213,199.802511517173,-110.957227634566,490.525178229984,449.097762890636,734.942483430016,388.777544269804,989.451019588653,823.00275349893,1499.40783069662,1950.61697980949,1501.98098891715,1880.97320268436,2092.19886480833,1277.4253654297,1879.58543248221,1313.58166056306,1446.32207542096,1720.37994310204,1885.82419782108,1186.87302279428,1836.50285443893,1152.49507777202,1433.78008299941,1514.73463116701,1728.57245515278,1105.96327966404,1449.95339507847
181.748849925887,234.537486503403,532.814470423607,616.398916506594,412.738521118308,-4.05166216659992,971.778040213481,271.035899994553,273.671542078719,375.619836952815,686.98412210498,256.446548464869,472.804635401047,483.120104825881,185.087719948762,322.346229347764,-8543.34649557781,-337.683436699081,-229.054333105673,-177.079635421996,-537.65412172952,-574.210586874935,-329.272705515823,-737.346925569122,-569.097975172309,-438.763892988786,-1235.88910726987,-241.902469458999,-1036.18996604205,-460.799162431979,207.053184889652,-21.938957917948,637.251854445767,0,131.980264575047,161.400893747616,1016.33288655088,111.328734056034,-232.447984767395,551.120112991198,706.453892473532,848.470802456066,501.973740714167,1181.89029442053,903.822922221711,1455.88898203359,1884.75505308014,1408.49377944203,1782.20457146804,2012.56908927907,1188.73302603773,1765.34179954285,1209.36545618892,1320.11304430221,1597.52747789887,1780.89784440428,1038.94096218931,1690.62614401486,1003.88311059453,1275.21046154157,1366.74314975653,1573.25287080685,934.892798235302,1282.93190987411
-22.3318122047617,41.2080735319463,374.792598646391,462.802058382572,212.431104422671,-135.806991448758,834.661620072653,115.090309750587,137.908650710332,230.842252577005,533.191760023313,133.802913140778,341.071960307931,349.884388761232,93.673191140304,218.029835592622,-9287.48895393899,-424.738633721099,-335.344858366731,-190.445448918248,-676.43164774342,-504.275023603235,-420.772644674632,-973.688448698068,-493.116307459184,-558.30504139189,-963.426165075,-131.804776005825,-1411.82747625632,-217.205361245115,114.622735698444,23.0777429523361,920.240418116845,0,529.789328200109,144.294335319621,1075.07149231264,41.807257497686,13.6052744606156,702.531117065798,964.047743949776,914.560430826825,605.095692734321,1238.52108420041,893.232842998946,1363.26578977489,1647.98783266766,1239.77222372088,1524.80318291619,1727.6848600703,1033.367192116,1488.99477130381,1072.51220939483,1116.32933520627,1350.3283894982,1505.70512853725,854.119583227464,1423.78675896054,823.567950506291,1067.28947245597,1123.30523446873,1283.37572341833,729.946961363823,1030.14476503959
-146.997629921271,-73.8509701478993,290.346784605357,374.466301954626,81.3368644913637,-174.294741593583,747.125452569182,34.7855317165102,95.6860811267406,172.949561309332,446.840443467368,97.8253333386644,287.033752160597,289.812010455425,90.7009961060988,213.158648294332,-9450.63182432972,-395.3406069886,-303.161169614652,-76.1504906451573,-622.700094847629,-244.407915395054,-315.693364372225,-844.680389216892,-186.618878990061,-346.733553377638,-365.498090448026,202.160411680091,-1040.26868960633,320.234982837861,275.064087070897,293.685723543658,1018.63854149663,0,961.017477181375,444.755194970853,1020.14059446116,-26.8122584366423,431.278653349244,785.115323191944,1178.86950938795,888.361042296097,652.837855874518,1185.80115162508,742.108898813354,1181.5571090737,1276.28079517872,1004.92806058004,1173.18582096072,1308.49893436328,844.741124364312,1120.59577579209,914.719763902569,876.962394988609,1044.73757684411,1141.03779676533,685.844262399672,1087.55110566605,659.900801967775,857.511394933778,850.148731472846,943.231810222616,540.085625136739,758.439815002513
-238.488948694066,-128.767416909651,181.905769721931,246.287675185906,-44.783837432054,-164.380362922692,531.884072019634,-106.179577836275,62.5748519805754,104.956695164714,286.034513178686,51.1473558426217,188.358069518798,182.58148347983,75.550169644378,179.230337340021,-7073.00367687804,-278.098473864821,-193.055179800937,81.2078917247023,-394.14434565919,69.6277786162111,-47.6839439408365,-410.653570434105,221.454898364074,47.3448222865506,226.155689283557,552.107442578467,-253.782744890862,777.102506394023,593.955161971435,816.812318519551,801.853687562337,0,998.657294252168,832.815058979565,1016.48374727034,-21.4403977382676,615.925226955494,674.292452693108,1328.32886346699,842.440264080532,619.296611169213,1098.26394429843,510.357777043865,839.290567026584,804.123578640025,663.013756302524,737.726280073794,801.691775549484,580.936513858071,682.374520673485,650.128950758159,566.331343633447,676.504797818885,717.071155188104,457.003376932554,670.601328706199,445.56235108809,578.686708619477,531.58733142236,556.979799327449,304.033014976176,445.661602294308
-324.53299032524,-140.495867509629,31.0773662853599,75.3509286414283,-165.111807385028,-154.273052805342,207.580783036732,-306.481524860916,0.757729063668763,7.39428614140114,60.674581062745,-42.0520517463608,28.8472115595536,30.2105191273742,-1.16548472790882,88.6552860307536,-2868.28078916234,-144.672431160593,-57.9733094787918,171.348506264361,-115.337660820442,246.871443984804,230.205692928495,73.3385669248117,501.108131998505,362.204870068098,469.300972108771,693.98898950174,412.278243203151,819.842144700003,857.302388218888,1341.6662930444,549.686384701202,0,721.856790354016,1008.71598520264,1141.7509834587,191.830574125722,414.277830673784,392.569079365645,1381.86051446774,914.221068189181,529.813732293596,1027.61914124749,395.383930242099,427.425400966923,353.370572141473,290.737400571861,299.216409788222,321.760053755448,287.345149519756,258.033121769728,322.402107411191,234.703563209496,310.557014183007,317.443330823759,184.084669674315,252.670878978488,196.777137559129,265.854717326486,219.074865470251,190.693093407606,42.811660126616,139.23757508104
-276.002399779364,-23.8565829985251,30.8232446186491,90.3214179434212,-102.041728651217,-58.6208307791184,118.10859970546,-291.880808547834,63.830205920232,68.7208764629706,63.0576805306085,-12.4315592090713,35.1452725861629,76.5757669193751,22.4498245083152,156.304753912978,-260.404611458087,30.4267824611405,177.255224158064,243.76849315516,151.424917434738,271.850104795714,431.504616638857,449.203821052771,554.453701982119,516.012033043908,384.239965260527,662.414483928286,739.514917860227,629.036410005265,940.902092409226,1566.26701407617,708.66255420872,0,536.470874732982,971.713711717159,1338.34593004092,703.854928477179,153.01849112804,163.275754295614,1355.55601710847,1170.72475166761,500.642384537296,1023.94895558327,630.001763687077,220.26635095225,157.760323795451,127.080653326781,103.160794332675,116.512263625976,176.721722485303,79.2038812048678,189.190505138872,105.789761040446,171.719385246082,166.19312133032,97.9541622062302,87.9769794487146,117.064287913812,158.795427296566,124.664378465108,71.5094346105794,-41.1742852766395,54.1941132642649
-37.2986568920715,237.036689379442,273.800218888645,400.962226353524,210.303771281646,158.965415912901,426.388408117557,71.8522210628508,325.312017227062,373.83659845708,427.124852982347,224.477259482859,322.708765776044,428.704823538152,238.960512266099,482.291056223394,-1334.48838209144,258.878444237966,523.915485119677,377.432046983538,379.191216646781,261.906986829612,556.691449652285,692.091105592759,466.71489463606,571.873153446702,262.940474600945,597.400150558278,793.834327396374,557.410099140104,857.893811847202,1514.56641218222,1253.62443855201,0,579.837928602562,961.614017404663,1450.99770303887,1333.54893131504,159.14540593193,175.579993147082,1324.70537148283,1455.82595800719,609.560477383175,1072.50921521238,1193.21971877904,371.416237587712,319.397376823928,295.255527464889,283.032354996074,296.121395815349,364.936819551153,264.417567318887,389.774258661912,300.747295868574,369.883614878653,370.759698930802,323.25494751192,299.05582394569,312.682145788162,377.198103478615,343.769408938624,299.284686603777,153.769868862111,289.373303265675
226.531463655859,500.445177755133,570.476606575999,780.663834434692,563.956903302747,366.218891449433,830.371038508651,529.724571416211,607.464124251761,717.226370769942,873.057409226989,489.836185101017,672.274685432094,838.092101551156,484.262234157974,838.455840329923,-4282.56964426677,447.642518248981,823.190176855508,525.908177715369,521.600602539529,289.436242031939,629.322914178581,816.870956626002,373.524062347376,588.147231621331,274.841708814027,538.370366681547,711.484110437842,629.568010915513,692.761312473212,1418.3608460984,1656.82684148576,0,641.31083409609,1096.38737345314,1326.61549512178,1710.92377211196,340.771169545295,360.154193110086,1289.2581489456,1517.01173991992,762.955312368814,1040.44518558721,1749.15993463711,732.498631907211,660.210126986605,637.362293729878,644.948792741784,650.499749171672,698.10954791737,618.039879591599,740.585623729553,645.754675055456,715.713127202347,734.441486223844,674.748403151093,669.801343107395,614.834000230651,722.229438949771,679.609696853714,658.8046537649,454.880503044302,642.243007590168
365.282889914403,651.205958854404,727.060982642384,981.352451482482,754.464047101585,459.513638518501,1005.21656131519,787.819620302674,738.04017923131,889.508093947972,1094.53837635474,608.821121832664,841.601555294512,1041.12581540406,592.685227453298,996.162782029857,-4433.4724489714,539.506007491582,958.387852491881,621.371052399312,582.918873872837,355.823703415215,687.091466508856,870.244478882722,353.60257770433,605.243044821672,358.133569411195,481.94048988705,624.219426155247,666.33015437041,560.224418030829,1380.5405443853,1646.75821319565,0,564.095590104679,1327.24219162134,1035.79270012702,1733.57933569531,427.96617104626,531.936806070031,1163.07830691263,1349.85579322243,804.828691041282,858.28544646865,2028.41133971045,1048.02505868852,925.913701966024,917.454605712837,905.473241460951,902.400702155478,956.746526443803,865.158585005549,995.634115818757,899.911059368834,960.978014913988,992.94317888533,920.490768935745,916.294661704165,815.997077945053,948.837838967456,899.517536645745,887.721718669744,653.292736479059,867.919104164941
384.440668906389,674.708646405347,739.706058209913,993.174771925071,771.086851161494,464.747551867681,967.16682684466,825.024703824669,726.046613423608,884.547961000309,1079.84421110956,595.132182788565,826.282593848715,1030.06881801217,577.230787133511,971.567814579449,2319.16096326413,559.26006102909,953.414576699383,644.728851692723,585.365183893319,407.486973908313,711.695966178083,872.333419163163,347.947364941876,604.394054586754,371.570297191273,399.025050697097,562.116230754348,558.154967970355,498.76413738692,1320.52801221499,1482.0606021164,0,375.555519517701,1637.30752540282,804.958510530138,1604.30859242207,329.713820628706,601.65745656243,915.660284625466,1140.90828566642,679.816082239077,612.641323806279,2033.89531414372,1155.33449987187,978.470217640438,1002.57403849088,943.44497965501,939.174269618023,1033.69413960265,898.326329539285,1069.64479045311,967.530134727608,1010.37361997405,1040.21738669947,994.311422033142,946.465277162416,858.862964162886,988.386625609901,937.468051999896,908.149403958584,694.249619461432,900.184178283977
312.107453935599,568.950093388149,666.785281653133,905.197395830829,668.263998168326,415.5015451123,870.62974013448,760.230103249743,633.659105060573,773.36119131459,953.066660348626,524.830582886191,725.551844943216,911.623079696266,508.910272819204,867.966177839914,12347.9099799052,513.133059371878,846.403769881359,584.17873334818,493.426402023816,378.065519623921,617.86459248166,767.967432663657,226.958455611002,493.812382719802,253.735630825484,215.267658891494,418.906529711705,307.833916950075,404.787220885345,1126.13948892903,1385.18954303633,0,146.137627817498,1947.80886133539,688.753659517659,1410.81462149284,149.216884776195,566.277910270769,595.185178980973,942.761008970695,447.811231709005,362.361171897513,1840.90570622626,1001.58179238742,789.991958796384,849.952545497954,758.145670922604,759.175081361463,897.498857520255,730.437604200735,958.534289768578,840.015832706248,860.355364819726,876.303946843427,899.294489745633,788.041082273296,749.123891366948,857.826445900494,801.935723211429,746.384259044322,587.898373610758,762.663487992175
137.684930941122,342.242237642162,521.109279836445,737.854759644974,460.166920696129,309.745188758234,748.987378994946,642.261329803837,480.867128738637,587.883881275334,762.405161999177,427.832145190889,576.619362773813,728.44635695581,416.998698837054,712.632463148209,15114.7259104885,390.952401825919,645.388663806478,462.70110257458,293.396525165183,287.98920101107,407.428147723358,523.304605181056,11.1297683737439,260.039644482748,93.6585584509658,-52.1387636850334,112.47279907979,22.2679143158178,186.042123001777,772.410932737601,1247.38903107522,0,-60.4372219633334,1879.84082345155,591.611133161673,1066.79246348461,22.7141735876392,428.792432725691,259.056426859271,723.327504712459,206.63245263316,100.595426154317,1481.64685497867,636.617439385329,419.441529544468,494.063624070301,397.739392479366,406.13321166905,569.410526715977,403.38704373618,668.097386720088,535.663027336484,536.559850114289,542.613419993525,636.472626392948,477.160314221892,486.910769125938,574.199550734777,506.617530642349,435.64295876379,335.000574612446,474.681214592451
-137.933507843987,27.1277068602374,288.796873190196,460.465997033886,147.777379028142,143.140819263445,540.865272506436,441.455024870298,264.426155910661,323.53089885417,477.964086702611,282.473057142138,357.402911694339,456.128737597082,287.242052005829,473.648940373691,8637.06137251342,203.796726338608,361.436388320838,319.260258354632,37.2625741317167,191.35093511338,189.413709239948,184.434048681084,-152.432717263061,24.0242829023445,-1.45699535706759,-266.034239493928,-302.860083693975,-186.495974428468,-115.841662531135,325.591671402939,960.250959421127,0,-243.733592983185,1143.93333917247,501.626312551105,619.035549076919,-57.2805288359222,152.333899041448,-48.1722222510904,544.690419662569,-20.4814517155239,-114.413709370501,1013.17358113364,170.683442059661,-36.4441328660785,25.8036291034235,-62.031135133461,-48.9269372198644,123.069851547327,-31.9186321557556,243.183078561104,106.854920558127,96.2652194673128,106.45999936774,242.30311536312,49.8306041515616,101.326105924153,169.818762979405,93.3921054249468,12.6730862368884,-40.1791634711774,66.3340211078414
-451.325488950648,-314.772974587896,8.89264388039043,113.484073056477,-206.078683367833,-56.9503315669715,262.672125277604,180.411455908195,13.4073769683203,10.0803619152453,123.592640331643,83.2624262160006,84.6230871506561,119.951766650051,113.499635490332,172.144981656483,2210.83879684276,-12.2273778277535,44.8925399905778,153.147635236483,-210.451255849567,66.0497205028351,35.35838429689,-143.18643972991,-232.893787168171,-90.5746043020823,-64.0399620998981,-333.038327023325,-651.214486830942,-334.098397437171,-385.805526618664,-78.9238588734137,643.966591757626,0,-473.360760596718,144.725788804234,480.403009247801,310.429707520089,-219.914897117051,-273.523399614467,-270.309952988038,477.989538814493,-276.388533067592,-203.544925053537,560.238955504697,-276.820161943774,-485.328222942326,-434.582860505644,-525.831402432293,-512.458994874216,-324.260765590413,-487.822770136848,-196.511164195079,-341.437341041409,-357.87418141886,-339.333392285668,-176.081780681563,-406.947600165462,-304.905062626784,-260.991280968223,-338.879090769457,-436.575133401196,-440.49947988807,-368.996722505096
-679.256547662596,-575.05706074074,-198.212765898361,-159.923066861994,-466.56074214629,-207.119720395359,54.544529125583,-15.4279928785156,-184.774399357529,-240.235321028324,-162.362399572383,-89.2788009065882,-137.79075811691,-148.996843367738,-46.4228105101566,-72.1454779968025,99.4987716418977,-190.240461185411,-197.706715381127,-24.647200780925,-388.251041689809,-110.477364433333,-66.1905625954586,-328.900346070179,-330.936049415908,-71.0156072802942,-186.528629942283,-295.178594798031,-718.812075717665,-502.875809075208,-527.996606844668,-272.136186386182,436.814667510566,0,-733.206761681275,-473.096561240835,550.222911020269,287.66031114649,-478.998223504495,-712.513168134613,-326.049455805147,503.457161377597,-521.261101830823,-166.05022241964,252.741012203706,-597.436049894169,-824.752681868367,-760.350504020555,-873.2524455781,-863.409771700697,-638.146620278542,-830.784284034953,-496.260607739289,-665.116355619605,-690.406767164568,-670.620630921819,-471.38052307335,-745.681794459506,-584.988993871574,-567.176440687489,-651.869229196848,-769.029846162674,-723.832918784657,-683.905038393111
-776.578611139983,-702.042778237118,-283.477430972169,-294.39155235335,-579.734116367069,-265.543690536836,-18.8117020887821,-81.2246143614629,-291.863844225914,-363.385400100413,-299.956310958389,-177.060191351154,-250.574108590096,-277.836950581274,-149.440435055804,-196.338363717911,-1736.93096999887,-304.78775143477,-320.672566325669,-181.584109861927,-488.70793747545,-289.550217777307,-174.758509307807,-354.90078078716,-509.989188099691,-44.3265231495866,-380.743698523493,-302.586723122502,-495.305776953006,-723.132455131541,-553.309654500253,-220.745335676451,275.449750000927,0,-930.214539478341,-663.671730197916,645.45333558763,389.804200831451,-715.811498173656,-998.242959861866,-200.343728358554,544.465170400195,-655.160389225049,-55.91206487158,93.5198500355442,-780.797414715346,-1016.0205955924,-929.185572408304,-1056.58150976024,-1052.02401582268,-791.823066928193,-1006.21608578356,-631.167337426007,-819.30282829536,-853.790837789104,-837.666135615063,-604.460976022387,-908.753280624166,-707.425437660503,-701.784741270484,-803.309858970854,-926.312892836316,-857.181033936559,-829.234571060286
-805.832208946614,-744.500363057897,-317.629919204962,-358.270310591235,-611.741987654937,-278.012184762587,-35.2310828955022,-78.4607614359575,-348.910836900033,-412.024274639482,-350.593228559077,-216.023709086175,-299.477953530423,-327.944872344589,-207.530882303464,-256.986816823524,-4820.87754277555,-377.681619849262,-378.415048038406,-287.402009921665,-550.108504172701,-391.406437082139,-302.405064691679,-332.823059470074,-691.915485569961,-114.380763759332,-538.078767101168,-427.275586928694,-246.401210556714,-920.913672158445,-520.338887864142,-82.440824173292,86.6296292801228,0,-1034.64021871491,-729.294240268169,677.7613566252,397.559627294508,-856.243579096181,-1097.61898145139,17.6180465920183,545.859951821132,-644.954743638227,82.5593318814786,6.14332342512188,-894.356338534131,-1098.02010065726,-1012.33015990269,-1121.95723756096,-1117.21101047807,-862.02581181662,-1062.63445774165,-701.866273618548,-880.849217958451,-903.86634653945,-889.31112893394,-655.410313649616,-962.340315317557,-765.985754009945,-751.428300616395,-856.781620372259,-965.733095113674,-921.156365733794,-873.199590931
-782.46660001006,-719.810094580039,-319.523848199338,-369.405508843337,-577.016127519539,-265.312975303963,-17.6587477949964,-28.0627295788683,-355.85150403743,-408.862790914125,-341.830824369516,-219.051253392139,-296.435102917382,-324.583604330453,-200.733402412991,-267.193729433135,-7051.91243968813,-374.215440742555,-376.550136116817,-289.512788227446,-540.469020178031,-360.306658461673,-336.292429485217,-287.216460838004,-718.965441765187,-152.995420405407,-512.138057198809,-481.572446470877,-156.602963164237,-946.914066371097,-371.538983129532,32.2693380452362,-8.75170621140855,0,-1039.67224389333,-697.97744191895,657.501732281544,348.656671473336,-881.870182246266,-1023.16097317026,274.449988894705,511.051727809772,-489.502231972891,241.137897794863,2.28139519204388,-912.462841637992,-1047.57290307705,-995.980463139371,-1057.93225242648,-1041.90488323696,-847.969197941748,-995.231551618421,-714.312565138669,-862.607975771608,-844.895191050972,-821.766703020106,-636.963630077758,-914.217208891429,-776.747542095056,-734.228434007609,-811.171672825225,-892.039881697254,-924.653480797922,-821.92236999536
-676.888064470129,-601.937552591062,-241.686852514814,-280.386390279779,-433.568243334443,-210.551284260453,85.758202099006,114.286653831046,-285.666872860006,-319.308647676014,-231.085534735051,-162.488873172855,-208.29946502717,-226.463557234692,-111.039145933918,-182.715173531099,-8343.17849781075,-256.993147411168,-271.202338392185,-176.731424160036,-405.800649330963,-236.773458124247,-187.500802746292,-125.057475819714,-566.396989364396,33.6232055224504,-315.653455044391,-239.390368000291,-79.4888864396616,-749.169936675941,-25.1867019892657,186.437973902364,52.2082134822422,0,-895.249526107293,-466.856439581213,627.941504930697,393.46287094239,-781.602020725068,-768.009961658484,583.412828327283,454.994510965496,-189.173587184418,413.033363419923,122.98043692797,-743.307950527068,-805.320991410817,-800.860432693749,-813.78573831153,-782.990272199403,-681.509229758038,-760.297848859136,-582.174548229993,-700.373623559052,-634.825072342232,-587.557858692419,-489.067096538957,-711.645778170957,-668.364673376777,-584.94294760976,-615.909176538931,-665.536697459896,-809.419277733465,-628.297574397962
-514.720138302408,-417.330917272722,-94.0690361662529,-119.189614358306,-222.261761954299,-121.755745291909,247.665166792798,322.495216974512,-166.610801043203,-164.51898413004,-44.8872227466115,-65.5485890872941,-66.676574334956,-59.8741516354721,6.84247872567945,-35.478353337254,-9862.53701122048,-91.2935897511607,-100.552384860454,-35.1584255233658,-204.673890180363,-135.409597108996,50.0406441041849,152.469839023937,-399.086597253896,378.586708493506,-142.560347043814,204.1223363412,216.11772045317,-466.63988726713,421.565572165634,450.618459051168,104.938222070714,0,-586.009800237357,-106.712293336211,552.347853120779,528.780776672145,-583.104515951819,-384.129041763938,890.619702121094,376.776294482696,190.705101524144,553.018907586989,294.593961532835,-411.507966654264,-434.741710232739,-456.061171243841,-451.466227013265,-416.191128892004,-383.440940332601,-415.979553253026,-315.52136156642,-412.864100853549,-317.927452652859,-239.760924159544,-228.477525178179,-398.822029388132,-444.09095174704,-320.087195108497,-315.863716850666,-343.201388481144,-592.060134161203,-337.77598347949
-353.916491479403,-235.758956718802,53.5394151880109,20.4675408061432,-47.1196182326525,-18.533292163061,372.632174477045,499.098868712816,-53.6868340540686,-22.5188960706379,112.229253934087,25.578551045347,48.473995495362,80.6812078407779,89.001188627147,79.6072675804509,-11165.3993970157,21.6318856855219,31.6327340890838,35.921235205294,-60.6807709668936,-125.307419001662,196.580278377558,387.478499517227,-383.4338569565,600.134533832817,-150.041112109056,499.46163402173,691.546940781428,-285.957281607855,756.636823825358,750.234581048304,43.8184684071385,0,-219.663462445517,265.572677567936,406.052120447157,628.684708306873,-368.347862377195,13.0086796591976,1077.43307189213,278.081796385832,534.423991182919,588.189600393833,356.032213229391,-82.6589378817461,-106.137904506829,-115.763325701839,-123.64930671903,-96.5019017515244,-78.5126621870918,-105.403643416223,-40.2444571846822,-125.247266237663,-24.8210983102387,74.1622561479748,36.8907040728374,-112.712773228801,-204.103543511522,-56.4887602911421,-39.672103800602,-54.5291995017127,-367.835157075846,-71.5136633437509
-242.310698758141,-120.513114374452,136.489635123989,79.4736532890941,31.6303070893327,75.1314815335686,414.237666958546,583.017174516856,13.9958841288765,49.4692678045914,167.347325789513,76.393568992555,92.7385054064825,134.778196113553,116.856237259638,110.314433199632,-11681.8181919505,43.583606459216,68.3251751796391,6.82856849173356,-34.190700704745,-202.731903894292,165.753139541595,440.933014475531,-553.76434175747,525.276898794008,-333.361211870092,424.503124906026,1056.58694548469,-279.619899710768,863.185406895707,920.203988716743,-16.6197188607764,0,35.7781884695199,601.666234846925,268.369966641661,627.541954326064,-217.8450248303,325.7661656726,1116.1390609203,182.475713163834,779.964434811392,498.360783385445,196.705256468473,80.5175043617641,60.2505597050353,73.7830312187542,59.0313274995303,76.1713591364135,105.650923915948,64.8422237951507,121.991899052143,41.7659424979609,129.127027646336,238.539960339297,200.006786569353,42.5175911690647,-53.4320619087212,95.6452559549744,112.178480215433,106.693966846651,-230.235464666681,78.1701079225529
-201.568093117428,-95.1584031861404,144.471830289471,67.6696177463529,27.4444637614576,132.121943112696,405.050136190243,591.126528561956,27.1598489178279,53.3671049580169,139.426517085304,82.3430584013367,84.7330888603585,118.542450942473,104.476826666903,82.1901632232082,-12167.6358462917,7.78800062141722,36.9400894064533,-78.925409483749,-93.6986530932634,-319.839842046553,18.0027357137835,333.764912697112,-810.447278856346,239.874842308154,-550.592156125256,88.3127043754856,1075.20365040004,-374.310364600142,757.908889836797,856.950764596836,31.7055160182143,0,102.177942012535,825.477497424402,219.150661234609,581.740157550067,-138.622634387326,509.180537700398,1082.3565826315,144.46746268049,946.420480309827,374.777436285243,-110.647059222487,63.8813970077548,82.6314953400131,95.6577703080135,95.5280761299891,112.182906224948,140.400599136856,95.1242507334129,145.453084717214,67.2523746771601,129.960861524867,257.611497308293,228.206159266022,67.1468800307152,-17.2930597835866,118.621379369724,137.655466237738,133.216163162066,-204.768348400305,103.092953090956
-220.242055706939,-135.548738834581,109.083756051816,12.734790823711,-24.7492840829049,139.208904994035,374.634711603096,551.580996685788,-1.57597594474762,16.1135958076105,80.5738698817705,58.7644255714771,52.8536283373241,67.0634009063465,70.198959775255,32.9340128547941,-12982.7786026865,-45.5619254003168,-22.7028826361459,-162.128194221714,-195.956628820103,-400.483335942795,-142.628351863399,148.42345665992,-987.842152148596,-85.8386992699821,-603.302607403197,-252.617363032359,719.259046695643,-443.374260447828,439.143037676574,553.200409093083,97.2674198163982,0,-19.324045547923,808.649059168845,179.359086538198,513.073483823312,-102.307337735357,523.997438438236,961.762640222505,149.048782362793,1013.95002534319,272.423781184526,-363.286383909199,-32.0735002826495,34.7867380267907,30.8071533379746,45.0654617388346,69.6266501907494,89.9623319680194,40.7962632257603,81.2715719989252,4.20431776875517,41.4759398605831,201.168051847732,159.933226535187,15.5878870967743,-50.0141309522787,65.2691090849892,90.5637401775651,73.5594174700938,-251.722527473034,49.2800027656981
-269.276398499833,-200.12261752474,54.5930382861907,-73.5839971843601,-103.295561241515,104.429368466557,308.288536197828,466.803762435564,-50.1280709216078,-42.1592466520654,10.12716741389,18.1950340943778,1.52398542553634,-3.90208545549255,28.9782192158084,-25.9810199183133,-13360.3716807832,-100.584566406838,-90.7809842894781,-211.803226972273,-313.458646298985,-393.564234698631,-262.687471434847,-64.4936932552184,-989.41440543027,-358.704783266545,-410.13999686485,-463.635318544281,160.660245265113,-415.252172004893,-80.9960609035469,78.6979576035584,15.7955596685456,0,-295.512417336597,505.871863901312,-21.2496690708871,352.619456809847,-93.5243918767812,375.035283118777,631.491619553968,65.0545472275018,907.712491527204,85.3451953223074,-456.854792287168,-134.579768036566,-54.0529151114372,-57.2199497061179,-44.8927081754918,-21.8644675295415,14.042604449382,-62.8594543112567,-17.2665639569252,-101.44130878088,-86.950628556501,102.015672682556,58.7176533674377,-76.7809216677911,-110.102415581905,-20.613969629454,3.07650629368176,-27.2048000440112,-323.568311157983,-42.9764105149826
-301.356395326284,-237.481458731755,15.9750944702228,-143.779164709345,-161.218244936711,77.5886780295097,235.560058881637,385.643153604568,-70.6577149658665,-72.4412289995522,-36.4758038097848,-1.89576132322817,-27.3276705614279,-42.8610752902751,24.6294105105367,-39.274385365701,-13150.6923922376,-100.84226288843,-91.5235186885039,-191.064840072462,-345.568181312048,-309.8245107602,-279.655041876183,-174.140757273924,-858.344617576676,-474.170872401152,-109.108499658412,-539.351810559041,-237.775747042986,-264.444911798724,-525.621251158953,-356.923245634148,-195.565531801892,0,-517.85128495257,62.7305654293824,-350.238761344859,191.619489270802,-20.0350477729497,252.4136764543,107.985007559776,-129.389337106995,685.294208213818,-243.502788656251,-443.786642941896,-209.330571285463,-152.847500313243,-127.939981837522,-129.578128318498,-127.261176433781,-50.3663546555868,-169.227973546803,-96.1133331161094,-201.410116160534,-217.333161296385,-11.8825084351341,-9.71600996751183,-169.295900865866,-154.51300230135,-99.3198885797624,-88.0147558904251,-122.43528251744,-370.776611512203,-128.155986743707
-285.425562828754,-221.194316176685,24.0806898026609,-143.617102700115,-158.69296580687,104.377256910752,221.944244249333,378.043259683924,-34.1523523355904,-32.2348358938056,-13.2435357332059,31.9359965270804,16.2746516593269,2.18506679851562,86.2027615655364,47.9331725215971,-13143.8290113553,3.13675035500013,44.913490954468,-94.3681088070265,-206.154998978519,-220.089427550113,-157.161471183282,-55.723332622268,-721.54684398281,-377.160345445118,91.7787284046555,-555.359995863249,-225.831720443249,-10.5285227745307,-545.611859138134,-529.745126976223,-337.866064028437,0,-368.613790638426,-321.680056411848,-537.93520623861,282.089958020873,254.096728044397,381.768996885863,-415.274977169777,-242.258062821514,516.414049347846,-555.795806082716,-383.361655726561,-234.607432236566,-217.341783570278,-152.547622196707,-180.75706275247,-201.657815341343,-78.0855491419151,-229.950090022318,-117.463526745175,-252.141986679959,-310.599889008196,-93.5481616245445,-27.7168433069989,-223.074935468036,-144.714724696885,-136.411682417482,-138.8243117315,-178.97197578525,-364.932646576434,-172.226324028632
-246.822384668829,-180.473111451139,47.2039839550376,-104.345896722926,-128.433398017019,156.690594732477,252.429542758226,419.269127562888,18.0047641978221,39.9434507914719,48.1992465618737,83.1749119737945,91.8251208804777,90.4895073646999,159.695439280147,168.060107770468,-13356.8693068943,135.062005224046,235.331510505247,-1.37598494855299,-20.3148751059923,-180.277884237797,-20.3621111817202,134.049449124282,-643.306498207271,-280.494135193852,175.738521300903,-640.798985920319,-86.3448506447798,266.22694560057,-271.743548483064,-491.634837165252,-200.824414509986,0,174.60488334849,-631.272512681148,-369.806339968144,638.407701036863,698.765389173247,658.366762056747,-778.702350143646,-96.2434640974324,428.468104231957,-641.943897067291,-263.722955126604,-234.282858093464,-254.802803802065,-154.487251937171,-219.274119988428,-249.948239197731,-84.4604176772272,-263.80120892744,-110.539387266441,-270.45889774542,-372.538161230636,-143.477734359852,-43.4232568098536,-257.017514445614,-112.765080547328,-150.805205369342,-160.845733139753,-215.230331072593,-342.827589720745,-198.561219310677
-204.012009680502,-117.544007177387,57.1949961809919,-70.322389589696,-91.8130421015207,201.926915828695,281.307642999214,453.667884109188,56.654281817823,103.222830876804,105.301225928213,116.445241864387,148.421082157993,171.485975959111,203.746207568206,243.331395347909,-12990.9902452459,220.184584158739,366.507859303506,73.9711304792504,48.3875091788237,-79.2406775462069,24.8404300246332,147.416278609135,-460.251908426765,-383.497656037039,392.873786242886,-717.896933164672,-321.038520224077,546.726269642021,-187.771267382227,-436.168824896101,354.126331219061,0,753.512875808129,-968.447848255175,177.879416612351,1008.49386754915,1116.59013301561,730.9841955285,-888.058117036858,327.170098163589,314.665485219572,-415.069656132494,-42.364984068652,-232.131675148209,-274.285529806789,-159.848729091436,-247.105901844847,-277.836140210067,-83.0263086822913,-291.186615226564,-106.602558279416,-278.737565771381,-411.599264141924,-173.145345839855,-70.6586249384056,-284.523935415052,-101.642475794738,-160.066387765409,-170.008753349956,-236.101109476123,-331.114942535263,-214.756968804057
-137.073796116565,-1.29260169261168,88.9138398162702,-12.2008514666742,-16.2111985796807,266.964517244396,327.225623103587,501.580479171428,115.734669375616,187.655788524992,193.30211913794,163.833726282008,220.19353317308,273.318721970034,275.872208490781,328.260913586828,-12162.0597736226,334.834131372685,484.792450568197,258.583528366818,93.8489447132778,275.097723259149,136.264301460247,96.4010095152462,72.3166426057474,-419.814346377325,957.299137670088,-450.742366325806,-791.903412500227,890.713833947616,-400.662226944986,-266.147336259029,1180.51119480691,0,985.984273105061,-1246.88658369931,931.488240076026,1249.07622940377,1333.13665525868,455.136307126252,-657.309659850372,898.010619892482,153.497609365562,46.4661611024787,272.019576036383,-210.801924912962,-253.941563109492,-144.604685401397,-232.121599682266,-262.211629718164,-55.1597253392557,-282.540007981042,-86.2239957698607,-255.272936151354,-405.143927705303,-164.581297340241,-64.9444079248502,-270.528433565694,-86.6881807212016,-138.48260135921,-141.601972287252,-211.878706361436,-297.114591245073,-184.001735624042
-51.9519001751479,127.829076953991,160.43523769029,88.4923878785732,83.393185302752,372.216562602326,409.982642355698,586.818598093642,214.211422075345,313.250116115501,326.671092886554,258.674622791348,344.873453001918,416.558081632415,438.510763308667,501.817592303279,-11745.8644904055,572.644146475423,692.043955808096,620.462472649354,337.793728935513,845.533708727957,530.564305304396,341.13991866748,892.813412191121,58.8639174276625,1717.07131568873,307.295446865826,-706.617541711769,1293.19183144839,-460.532796071804,279.179244241939,1709.08711694728,0,781.192515777112,-1161.93920154455,1534.93325236294,1340.20012651571,1316.97728437994,48.3498203765582,-127.724544121332,1350.94751526895,43.3342547795498,541.359998463138,557.779851272265,-176.185140014734,-229.541896042731,-103.875365180903,-208.175501070959,-246.876172847856,-15.0970659665632,-259.347938467731,-49.5385918121064,-209.345330481088,-381.628579493464,-156.183954765121,-28.7134327982578,-233.490501154331,-46.4281236547667,-96.2201568742513,-95.7771606175588,-176.889339162242,-235.982272118364,-134.116274917151
32.3911213001275,212.653869789834,245.733330043789,191.094459286053,158.345144379903,504.922240021813,499.732947437244,676.998896973348,337.699703639028,450.645046175527,441.796733432911,397.801786120416,503.332725436548,562.472667987589,676.16874201978,743.081205004844,-11556.6022212695,908.500759091644,973.696868059267,1073.41444217282,814.873696804551,1386.37508795046,1169.83017667923,959.396359813887,1672.0353706545,1052.08107423658,2335.19832497359,1319.79483833724,306.201355613718,1715.849930169,80.0680887347519,1032.84734674379,1491.76959785271,0,468.875380018281,-606.841709360492,1728.68203351611,1153.77240735524,1215.83601275385,-131.998978380565,462.23119704402,1470.85405655929,84.0871600275952,903.358519007812,661.035766819305,-176.330179381371,-278.951496463668,-85.9445647844747,-252.615215297722,-323.093988357726,-7.40165161670988,-301.142975881887,-33.1880188696357,-195.595815766236,-413.008702733523,-227.922739528372,-10.9597709205771,-252.576116356276,-5.7591656088762,-82.2171659591798,-96.7203835953175,-209.050197136367,-185.075927968181,-139.467175369324
142.742987388245,297.636276433053,350.634824200103,284.658490287904,233.010117802019,664.62128886482,579.642626786148,756.190112879689,489.506572342849,587.326153610908,514.826815702882,572.756474437078,667.955083268903,685.689581251683,928.651915226156,975.63930036935,-10646.7677897318,1246.63841811329,1228.87453851174,1482.06651203618,1333.37623956396,1737.0890019593,1795.26974355603,1617.50043831509,2161.79687557786,2067.92614798216,2614.54974730741,2220.95567105773,1637.44618947986,2102.74067510317,1119.3950275146,1443.62874796697,810.926621945903,0,554.481899513769,43.9051205069885,1588.76367745892,624.310481200541,1216.29899010233,60.2501813955888,853.828548000352,1323.56186464807,262.042775983604,1102.21063993717,566.387171462462,-226.753518023306,-385.867047708079,-104.750383738776,-344.921030540615,-465.333386890311,-21.9465612736864,-395.811384195187,-34.4579778346162,-211.674881201206,-482.024705106576,-348.61103927348,-6.647378252394,-319.439443040568,34.2941892824783,-82.2795151444992,-127.529859731031,-280.96619535322,-132.418409724883,-173.532412441028
319.537691116337,462.0802545671,516.086716413397,425.336450076262,378.322342386934,857.988042387525,686.65151139274,869.545788612522,679.168893097094,748.46026007789,621.454154347302,772.534325609976,836.370270146423,817.540778769929,1144.182245528,1161.10472216668,-9313.41501527687,1496.10765192776,1398.66440592248,1722.7389983708,1694.91721437937,1847.6506131894,2166.40003000476,1998.99031448061,2245.56563039547,2637.22122251738,2433.9160199329,2698.70138538765,2488.53798424313,2236.06270897702,2058.57349286475,1371.0728905434,352.215360931132,0,1117.31130987179,367.989829911619,1352.64848070972,39.4520365459586,1291.78814040515,393.299471816903,1036.55533643553,1150.43805583174,470.566759762137,1192.79470143447,444.891952943,-249.773184379261,-403.42854786827,-73.956151448926,-339.803016322795,-492.450130154957,22.858978560016,-390.479800557458,20.9203744350672,-157.106850898731,-453.623207774991,-351.582576360131,57.0977684628635,-290.730077824753,131.847222837372,-2.97113403826177,-67.9044076171703,-240.061542536167,-5.95444104543538,-105.340130864949
562.887706058524,713.747502402024,740.486620721308,649.55891770136,616.288085539374,1063.39456405513,855.388436913167,1060.76262853212,882.399243673572,948.323859191092,824.756098484776,962.093124724941,1014.6922182473,998.198290891994,1295.0938707786,1315.45475376537,-8666.06373722059,1624.12633488319,1520.99332146162,1743.26116807704,1882.58740569716,1699.17403686525,2244.05054860595,2142.48249184746,1949.43382943996,2720.87808719635,1788.40278808555,2674.03721759816,2744.86623507472,1962.89300278784,2482.83730522025,1379.27925428558,459.929370619451,0,1730.5572679651,535.419442977399,1204.09119057004,-147.01990249008,1285.3916523334,618.156709033801,1317.27377093942,1115.1523983257,728.806699469903,1293.17157422756,526.651549314521,-105.94606951225,-172.559607861653,131.874385914329,-90.6434374308483,-234.268699703349,215.847461650838,-136.587557699532,218.113567069653,74.7294802386887,-206.572683175651,-98.2721148907083,249.018936945546,-32.416977408939,347.337990001939,230.88401678393,182.385403505931,34.891681959548,240.934808413952,156.499249670426
805.293712374564,981.113419897104,933.564708335572,872.472630484607,868.17759873438,1218.37253593327,1006.75558021631,1254.0652016357,1024.34371565248,1123.5527227498,1035.24244781435,1067.76133849249,1149.81278707385,1170.41378321237,1340.24261224261,1405.72750360537,-8192.84439104887,1639.47093788119,1611.85659632637,1609.5645365861,1962.55241801061,1413.19897953806,2147.33601130534,2196.78567075696,1567.70160198194,2558.92887343023,1080.46476501562,2412.14885609418,2730.02573365492,1565.90517688606,2546.97504923378,1921.95907711635,935.169045041851,0,2051.3814482338,1042.06307989622,1193.34686906863,219.981022080426,1197.26247595609,814.593864401418,1897.59863826724,1230.3118817709,1148.05714983117,1512.15941072022,872.176226343772,231.588131479487,284.962685610319,506.792320908561,369.680354659631,257.903279813329,542.051420864359,315.49309932133,527.933977866701,446.301694277762,207.473625113409,343.5465736549,536.603973545032,392.687725321484,636.646775961427,560.665262325177,562.712126590427,469.514769803394,546.4000482434,537.297164107216
915.008745845049,1133.98150640899,954.567772268632,910.127808752527,964.818266365171,1232.41975722239,936.171126816362,1238.20526834557,1002.71589925229,1124.21435285434,1031.25571699558,997.279797213674,1095.6135212728,1147.49185117241,1199.79766833676,1283.88803588339,-6111.08750067791,1497.79323107587,1530.84576465949,1380.38105277421,1871.61854693789,1187.13101218312,1931.94759724329,2049.16752814539,1396.71538835115,2233.50468625094,807.106048866763,2150.59760796748,2487.31756917802,1389.12236898965,2415.81098991618,2543.80282056134,1292.43367409186,0,2020.62928183731,1797.21932618861,1109.97231769068,785.046948106929,1069.42531890598,1048.99296194642,2372.77458321206,1326.78859940827,1555.75529184856,1723.69100089738,1233.04844526105,549.126238938666,705.441312112186,830.481932721105,779.904540327681,693.610579473068,824.213084083879,697.480597880051,762.318096458348,739.888846109364,550.757908604529,702.680596217218,750.368106060013,717.581944980906,824.303525575486,786.083627353801,846.958795566626,805.553264666847,744.36898800866,808.01537298588
826.507240849526,1087.50331508174,763.534392404421,691.18400821287,810.11183503927,1079.38613756612,559.294644858704,910.066872074131,807.284739573291,884.098082141022,718.614327859812,753.094273035987,790.025937227831,833.158654215454,870.672530282253,885.652267299505,-2479.48627197716,1168.28481374511,1166.66700234156,1045.86133536066,1528.82267240062,1044.82010876942,1558.21188033001,1541.21400899198,1343.35859673461,1655.19257715414,889.067909086193,1771.26262899243,1827.92527670897,1273.61335061142,1883.47277924405,2389.75055184945,1191.46887089559,0,1613.26165624371,2097.40239611808,665.973386855144,1027.54724205158,778.366420751747,1097.81559044334,2111.38560533249,1152.27783681731,1574.81675399306,1615.37333915101,1269.09160238486,615.873730933247,843.082932276891,892.816986252295,905.102319344101,828.716107460218,887.891257947584,792.136678738251,768.61035662429,779.717880914705,630.795422925348,772.418950517609,745.599762470418,745.195860121341,790.200734582783,764.979304528226,867.215061177286,854.231402703944,728.26048948052,809.076915482272
658.749719802319,919.599541874287,522.102813269212,400.696151316737,542.00006804943,875.829155503553,121.967635279658,483.690778454964,597.710825382729,577.379221442236,322.143991065084,508.754377525257,436.35634378578,436.228628059729,545.976149688593,438.721554942284,395.65739753291,804.268091649464,703.519444643797,699.244183112723,1088.23677147146,918.105200898267,1100.52002782248,872.975155307164,1155.1667105691,937.39934334513,901.323821888812,1173.14624701761,876.181958109958,941.981596194287,929.67706057944,1365.4953658636,824.494927205851,0,933.422743106462,1616.39041555657,-14.2928569681558,846.691275061689,322.840354439493,863.170339458993,1118.20257400447,717.058933641384,1150.83675373993,1095.73000127856,912.88674601585,467.712851785707,728.843470833419,737.515383211811,783.044798471754,713.603148645676,758.805311151023,660.79791973456,611.801339798968,635.446991628685,504.449369051351,627.788905263912,578.824512080298,568.08998946432,625.592886561395,584.283947624859,700.686784480104,697.718999141308,588.61004473132,635.745694161489
563.455723423904,763.167591535181,411.06178780674,257.407742250134,365.345537649693,755.485953880626,-72.774986806993,241.019775481506,527.86281842381,423.165618693139,125.432213533546,435.159686290528,285.485321199135,234.527925625955,436.94403763826,226.465870203194,1213.38092160335,608.485791551264,414.181080443091,527.224483938611,786.250503679948,860.886598510179,742.769379992287,375.793958056765,869.496724806539,378.838137472775,817.00197978785,594.841077656383,5.50228577373749,585.324092211089,-13.5882297918353,196.195529702154,597.268282889364,0,334.744698216546,812.010835392564,-518.677420047538,523.127998227361,5.18425287335706,598.024983410907,10.4411907002133,265.817267236539,602.404900628888,395.780175235042,318.491853936172,276.845679676381,532.035123255999,527.563025721277,586.111423623749,537.828184014132,570.697511650074,479.012447022554,437.161002240276,471.180086911551,341.547878726828,448.689665212476,396.486689745147,388.88340518551,478.981398560103,412.44570889721,519.571372617976,525.300048353473,474.619026822617,471.558087980439
523.622134232759,639.480254067839,391.043858418062,235.675894758597,288.766565773199,697.93582707622,-73.3129277987262,164.613124291472,533.711251541371,391.07973905203,103.227304971354,467.15553030119,291.511209404631,202.93619969415,478.201896424324,204.945629144875,913.345915061692,543.050384643614,281.788387106093,520.033877012132,615.211773260215,897.608817017329,518.16994948511,65.1891137555176,667.835644488282,47.9754583748235,884.77459126797,221.939960552187,-617.633978831241,487.856275114127,-631.712653706057,-538.802636153349,436.565537413893,0,44.0844811022075,246.635550139767,-737.50669664158,165.380406638026,-17.8845548497646,508.950391827533,-690.237504567978,-178.02794845966,220.512665980377,-224.456069573492,-437.004134002904,124.963600386418,344.162221466774,343.655276206806,409.779632012024,387.684627460641,400.180076424209,316.065457804472,297.917041235058,342.674327878959,221.996362643765,285.690695145539,250.457247158097,271.142424390547,376.300688349919,296.420843328048,382.94767728958,397.793184898435,408.637774445411,357.696384494589
468.141384569915,542.073614829383,323.028861685342,200.836409679657,226.731488307688,610.522590813048,-124.833981031749,75.0420655258132,465.106618508055,323.184870177138,65.8813469551678,412.542169599283,243.398701269039,153.173222582561,432.848450842464,137.925479624178,-88.5646788316167,429.793717349064,138.991565463087,468.231218887728,435.593260297382,874.350658795228,305.705314089629,-201.41087187542,523.648387191832,-228.03859337953,1045.33294247771,-76.5135898326059,-988.411504320536,500.374931936398,-950.33715926764,-785.454563776896,56.370092834153,0,-37.1885761064759,50.2772964853968,-761.439531812874,-280.566458347513,38.3747380820851,576.328432167858,-798.235915641256,-698.706735759712,130.671330290641,-576.29442319611,-1195.06924244792,101.554709538929,269.500431253377,280.877000592741,357.097060612444,333.008780352025,335.652139617483,245.467569366844,248.935397690002,300.820200902908,209.835290475868,186.867074136781,182.121355444532,234.21547159135,326.835460091947,252.0133669802,324.067462809325,341.652614508397,382.867882460846,299.674562535773
462.37164060176,555.024146234986,238.482429748431,181.444907349362,224.351525693612,516.800848503416,-229.174089053787,-10.5792884732386,352.300956803006,243.1355585828,27.3406031884644,262.731915377231,137.544869268675,96.870933398065,261.028265964666,5.36744958411585,-3097.52348232745,261.732343180081,13.670318218776,296.83163834083,267.243554272128,699.407730362491,74.3458353855326,-393.79831381061,319.148947106436,-516.997685657305,1058.57552710288,-406.650653329588,-1079.35143558922,353.498217399186,-1020.15303813113,-675.275891424565,-279.92024335055,0,-4.12600537912881,79.8202769352015,-470.702514984445,-597.385161134378,27.2221435039601,778.957399932509,-354.748635960965,-1003.15461688864,356.611827955012,-521.946575548399,-1477.72567332479,359.917276196442,470.711785990798,487.400950239318,579.21705340471,515.271383601377,512.649980290045,414.422567962388,403.004769279395,475.953738270394,414.292132896957,311.666421001803,310.175264653035,382.839400941061,432.736951181107,378.339796453699,452.471034119332,472.225752057133,491.163217434982,406.391516182304
578.012505333645,708.116296344413,256.528384266356,270.937738971513,347.055148243313,501.71928218114,-208.165733660938,33.7644748595201,330.8957918654,276.082170890994,115.192723023203,178.042767709719,125.77155599874,157.567748584634,133.348277387397,-35.6137404858473,-7968.54264000889,168.502696810983,22.7471028279072,149.107632005979,205.572568493945,511.919639866485,-85.1971810552331,-449.045748849703,115.930163853898,-714.22032691464,940.994932136584,-628.789037923822,-975.168522716013,118.321561235999,-874.123509396038,-418.289154019963,-85.2283222630404,0,153.923154012264,195.111910088168,161.6452894685,-487.509426322806,76.0550419923036,1076.84639941249,311.112154388524,-741.212739828982,737.090223293895,-167.889367073688,-1018.42796064836,842.332161041131,896.571947968897,906.923308832941,1010.19361047648,899.863320209115,884.816762337434,780.045671263615,721.356326524529,843.647567515448,783.656203174282,656.928206457173,616.836564160178,709.92192551097,704.187563789357,675.534346832941,755.87518181662,783.503300865484,758.443939649528,687.414549855599
738.90694396638,878.451410234814,363.158067933261,424.067343879266,517.77288445902,566.954156074302,-44.1946283732939,173.39722597867,421.89967678057,409.504269044219,297.812060928454,236.862891247389,240.149867901932,317.303809894035,166.269448490396,68.5889589501272,-11299.7503186272,218.292650868862,158.369883386618,169.585023466746,270.341450270529,479.349047920822,-80.2046348657963,-378.454287615838,90.5704560920796,-672.228927383772,878.606009846854,-567.363731620748,-725.67100460997,36.1415326499426,-560.466273016258,-191.227553145373,524.493847405482,0,307.291653250273,400.634922310346,792.562955439613,-24.8038328825184,250.139045938334,1296.66678791778,764.743304343218,-83.6813490815974,985.66731532863,178.539128178036,-215.538335648396,1207.79642824473,1221.64723554925,1230.94458125396,1325.5685506031,1197.55116641629,1170.67721321183,1052.42274392902,957.19846497416,1137.01863573774,1061.59167997578,938.993242518675,861.00797153358,986.037861877644,946.894493029572,939.213766317025,1005.96920234476,1042.40660133713,1012.26531848576,931.014266954999
