20.8789741207566,-46.4702167062673,-4.27728983723833,59.1570933421437,3.55232545804539,-12.5418837600378,-3.55232545804539,-5.72721859562421,-2.60987176509458,16.6016842835183,21.8939242516267,-12.9768623875536,-10.2219977466204,25.0112710821563,-5.07475065435056,-0.362482189596469,0,-18.4140952315006,2.3198860134174,-14.3542947080202,-19.2115560486128,6.88716160233291,-23.1263636962547,-13.2668481392308,-14.4992875838588,-18.0516130419041,0.57997150335435,-13.4118410150693,-7.90211173320302,0.362482189596469,-10.366990622459,-9.71452268118536,-8.62707611239596,0,-8.55457967447666,-8.69957255031525,-5.94470790938209,-1.08744656878941,1.37743232046658,-2.3198860134174,-2.17489313757881,-2.89985751677175,-1.44992875838588,-3.91480764764186,-0.652467941273644,6.37968653689785,11.9619122566835,12.0344086946028,15.296748400971,14.7892733355359,13.1218552633922,17.3991451006305,-3.84231120972257,14.2817982701009,13.4843374529886,11.2369478774905,9.42453692950819,10.9469621258134,7.97460817112231,8.19209748488019,5.21974353018915,10.5119834982976,0.57997150335435,1.66741807214376
96.2428948172494,-222.820004171061,-22.9055144660321,279.031640300145,14.0283421812482,-66.1806246150529,-20.4080287181461,-30.800343478576,-20.7933687856508,75.5847699267154,99.2463990864387,-74.6242748164528,-60.6100512483219,112.73320279949,-34.3740702703978,-10.6370315844916,0,-93.9716376479123,4.55562323586084,-71.5181335107769,-95.9431600848504,31.6644745570802,-110.966507607324,-65.7057564082479,-67.3488600583516,-83.914577566775,5.14433400400619,-61.2464972041454,-35.7554253950588,4.76482011302878,-45.5663121080026,-43.122834552523,-36.802982384559,0,-38.7063780159734,-37.9444371457549,-25.6701280876871,-2.11505876864497,9.29074957852322,-8.83291307309917,-6.47750711278804,-11.4398717499301,-5.28495724744928,-17.4157299738104,-1.42852742460943,31.7213958377503,48.1319246614124,55.9430517111833,63.7381567755041,56.7629235780028,61.0304644345193,73.206506088496,-26.2062872075577,66.6068639777777,57.3856977489101,40.3421989454179,44.4292269792021,43.5334987579987,36.6793908424969,38.4363370539409,20.9977492022222,40.2370956488686,1.01203704260645,3.77956375252506
168.606118351023,-439.971640012714,-59.1362894008489,524.176834925673,13.255305782507,-155.781787500589,-58.3885426353267,-77.6538804016089,-76.4122318801795,126.223342001989,168.95222449996,-193.201358063848,-166.052837877605,187.648036030357,-106.33628688883,-58.9491498789819,0,-206.916902641205,-19.2192625555881,-150.995095880971,-203.326474858599,53.2892626051414,-218.180305889871,-138.438478473118,-124.192171044829,-156.011944283001,19.4568415208755,-109.099634853933,-64.1600143213624,21.5161106028565,-74.4564697275984,-73.3549394112455,-60.7102504082245,0,-66.2920699258346,-60.8766039918146,-42.0564349014997,2.01471978572455,28.868600263794,-7.74605243392446,-2.57457217166474,-17.7729776769655,-5.04636244495793,-32.5128212850119,-3.39026601527196,58.8446612563278,50.9527101056917,94.8734116775028,83.2397438798844,51.0779436797957,105.222529089146,95.3236052857864,-81.0685596751114,113.946990470174,76.1058693662397,16.9738043750996,76.2667278447012,41.5888084285269,59.6695641767366,62.2612726464439,16.1995964779311,28.0853328297742,-10.5178039143537,-19.0786044465911
125.410608305398,-480.867111869894,-101.784131867804,491.190126787528,-25.5488100245817,-223.453024241443,-112.811450791554,-131.674627811157,-166.708831865695,67.6082424477346,109.998256997897,-302.501451411591,-287.434908459704,107.549730481968,-197.829379992046,-159.784714726552,0,-270.842387692458,-96.595294305543,-182.077022239247,-252.927617340587,32.8005340113726,-229.666279315833,-171.387684699386,-110.77152183398,-146.884144015224,47.0811083011245,-88.6046049008642,-57.4516535694349,55.6487612308755,-44.7064892880328,-56.9270837277368,-52.8450714609595,0,-41.1382513059148,-35.0312234918417,-31.2844540052311,-0.137435717991881,61.1779398921468,19.2102941668777,11.0796620796029,-19.4846308779084,8.00853281256978,-36.8461530941158,-23.3468265794405,39.4564744933631,-57.9263398445324,52.5496254605304,-13.2373312292187,-90.7054258098568,65.4621136454269,-19.0716940250389,-149.853278111492,66.3249838134089,-12.7787759881902,-134.745118286124,40.7172782212681,-67.6048065425598,23.7938144326965,18.3093345735797,-55.1214258470075,-101.569310830575,-48.4130702998952,-95.9190541171485
10.9332815098835,-378.430903176527,-133.346823482012,243.538992785739,-86.5455831385733,-233.273347535482,-167.183591787233,-183.583400026811,-244.713168393468,-77.5794403715515,-41.3810580307351,-330.374282564643,-373.977543836207,-85.6735468017668,-253.44955896596,-285.532998002229,0,-271.466521584524,-222.648049757634,-155.518430288128,-252.286679711519,-8.41962173904104,-157.221336335093,-168.817747970491,-42.8513730259377,-81.7913237396031,81.4507225492561,-21.6130107009415,-33.4993007180589,96.0662849393177,13.9345482136923,-24.4448073584719,-49.5240891610401,0,25.4912260447354,10.6109470946494,-17.4355875580634,-37.710225723584,101.891320244203,61.5499068764374,12.8299247321938,-38.0052612615575,29.1989919609351,-40.5425856347054,-82.2466410586017,-30.1933997686226,-214.142426461441,-50.6004712038685,-157.013740002973,-271.207670812233,-35.7061050087594,-180.850070269266,-188.638433172926,-46.2785375345807,-141.012241043992,-303.544160329276,-46.5535735272166,-202.857466927201,-51.5838824810547,-72.3077797234232,-150.495798944707,-255.115474816751,-95.610783514011,-181.328163051148
-40.643774176125,-327.119597909676,-146.147323237084,94.4422382642644,-125.512352890279,-213.33993649906,-210.788061545406,-229.273637062716,-277.81120760659,-199.221012524005,-147.491936635346,-288.044353251047,-426.818324497039,-239.191270083999,-258.210083298798,-414.588841227083,0,-281.226329859682,-388.8180069769,-125.509118503986,-294.019921033556,-15.4257188323763,-115.976049691521,-194.046545395947,-3.36747137878838,-59.3544578802573,98.1781921006545,6.50424231140567,-41.0070000442709,113.252156336451,23.9449785311621,-35.2899410503344,-84.6275116665691,0,61.0405308883402,12.0615908138607,-38.084008891904,-103.434293227065,127.365588933688,76.2963299633056,-10.3517553431424,-82.7892881229106,37.4667120095042,-62.5531643073955,-164.337727516318,-109.417284857227,-299.219082340424,-133.519294309446,-226.508083469146,-337.132649313466,-106.942089749408,-230.01212638994,-187.829596418727,-110.382873384934,-179.310395486906,-323.078422909355,-102.533915233583,-221.470573144252,-92.5191338514958,-119.126367947602,-174.708219945554,-268.48602223888,-117.478238090986,-191.129392033195
-42.0581262630368,-334.151927330701,-156.090470785983,63.5097897150365,-135.499617771325,-203.408561156823,-250.692651605154,-260.156211571875,-288.387357543291,-278.654108289817,-191.332640183616,-233.150096766173,-471.170415941275,-343.153778900433,-237.414988912001,-528.256856897997,0,-311.233229427275,-563.830677199644,-96.6218404432472,-372.22845825097,15.4107329712047,-123.814103706979,-250.630124322382,-4.99568030507619,-84.3527634338471,79.7731795310738,-16.7286224199357,-77.1377493251288,88.6743497366977,-15.4475708275437,-70.7754774546538,-113.673209175887,0,34.9959460300555,-26.8168272223414,-73.4779329656063,-140.421888854694,105.226097928736,40.3583409491964,-44.7674948048654,-121.415066657394,12.8223034716247,-102.377656651961,-220.691366003047,-188.271244106021,-338.803500497456,-200.97315657133,-259.789005344441,-333.274196916432,-149.137690926727,-220.926377967316,-186.079965167148,-132.216342496412,-172.379543869102,-259.051736351406,-119.217578989441,-170.824597968956,-95.6281659677544,-118.208536906944,-145.201287031531,-189.337092842999,-118.264191854727,-146.497975858648
-86.3903242511827,-325.643670003241,-184.864861253523,-12.3961089303779,-147.357809856349,-205.607036621175,-293.311266087026,-280.703588359747,-291.109057793385,-354.877306625047,-234.435237802656,-179.44524301071,-486.360883833093,-448.417868092732,-183.490463643526,-532.366195487187,0,-279.47135991698,-615.587871020146,-27.2030154896484,-369.118451501344,62.7064735662543,-108.008131345364,-262.458389538595,3.68361662285217,-89.0649600476019,52.9980869439203,-34.0291087423661,-93.9994696644053,48.8545563084286,-41.7564002750763,-76.0055727223177,-89.1469283473279,0,-5.43736078420128,-54.049786677135,-76.2599214954391,-113.107848319341,46.903090206489,-12.4678753812935,-68.3374498995698,-116.085427809443,-36.9293445628423,-137.386837793216,-218.749227852687,-263.550475695655,-394.369182703847,-280.706443393568,-330.621149715975,-369.398828431896,-209.523874690023,-283.740674499084,-209.420140014921,-194.996860493654,-237.617786314669,-277.817045116186,-156.071673201486,-201.714087855531,-119.729014098033,-147.142678649589,-168.226747368106,-188.579120862683,-136.993212185471,-149.275534266017
-169.624503768964,-320.475060611068,-221.144945203722,-133.589387928448,-175.5895632324,-197.26044198707,-320.61397356564,-302.631218857872,-255.579832453659,-402.942158659785,-274.297205781243,-104.052387407888,-413.990488362825,-500.02439171246,-78.942933064807,-336.15902721346,0,-139.775506809151,-407.370683889932,75.7710902241806,-210.536435213106,118.914433777031,-33.2956676451954,-162.249415438252,45.1403154048943,-37.5605297997575,60.1862414488867,-8.85534606161339,-57.3434791336224,38.944032836824,-21.3821225791066,-35.2604398536467,-19.2573561429368,0,-5.1347074995048,-34.9398886422605,-29.0497169854947,-32.8220792374366,10.0798350015731,-25.4032952842366,-53.6811664560919,-56.9782913010692,-65.8172388397227,-125.196131774358,-150.742633169001,-284.204904732588,-404.256610347331,-315.791801392249,-372.806250715149,-397.479348187507,-255.098311388687,-364.172005254836,-230.768325020528,-274.94125338489,-332.795933733691,-346.860312307597,-210.853073199024,-295.656366048191,-167.646470621956,-209.855425950337,-242.359012406416,-255.205594385115,-178.95540366296,-201.706375822746
-217.765480481524,-323.852125781575,-221.237629364117,-205.192877740822,-202.853076042053,-159.211379881776,-297.000800321873,-317.965479374193,-162.769196876846,-367.956732641337,-274.359130393881,-10.5735716440563,-238.875862691499,-432.319457695009,35.2855287241498,-23.2438824476873,0,37.6683805274377,-17.5355601044268,149.680073086347,39.7096309010729,161.333638401517,64.5795047787939,25.9173607603912,90.7682660640294,50.2254906427391,93.7778965742008,43.3143983421294,24.547746694565,61.1752107550356,30.1555377156582,35.8493612353471,71.0725625181755,0,34.0462150243845,28.2221270197535,53.3851339833889,77.6052365030678,21.7260288924354,15.7620744813514,13.5739249482226,38.7070727854576,-31.9990307493211,-40.3634330973076,-25.1064934576393,-218.05236009329,-310.15612176514,-259.515434415784,-310.015861518774,-318.113089885498,-226.936551477524,-332.951191349257,-208.342252725496,-277.999005095659,-328.343286774607,-310.64580435014,-218.263110605523,-297.334747420938,-175.363033338731,-224.298553979896,-249.783928679849,-232.050617298126,-191.599297846334,-197.999884028787
-206.731249966523,-296.674355327169,-165.246541471368,-221.645863946589,-227.119741632767,-86.9475745252889,-212.877061794627,-321.182431469274,-41.9430089647516,-267.079402107203,-253.466680532823,74.2509693309083,-31.8590217126031,-306.981706153122,103.019299233453,203.849601724597,0,146.270525413479,279.223326814599,149.75874663948,231.749469253239,156.766477191843,115.577644657069,179.79616609725,99.1840978304204,110.460533058595,102.628910361055,75.6055134268773,93.9423303025059,73.320102656229,71.3532490514643,92.9625411426686,140.102495581112,0,63.2824253864401,84.216888449566,119.674296785185,161.443690895237,43.0321345189656,59.9485871545046,85.1614043246546,115.361417236092,34.2375812059134,58.6080041968815,88.831466723474,-138.29817234258,-212.26405705911,-189.60636153527,-230.22611472896,-195.505627803198,-164.221513826341,-233.55923763801,-157.170155413405,-222.206785180831,-247.139526795793,-187.335028450309,-177.533138026892,-199.781960001924,-131.159579851607,-180.209603559511,-182.324804906838,-122.602430230171,-152.319254821889,-133.296284793652
-178.087823249067,-256.90911225007,-83.8396350205688,-231.267743185345,-266.161389284529,3.26905059039411,-104.46956438527,-315.932404636904,67.1701856611716,-163.987189398662,-241.428486808733,142.786727046032,119.778816896166,-217.846967411739,128.706212825122,251.617430406862,0,159.871746624489,307.318936395465,92.3983425557911,262.561027762454,110.242684129681,78.7946945957659,179.440916127659,58.4281183155558,86.5127989159639,65.6267119918973,52.4462533342631,82.8852362844219,46.0283846320109,60.0619171236643,79.3015918818004,125.06390308188,0,45.8053063212614,71.9556522355253,103.846609409974,137.537416786225,32.3022668509198,48.9493378343372,84.6554000886243,105.547066644002,54.4505821429926,74.5443206283033,92.5664498211707,-123.231379816647,-221.914112994091,-184.512026395989,-240.663765573535,-173.953836402106,-139.619363544084,-208.897543527788,-119.893125163075,-197.59721666992,-220.671931036293,-148.513284484746,-147.500866374381,-162.892244447678,-93.0519164571195,-153.6283420579,-165.271408533851,-101.473544464229,-111.632051501143,-132.758888017461
-133.066641471245,-206.799654757326,7.23299936757069,-206.328078491764,-263.296440137949,99.4015685279942,7.73522615623014,-258.250190465748,169.56500858235,-59.2400470135008,-183.733222866515,221.308162566053,216.521448712247,-137.275321314099,164.667793793423,211.00973863349,0,141.178539035919,160.245015698496,37.2154742321094,163.072226279694,58.3185400924587,-2.04699081583624,39.2717367338748,-2.90177564779333,2.61590475452484,8.21560061510898,-11.2442922663062,-3.11268253245392,-13.3062295398291,-5.67022856369592,-1.20652205563724,30.1380727159288,0,-10.298983552034,-1.27045228391538,12.585396036389,24.3610343299691,-11.9608949432008,-14.9360717700393,14.108992581984,19.4229635179261,6.47817872460459,6.92837074480918,6.15300766528044,-109.084450718426,-248.288214607925,-159.898862449057,-245.218505871244,-217.091934714355,-104.457851124877,-222.889803114626,-63.9297109968227,-162.080958944476,-217.037017929965,-195.363754679572,-99.4591160949686,-195.011212021185,-53.9422781375009,-123.523217985436,-182.676470865555,-172.001013328728,-69.256977829811,-179.35297369366
-4.08424069667534,-51.7054497964671,146.779220777254,-73.6226028254099,-108.728536106329,228.398504392093,160.026424150238,-89.8148933404043,312.917503509643,100.942749167066,-15.4132575752911,353.315987445551,337.738839975558,8.04447414281876,252.060652049975,215.25539761822,0,167.640906741996,36.0858375813036,42.1664961951729,62.6945323260476,23.5365460133721,-22.9277474634475,-92.2696945615311,-34.8744836402422,-43.637673294948,-41.6470904576933,-53.192074012454,-72.1182415581856,-70.8252742147352,-64.6354051074654,-68.1342005584954,-46.6726078496933,0,-61.7108350343951,-61.9995545810828,-59.6368771058126,-52.6076395628419,-64.0612489302624,-74.5785014218503,-42.7023445764849,-47.1460499531812,-50.6919583193563,-46.8767918613417,-36.1412165508998,-4.34777968149536,-129.913026458023,-11.8776112360587,-96.8430051506528,-141.84449187645,30.3802821236286,-100.902916176778,68.2776461646003,-6.71132724182175,-74.3127720085737,-121.517138599178,47.3153137528379,-97.6336081860543,60.9750017424757,23.2759774389202,-55.1259470053433,-101.597563866891,61.2011409828887,-67.4595072517789
196.268118195883,203.616301523802,331.097992701465,122.80506391152,146.861367562708,396.768202716503,349.626009297347,121.782185564861,494.93719309953,295.223559534537,176.733452352714,529.51304823465,507.706130397466,173.636273166952,371.07669064996,277.293291087039,0,244.894011398123,-1.54240885268874,108.889104824298,42.6399078256968,11.1734285052732,57.4786055432854,-113.60171577654,-7.62446560615292,1.75064547332625,-60.6927752646599,-24.1159852939289,-59.6301135740461,-81.1788447436109,-53.8600865935201,-63.7223960824718,-51.0585429251582,0,-59.3204943131514,-53.8983386768921,-50.9441515872823,-41.4579826531518,-79.6900608265369,-73.4498349431626,-33.345512497865,-37.2892296877605,-53.4882926430115,-25.3410935203697,18.3742568708833,148.406146286295,141.151249246851,199.012248038745,177.028024221563,135.196079369034,223.710437483017,195.429116419081,233.964138305372,231.214065031589,220.240233199855,175.66503481537,254.518342345732,208.188724590608,238.192204340623,272.789245172557,247.398813955324,211.990595946084,278.672309935234,253.581494419903
319.555565342856,358.567443993404,444.347389673117,217.197124482697,274.78915247536,506.148969825291,457.348990852995,201.468714511317,597.863920331329,387.28788134011,203.144201897953,632.072578965696,611.332182059283,213.311096865526,420.653776022053,283.325940682025,0,270.104963857601,-50.9415476498533,142.504103232837,27.166186953498,-0.183163178001791,127.551548170552,-101.375986097627,30.3286173740263,55.970032147477,-47.8623782445519,32.7559257240056,-21.60856296619,-47.460204307365,-6.1932047096219,-32.0793653698078,-45.8124265429592,0,-9.92164943783505,-5.61548769621155,-13.2519038847878,-22.6163995607466,-45.3529980834796,-21.0959490296062,2.54185416009916,-1.76263016238919,-4.42909000547831,35.5804729378412,86.2355101122492,263.214490673395,464.663368070364,359.602567396182,466.914706020549,522.261655449925,363.404298397322,529.274060130767,339.848986527624,417.089132835808,506.90744696661,550.570139251505,396.295726264648,543.814642078504,360.617763318121,464.290123940109,526.979652954469,562.871359266275,441.076372684124,552.978773313221
267.12877499057,291.727287759572,387.563483687566,123.565751270665,165.410960266923,450.161035808308,378.363988302157,76.5436576975982,505.294349530021,273.451246231392,3.28852162838797,548.850309757131,515.430166584565,41.4194028611524,311.599299170137,143.193473172166,0,147.733839223172,-214.532082900546,49.2909522468987,-98.8936876377788,-52.1304656690713,56.6967927829412,-172.622339210857,-5.46305658904356,5.27514291922788,-47.1568227013228,22.0858147487426,-49.5527914417082,-35.8708016111525,-10.8612020589404,-50.0956258873856,-91.8239323480946,0,15.2862487947031,4.82940823232046,-27.6076832328135,-59.5991360913882,-18.3393151885428,7.2087149155075,2.41778961975828,-6.7497980286308,35.3083491094221,68.52368682437,100.295773155049,300.847092038621,698.276969784858,413.407510258059,653.949208997618,803.172269654635,385.43242769249,717.193066233121,341.233445626566,469.11029750827,626.555108010017,755.043947795377,405.342538557183,684.12955517296,347.696117118653,487.014360547936,605.900279071183,697.265261893762,442.04709356785,619.928493162683
114.872289768244,127.146523364959,225.610392717361,-66.8542502055192,-45.5551635742814,289.376079888933,182.523103066843,-140.58124292018,281.933588590559,33.7994467257537,-276.415270920434,352.428668574331,264.209084586406,-240.026723432802,124.805602494474,-82.8204412202583,0,-42.4148276056999,-457.893895396963,-90.4586491562859,-291.057101523622,-121.763805398165,-95.2860269450446,-294.320667687302,-91.7919520183493,-115.850044002549,-77.8082565340427,-53.3230220365845,-133.171378683891,-70.8475055660235,-72.4980516203264,-115.209488906628,-164.155268867231,0,-14.7606687986337,-39.8093683018067,-90.7504108971343,-122.433857705701,-39.7405887113899,-24.1071016061576,-36.6249647764195,-48.2516643719301,26.3231189742179,52.8760711408472,78.298679825684,221.571295465117,671.118441915881,312.970279463459,587.210786024905,768.616782278685,273.874718095259,637.750336864124,237.965961522056,372.735102750195,521.150806886694,663.105727126687,298.078232630584,575.571258705022,227.778513090249,369.688572647448,490.802487285456,582.468030714107,323.319689025888,487.263474628419
2.32152215367816,32.2614311696857,114.901741150054,-201.899688967133,-181.261779318549,193.1517589734,50.4802702756673,-278.635552870493,133.792044766505,-122.095427089722,-427.03606752748,234.664357962409,72.8441356387841,-388.331742228085,50.401026281495,-218.631353534025,0,-113.56934502572,-599.68382051023,-109.042562628756,-380.723078411744,-130.012801357645,-153.440107413459,-333.232782932389,-114.194825999421,-167.875231180335,-89.2220596493873,-89.4735063056283,-179.459177418089,-93.0903693825544,-106.077875977226,-153.6185168102,-202.796457718885,0,-41.3121808805067,-72.4295977518825,-128.730229062423,-154.377322967849,-60.0458087037872,-56.0840121320604,-66.6026249072233,-78.0789984801689,4.02290148696514,26.0533352185497,54.7054202715872,53.9166123986545,412.167023712331,100.046198004157,307.767692963848,485.886453950311,92.3687424898098,381.077873352446,88.8232304943871,195.354913160842,294.698685603697,412.429892056959,150.411411175073,361.17901666348,97.5544605002921,214.601142316263,314.014750197103,382.107077332493,195.946767226732,318.094192452242
-33.3198597972054,14.0687449135647,98.4817995844895,-232.440308859385,-209.910360665624,197.162346791416,49.7483481085115,-273.725171178967,137.972352229036,-94.2610206235634,-375.217968776437,233.976275695234,69.3640905711816,-275.183726640695,110.055042491065,-165.397347464221,0,-36.1086900337666,-489.233885768417,-17.0819449269331,-303.163242273279,-79.5991514391824,-87.8314949703077,-238.072571766079,-51.1846251948317,-108.459821563955,-53.3282272579328,-48.3916433269681,-142.732259220837,-65.941780874646,-71.1899723647505,-121.481689770187,-176.224216044483,0,-16.7402624486596,-46.8056719911521,-99.6668843607566,-131.998654713411,-30.2866987979756,-33.9895517501203,-53.395560784946,-63.8375128642903,19.4692668205591,31.7067099948242,46.3284063159422,-40.9239576015828,227.832103952654,-31.4439774514915,125.636244431766,287.859350034033,-18.0396292345152,204.051419879246,-4.02620813365877,66.2804317607098,135.145889750984,249.892753705631,49.3443557077469,207.213327887223,21.5139871827558,92.9599373792029,174.324322369974,238.53274399289,105.498221118679,185.60456250921
-78.950014559286,-31.3393428942365,67.4553746479057,-255.371545876964,-233.149159469548,169.762235490305,57.5500806899262,-225.567369408245,141.266321335201,-18.2260327226346,-256.922953796595,194.509000791935,123.596224224743,-56.6422088273672,123.198512895099,-41.9319301268352,0,25.680003440075,-216.832893183312,24.2084985390563,-165.231902567451,-60.7229371458331,-26.3006131864595,-82.0528989991953,0.232952617709741,-29.7582504378036,-21.374675259455,-0.809658167781056,-68.2709748844454,-31.1298555451913,-18.0896303678281,-51.1321106468891,-106.025823334338,0,24.9779845519542,1.82224174192853,-40.000109185366,-76.2129513519127,10.9454601887407,13.2053888194902,-11.2641266003329,-15.7480166471955,63.4411843401204,69.535553209458,61.4774241622042,23.5726821118219,269.978483701099,14.9446737315488,173.418283768483,301.357242123331,-9.52766224318605,179.823170092866,-15.3232514258378,21.7961447850492,72.4648033204954,201.817544854782,-0.884489792524899,106.51174148088,-25.1843229534367,-11.8039835649302,42.0878048544359,123.790586893136,11.5647717145954,28.0745420304044
-182.108905126515,-123.709287046393,-33.2477531841246,-340.968397187478,-310.081762671959,56.4832786549818,-13.563543076298,-222.655337600582,38.085707149878,-26.8494686562936,-201.753259499255,50.8743451413632,84.333016461185,79.2522279308181,7.22411381739325,11.5699403343983,0,-7.36373504804285,36.4454679297056,-36.7894047353724,-38.7795240987726,-114.168689610728,-17.5672031327671,84.0050464268738,-10.1186027953767,14.7681120810982,-36.1426972094272,13.4467407599385,6.96026685385205,-24.5980464443931,14.8461245794943,20.7807944193054,-20.6192737673858,0,43.1302133603035,37.5290050189606,16.5062086694364,-5.20492939129506,13.690860717756,42.1762153089152,36.1853167403579,48.4705116999914,100.907096592957,117.985973262104,108.193155855838,139.647162550881,331.291807572526,110.064123930651,231.163481977604,304.804803367696,31.5131107787014,140.634598831601,6.01824916019158,-4.50803977221826,-2.8565584502787,111.296260688762,-40.9655040470425,-33.5801673343255,-67.5390341698579,-116.75331848169,-118.465226820366,-40.3604600554751,-84.0581490724292,-172.439116775785
-234.430547699575,-135.208252287697,-88.254475990654,-371.157530580096,-318.200050141082,-18.2410088274627,-36.1675810480068,-154.986539252694,-33.3435041740823,5.81395130410562,-86.690208410417,-51.5517772399511,69.8738938245367,232.062351202689,-99.244399834617,100.814052461949,0,4.06073805705351,322.202760649883,-93.5512978955054,171.709759500933,-190.657555711616,46.9881890660459,324.125768844365,-19.0648315474126,98.6062654950248,-65.2409010471268,49.5001687700016,124.651056114985,-14.5423889698599,68.327928036169,125.028167708604,114.54700117335,0,61.537843506851,94.7588854774992,112.154928726925,122.194581763193,4.02385817998697,72.5691980851742,107.256281437606,153.153897237205,144.495179211919,189.58084520361,210.793346046645,223.083698370095,264.823760139222,169.370136249473,177.79109304927,185.09060228489,76.6606477170374,52.3028760110879,62.6725588097446,1.63778171570638,-60.379073828395,-7.32504829227707,-36.4488845308322,-141.331206302387,-56.7958074184659,-143.042745811818,-193.830168878193,-167.16334367207,-89.453902180052,-273.142071309204
-105.582320382461,56.155405613478,23.5204451796378,-179.831102606103,-82.0337204983928,54.2434279020524,147.39269489502,151.902702613235,89.0866699631328,282.490719490869,306.433873628087,12.2837025013391,290.3354771634,624.96995309022,-59.7829450532592,407.031555401043,0,194.873062028337,801.647322153975,-39.688096149593,550.253975221193,-217.978942977942,252.847229024071,686.232949120322,46.8194128898192,290.925005278469,-56.8899241429459,160.886055823936,318.933618768899,43.8979238196892,189.755805413667,306.408537495272,345.360045594956,0,123.238745198789,218.042405093793,293.288337067685,345.833465857791,37.3651896490505,150.10769961131,233.658393617484,330.935032492376,233.546734662412,315.291293290909,385.783845860749,308.168720277375,191.897384890721,254.903115322737,156.226721414867,103.313637313476,179.418775723186,70.6290144372047,184.288409967314,111.973723120677,36.5851855975255,29.3979814991998,65.3272130173962,-51.0322255707419,41.3663091278803,-22.5532867946856,-58.3816563989227,-80.5393659243707,35.7456544380788,-139.933238494204
169.480194173052,415.638503326662,256.389984262381,197.625254593814,378.11311370336,218.776876056223,482.15770726489,663.044424458098,345.904694128479,747.960038205786,936.943386137273,173.426829770556,693.643083380533,1219.83202350349,88.032019907561,848.625837690245,0,497.456333878036,1378.69249990465,125.51705151732,987.366710946534,-170.559656238772,524.821653086378,1064.53038505871,167.433708764534,527.283145727974,-17.9384625582564,307.575888303132,518.434675014082,130.295349004131,339.191853169155,515.243203071234,605.411741759614,0,213.168906938279,370.267343399089,499.262473530612,587.688695618405,104.566854713153,262.237946536497,385.785603275295,534.163090891541,348.618080732218,465.480471516858,574.740798311638,382.912822896392,215.62554142499,356.842608262284,232.458991545007,149.540968337696,298.077714977101,200.70933688924,312.823067667798,257.0829787265,231.487701025525,216.885023792914,197.602132574519,181.719246315665,160.649779658178,152.61796502965,183.926974766796,178.316144924577,191.983000537735,128.685619340581
426.679759689772,779.043536280122,463.190463614715,545.708094079123,839.491533804445,355.176036941807,775.139230651232,1138.22131294061,558.326993089261,1143.44138316958,1505.93657661252,294.747782704153,1035.80531795609,1729.84753973259,229.67817860805,1188.51131898495,0,761.912297589185,1788.99692114302,307.619610473011,1315.24969498589,-95.3411803364346,721.560106452256,1315.93162554696,256.458074067773,685.455238603506,5.27442175686425,405.460158023699,635.66360890495,184.916736258286,432.572371893805,646.790275375003,761.869463914977,0,277.291891127841,468.389306058567,619.996780733675,719.066518230227,147.655247145135,344.021418885076,486.721508287426,660.004655753933,417.471506001181,559.478649412802,680.659531960655,394.076168507036,306.082637674036,393.58960418258,321.95807354479,244.419763669877,333.84428468518,292.348906181405,360.605082271443,301.877167922693,333.74617398446,354.191518295246,244.644790837003,322.905733752017,211.104415744165,231.53200452652,312.06987780093,355.664725111721,262.141680631571,300.886025286675
551.16697214906,996.520224474743,556.24721037704,704.658358051661,1099.78975689766,415.269545698821,907.547633202446,1377.76445169025,647.825118737027,1311.17368200394,1769.90605103956,343.747172315204,1194.70357949074,1945.28450550966,323.01113457492,1353.77113812023,0,938.742970269055,1956.11711462483,416.303765193009,1500.31164566982,-43.4150128947625,803.34194042114,1431.347523161,282.054520591965,735.022111598368,7.63253458308687,437.164241603869,689.540957543397,195.965299377106,454.88706760645,682.400736501467,787.933939020339,0,299.743610002569,489.893842530951,640.715870161723,727.843772164979,152.200776610235,365.73124802788,502.937194483532,673.951268896637,408.025932091113,564.473107159066,677.347171662806,379.442637750886,441.397276702714,395.209252038469,416.048731408251,361.100756524804,317.506176006001,338.434825135658,349.403090523009,280.672650937092,342.355597469578,391.874364722847,222.370400485313,327.759857278718,202.328477119487,222.32892875162,307.069712037153,360.981086082973,256.178887058841,322.386605790367
534.856157393275,1007.61977446466,536.316095490442,670.317900785131,1095.53758014222,405.873230667353,869.707628454407,1344.7050988628,638.557048016484,1261.92412577644,1687.57348018819,361.177079840226,1196.41368897416,1849.27423859799,405.162400855793,1410.45527339875,0,1057.38126222098,1964.38256040574,479.933350709672,1580.68423127742,13.3357304563364,846.246903881854,1450.97453360276,301.579572448756,732.257665606067,24.0580017615095,441.925718277311,714.466208748771,192.123721779457,442.409761426108,662.527963328467,744.982195242312,0,292.722093040167,461.593281069127,608.055150043263,670.394192836562,142.238415839379,341.44768173989,458.02789959112,610.509095567687,342.220108118361,500.937574719244,594.277180681227,386.311601393969,593.586579288083,427.461553304006,540.412093073053,511.265117348922,332.331849388098,425.361187846946,351.744576249169,308.908909065981,389.450979199425,442.471274745067,229.880517653543,348.908227221655,200.919307986666,241.022865638817,316.909728197568,346.952924061411,252.585024878348,329.957082938553
435.785977908631,867.455003799714,453.579172713858,535.488620423391,910.019805145507,349.688919596212,724.874898489452,1143.16016986805,567.099194212149,1077.10996623749,1387.44001119693,360.921619975233,1086.62641927417,1549.76066201141,508.129553086366,1392.22871823041,0,1140.34615965167,1845.97704462946,600.143512791393,1566.57470810011,133.564852312903,923.411497629346,1356.13179701239,369.136393033581,729.813820720139,72.9620744324507,446.294266574913,681.084184619721,191.896947647159,414.248312420395,595.263767755077,657.566695747266,0,263.940075860646,404.298516868032,535.082646197428,561.201435337191,129.91551823771,290.853227651976,388.892086598351,504.791150856206,258.731800294243,400.92497908423,466.864759179186,378.542363414883,670.797346141348,450.591568718883,607.780678973759,610.095336440308,351.326046750758,503.677668932675,364.038611545808,363.70570167309,462.851784966269,510.698387959644,273.361540648242,421.608984697911,215.174301012146,301.888667335365,378.700071987369,395.041233418768,267.622781184925,387.57993161937
355.320207704747,741.828541429045,389.270831043601,426.293643568817,746.72517454051,302.583584492419,599.214000141592,966.446005414801,483.17037349169,888.109670763552,1116.83002595475,335.312319664762,931.852154226041,1247.84338545811,586.805027964722,1295.33262451682,0,1161.55109211138,1627.29863418994,760.472639897085,1468.50935515914,298.119388862125,1009.03564874424,1178.26053235543,469.571309562436,745.115949054963,152.0229811179,467.738018044625,611.103816090195,216.344098834873,400.993527398947,516.018553427239,559.887955203492,0,252.958791370591,362.087083430355,456.000762071778,445.477521710805,139.18322561096,259.657764339182,341.432523166433,414.098039751938,211.275146204105,323.557401229485,361.6725247748,341.791693005107,637.566887526302,423.734617768906,563.596046383494,598.156895197463,332.881512160055,497.177331854313,362.434572185405,370.855663817706,478.298653482883,526.161969515667,300.75608452347,457.945907003976,223.1595625386,341.223897943552,422.088610373137,437.495578473366,280.873984631124,440.112572667534
341.342466250225,712.687729447388,372.076257789844,392.374632468505,710.991287376214,293.221995402953,550.782071075675,902.797478707287,420.470175207163,775.391847589741,1009.36196179888,285.464321847404,785.08724695165,1069.61633377243,563.097871110389,1106.82899577619,0,1054.30528538922,1376.56864048567,817.611793954539,1293.64932273041,425.73470108514,998.922245110402,1010.06478210868,542.706902738979,746.091905497239,240.950674919692,501.916136641776,578.301010579041,271.794473624614,426.960407009383,486.777748125997,518.913908809199,0,293.188852803652,373.104933540561,425.881717022653,398.312214958877,186.826503917168,279.981532879099,339.647789079321,387.905035575074,217.829411186754,305.493611635574,322.881060145618,309.492050333756,557.226790122171,380.075057685765,491.6264342985,536.934367840814,308.806741923942,454.940061265733,358.679278076052,346.492016064206,456.497205998809,502.822263938079,307.093537650159,443.234572797681,225.610657028189,341.98938901262,420.928197346731,434.583305461633,286.791890899357,447.810358117882
321.090601129422,658.965640128581,336.320599026536,360.643741647291,674.905496697676,268.727275768149,491.418584624042,828.290389432667,346.595749845181,664.880216693862,922.18539121554,216.314159085055,620.124656352848,912.544498412897,453.237350271532,835.558674047345,0,818.469888325029,1092.02358410953,713.281343351691,1032.45263574663,468.002157300867,832.573812505726,847.711951976648,533.34346940042,668.16716659649,291.978015443126,491.993444062229,559.461451845164,304.975874264721,438.429914382292,477.899282565816,511.03239314535,0,327.457773021466,386.122118113684,414.547128423698,390.69918559533,221.98523917149,296.849591399269,342.645494094968,383.266582655051,219.551451103957,297.711271674089,301.883702844643,265.876551630199,458.223231427184,326.47326709558,432.45009550614,461.653449864358,279.823415450535,413.15719706682,333.580455838779,310.953264417306,425.507619705006,459.45785769943,288.319208865618,402.929733131185,208.544255116856,306.98932882395,373.731626121015,390.574896415218,260.124376932289,398.220363666719
235.844883974603,508.931398331282,245.223852099455,268.959559535527,532.465709361649,192.442200379649,359.776044381567,652.377087977795,231.749499669727,478.387192152976,706.172234007476,140.600495280302,415.743524363234,652.778881924125,353.142250825341,555.52735105068,0,568.433198235118,745.998043303746,537.966589639662,726.480928763378,430.643160109733,577.84896835081,630.14031492464,435.186079372476,503.297699297684,272.543154387435,400.093189906081,474.803815769554,263.876666739101,375.127401838156,412.875252663256,450.620874299644,0,287.633286095697,330.41400259009,354.692917463475,340.533879518834,191.575241757558,249.626187919486,302.316815053377,331.07420280559,170.797162040436,247.82387642715,246.11397967794,187.118770318656,329.248283042637,239.886790873661,333.810715022577,346.804391812679,210.015199281034,329.382910922518,263.559509008344,242.136266860848,351.213958499998,367.271428536465,225.767451329669,327.034159141743,158.125735986591,237.030793573462,284.09221966159,305.971326001821,190.285100124801,301.109886266075
122.333463186384,389.148760809624,145.731251175919,120.210219702918,360.114944086112,107.896914282654,214.246631083551,464.10030327729,106.137917643266,256.515683460825,418.738828999264,74.6599467224,216.822117709502,337.184959285606,293.73952130318,332.302459552012,0,394.17057159897,406.499949062091,385.747226798192,458.546038675601,342.629455327266,353.863838929479,374.687254052575,299.520033700645,314.387847242983,204.277121704512,265.26152385223,323.737177163262,167.388908374124,260.14806707969,287.705054710478,325.929782322299,0,196.793589591926,218.885599720413,244.098943463041,238.371630632962,118.865660069806,157.900043611338,217.448877935706,228.944792733858,91.212795014673,165.168996443423,167.592243022566,115.108622166749,215.478269487359,147.469054430657,210.450245189809,227.622040503991,120.396444263029,212.191513781557,194.136681289344,151.529808875661,240.983035579734,249.406911358515,144.484580772432,228.07850271845,99.3920729568809,160.611216375126,196.258452984398,208.528086009087,124.596842318151,210.130398404455
11.1978875609996,380.076217203761,70.578222211502,-89.6608624890124,218.554464054889,59.7997052435804,97.3337663066938,331.789477877728,4.23354082268919,43.1438456873785,141.870077301441,26.349286327245,56.9429765049566,37.1340101232936,230.736827138961,144.86234708445,0,266.029126804751,145.580417046852,269.232569173796,241.737598072514,238.573122956308,193.623901508255,120.149975806511,178.630567511498,136.638668286222,124.216476083669,130.690025753227,145.772218173527,54.6443345149277,131.335647499001,132.730990429992,170.49309955708,0,98.5996489879375,91.3861442626794,102.952431709851,103.940867815858,40.5465536737934,50.1498554389065,96.1106912211268,96.0045264801952,-2.30899989009396,65.063992733137,78.4288017091348,81.2282458947371,166.488741901443,87.0516471770397,135.747780425082,170.761882036158,51.0711959487575,124.518718313846,174.677579141274,73.6182600695227,151.729580166084,172.528387492748,80.3603614356143,147.880469941367,55.6961335234994,100.11241302694,142.984288036266,136.646694115793,93.9985195717431,160.796099484152
-105.126703339986,376.245033979867,5.774533992425,-331.835660061239,65.0971310467899,37.6257439398286,-16.320691448486,207.888239409689,-77.5171927573166,-169.070337479216,-128.166526000868,-3.89629737107648,-77.5585822159079,-247.940772150016,148.427042532594,-47.8404634637768,0,120.05247884409,-68.1952009349939,157.649583720211,23.339212182112,141.256162644279,41.2043953397287,-133.140876376635,71.169674692394,-45.044127110865,39.3415485608366,-7.20184174519847,-48.2571423248187,-64.0585373965114,-17.8159455391892,-43.8767825579938,-11.0464739836589,0,-9.25222660359482,-51.1442169906701,-64.8888836349151,-60.3615157424906,-47.9378974270336,-77.6907145442611,-58.132940154013,-63.7632502451942,-111.821734925142,-51.9059850214544,-30.1060952093588,47.8773945162098,156.540531468918,41.9970675451741,112.091504816012,171.351666044599,-4.98275281751944,82.6991312283966,184.407394714413,11.051809461292,105.421268058544,154.245438532743,26.8516879132538,104.979499897261,20.5000102550949,48.1505352536734,106.658441591308,100.313736468752,71.1071968237411,132.805503015315
-215.857704316844,257.088742765116,-67.06274270957,-507.857391723864,-118.19193256723,0.850779702135387,-140.214134501018,60.2474152557165,-160.706216846007,-359.349224619226,-371.04017386278,-35.674961413412,-206.79381575169,-491.850056474158,62.0489255039383,-235.579456780848,0,-55.7144276197276,-278.831444418154,28.4480219831414,-204.839305990391,57.2752079454202,-134.94700982215,-356.359342190366,-46.1958344907431,-222.505163724307,-53.2044797983302,-147.552685807124,-236.526963223709,-177.936511098815,-181.516930941653,-224.24579136615,-211.497304517597,0,-128.119276591051,-205.597412677209,-238.499488821306,-233.41057470869,-147.149846479951,-210.083338352714,-219.644853032763,-229.697807089872,-222.473660883508,-174.490232964013,-151.675845494562,-23.2305771971042,125.393786680633,-26.07511798392,76.1871762045937,168.237190000872,-68.8569257708494,49.1573054925155,168.846097529826,-54.4416027280049,69.3448758327349,152.600774154069,-36.7013618070242,77.684136151189,-21.9192480314487,-8.60431696006403,57.1045322138563,79.7124139313892,22.8556060322506,89.3827905523251
-301.162627786717,37.1265527914445,-157.808906041162,-569.370897166839,-289.704835214005,-75.6994864893126,-257.207669072445,-78.5891330311461,-253.345913827533,-485.624947950235,-535.001069352985,-106.201521346747,-336.31267423262,-642.404183575561,-39.3833976879282,-389.445352320887,0,-240.273390992504,-462.992511456751,-117.011683860564,-399.671576727159,-14.6603488528348,-304.605237303855,-504.855584410864,-164.068266136913,-360.342454544982,-136.138358351979,-264.254388098642,-375.262044060297,-266.108640097367,-315.686694945252,-373.670653443715,-387.964155883488,0,-234.266943832253,-337.159666141529,-382.632643855244,-378.775023600728,-231.675019058113,-313.443616780076,-351.347848529326,-367.283936984723,-315.894892802073,-287.787967850558,-270.376776470523,-113.046911632868,40.296462041605,-120.463892386776,-10.772802087867,108.845026782292,-138.591524034513,-19.245654341516,100.265559764345,-134.405101468403,-4.65300892827044,106.900889783934,-109.906316759973,17.4418683402065,-77.9193886935043,-79.0698145991505,-23.4520124439048,30.8132185520464,-56.0828338099805,6.59301183611011
-369.457216020143,-176.304909663588,-258.17079409354,-580.848375292672,-417.773605018736,-176.143514097774,-353.747480603258,-182.637724074754,-345.684604287439,-557.802913602625,-630.987894460917,-224.318980754796,-459.755344903417,-718.531089542542,-174.16755611556,-511.663225615871,0,-421.39705405339,-600.39215547008,-269.394649049216,-556.067545741248,-91.2947644171978,-450.142529160155,-608.710192024093,-262.878118579587,-458.557783398198,-193.398922681577,-348.444070196481,-456.626152425089,-324.583589850436,-393.711576005496,-471.491825551047,-498.778939306144,0,-308.459548296476,-416.627720104105,-474.870589719584,-473.332821291317,-284.792402208219,-377.899018747178,-429.464101719749,-454.661276986822,-382.346811572918,-374.235519640659,-363.492563309039,-177.375190981049,-77.7385342092216,-203.448642763137,-125.438688301349,-9.37031252403824,-200.783816009777,-129.63173564219,1.86678621225517,-219.658015571956,-121.559974177916,-8.85868312363273,-179.052132998703,-95.4300805477434,-139.506233187126,-160.09517811987,-128.967314728729,-75.1559811285755,-148.510702317307,-107.927120037344
-422.116940273027,-295.951947134672,-322.219926304132,-593.770008071742,-492.419908869982,-249.979049516924,-411.649220364544,-245.859222750448,-416.830798487548,-605.535253406216,-699.679005233824,-338.405566420263,-551.230150104821,-769.565661466441,-310.576728062858,-613.693138695348,0,-576.521641628888,-705.667529079058,-407.264960389351,-691.37989637884,-178.011645900387,-571.385597425467,-712.063758221617,-334.027988094805,-530.158635847959,-218.963213227157,-399.602904205001,-498.663473830276,-347.363392863342,-417.799356023335,-508.913104283201,-537.472946436136,0,-333.733159012907,-435.976657230683,-503.061550452894,-502.993829419009,-297.287037657388,-396.139769056,-445.533394771835,-478.524781363761,-399.351106727779,-400.74379183987,-395.937752996958,-192.295466479944,-165.255337856307,-231.267374678996,-208.781244040597,-125.430435599896,-234.821278833826,-225.267992339835,-62.6554415855876,-269.04189474597,-215.307646591534,-135.765971133052,-219.989153770382,-198.565217506987,-180.91190085469,-216.37276444303,-210.859352172072,-188.498058550207,-211.897090614244,-197.237888243027
-433.423625480343,-328.22289449984,-319.798875908172,-583.258341268361,-521.298080833817,-269.76571191408,-420.14575860617,-272.120573643474,-455.20682028494,-628.414595560798,-749.974588425262,-402.440369424237,-601.168473613256,-805.894183388443,-404.796366621457,-709.778303772697,0,-685.041662561095,-808.779825136719,-509.765897419466,-802.384770128892,-252.760513785701,-654.20002781527,-795.080053443951,-375.097315180203,-568.819785443379,-216.651731444429,-416.207007642871,-511.119022397433,-329.189601341873,-404.462932528567,-503.189500626515,-540.288069215678,0,-312.524691582453,-414.75512291335,-487.048246881495,-490.964344756239,-270.009882195381,-364.975164457427,-424.719670580361,-460.264095707455,-363.519376818836,-371.759712262953,-384.361947730212,-176.13166851611,-202.306294241451,-212.241599182245,-239.124702528956,-188.447819669862,-231.897156354295,-253.359176209044,-64.1990760610942,-256.700748030275,-230.791762260731,-195.351583147887,-217.263533527658,-223.176315335878,-181.778024327653,-216.091059403816,-224.957751367354,-233.415756815708,-217.508113506487,-215.566682764851
-411.756610689894,-354.104818504952,-302.651543658119,-548.208762258178,-546.888964696977,-277.360383590231,-419.115584567289,-297.682198638769,-489.068049010776,-644.033327171908,-801.320584564542,-450.67423793955,-663.228480161651,-852.594185671008,-479.088150840779,-847.174103118761,0,-786.373411920133,-972.819687863179,-595.584614592042,-920.941791932492,-311.808365879141,-717.317056736099,-866.73006155811,-409.328691388402,-599.860523201879,-218.23394470953,-431.079964617699,-526.062669046155,-308.97767160813,-398.088842952355,-510.973192217634,-566.82545678215,0,-297.847021416744,-410.023732314999,-491.172731712834,-512.234909562999,-241.121106788673,-332.866003819124,-421.992042840635,-471.690069428251,-326.338087191967,-360.808325972533,-409.605185772353,-177.842013954466,-249.040798895835,-208.155586030663,-265.59382460857,-238.402330613443,-226.138021454864,-256.907516460964,-57.648041547603,-229.039056208663,-212.068876810747,-211.057241020287,-200.808138419394,-204.2749370806,-165.144636151726,-192.760354803957,-206.220259681521,-233.278181052887,-202.866209101854,-206.589941700702
-388.188806004553,-402.599348627734,-316.484831309991,-516.36884651605,-580.753189231403,-305.746263694362,-442.848370979635,-330.464336967173,-538.726518970715,-678.190612558145,-860.956719199258,-512.27003693584,-768.452028790326,-931.301184955591,-553.651583350826,-1024.45353783643,0,-898.533596013291,-1205.94005604867,-660.250293381104,-1067.39034344203,-348.227703161594,-777.152541557689,-963.352022859512,-439.349428206114,-642.584906591408,-231.243908607653,-456.203326846924,-562.345315641689,-306.84696592285,-414.724413506541,-544.222997746027,-618.701109275449,0,-310.14385894894,-436.149742589073,-530.985935052538,-581.29436646145,-229.592015660572,-335.348710283244,-447.978445801581,-531.995042361589,-322.961713677872,-403.144900943016,-487.343886083338,-209.708448248247,-335.061918022124,-241.003735861363,-320.577987112302,-327.519822078019,-240.758265299682,-298.460947606273,-81.3300666680763,-232.190395849741,-226.492718850383,-257.153737438198,-199.829960950009,-216.722637619494,-159.581823345189,-193.876770877236,-215.191689773031,-265.741158192283,-207.473420242353,-230.38068722176
-369.404144126811,-426.168072432387,-336.557405239207,-485.285756685527,-578.534279521558,-332.681278778533,-473.472655669183,-328.079878870623,-583.688349909006,-718.599251410068,-889.155299546531,-551.406908849277,-867.154154283663,-1002.19153821876,-590.485315570309,-1150.16634447674,0,-954.62712179766,-1392.25407975891,-650.562520692744,-1173.67010053312,-335.023040104451,-791.286930903493,-1041.90478377364,-424.875601856619,-655.116052406339,-220.554860429258,-449.931419767757,-581.899554074729,-288.273129543646,-415.490808321882,-551.193980992914,-636.759029434048,0,-303.750927284051,-439.921351715102,-546.76721921169,-620.370130571262,-213.377241932585,-339.375769853505,-461.894895767873,-572.566807897407,-335.415587035828,-450.716874377539,-546.886137161509,-246.175860005628,-422.051572487962,-280.557664408149,-379.66839023544,-437.063731481402,-260.433549891818,-370.683138721108,-108.613543981055,-253.382471821491,-277.210919542639,-343.318687570925,-207.87805107518,-274.139413807304,-165.21268221954,-216.431010531994,-254.982847736155,-340.369851033807,-223.581902169488,-275.155883793212
-364.594454827965,-417.204525809966,-355.762029085304,-457.205603799679,-537.024027537913,-356.42138552946,-502.82943702814,-301.091237815623,-618.244422211288,-752.074524432231,-879.967472594549,-560.911074167391,-924.755828515667,-1031.29600669052,-584.566566796918,-1171.21779493921,0,-927.661695797192,-1429.11361317372,-575.446212410491,-1177.9929794222,-289.464543494335,-738.325463414908,-1032.60513482797,-367.968343427062,-612.860408035443,-184.334628776339,-403.633369672448,-555.564274856273,-249.304323375599,-385.305177326502,-514.923437429124,-605.933744919683,0,-269.504824004615,-405.065326585062,-512.427530703703,-591.788588767332,-193.830637856567,-321.220095683338,-445.328784228244,-553.180637515986,-341.581209594792,-461.459303481859,-551.120844104691,-281.577287340061,-480.553920020724,-313.983169861635,-424.118034915384,-519.28437563578,-286.082899868283,-436.396560183825,-136.32243664558,-279.970703190825,-333.267546853061,-420.593390600109,-228.005060780519,-338.743194654332,-185.842981130003,-241.644787244005,-293.168103198596,-403.079872165658,-247.979579771334,-301.321700541179
-379.853748188937,-423.491609012124,-391.571139553896,-445.776470323736,-510.624857418816,-396.305954244369,-541.551767769526,-307.018641957216,-650.490653925335,-778.573811441588,-876.497515498594,-576.310876256111,-951.951832296351,-1031.57631425949,-576.254196389593,-1122.07652566038,0,-871.875014509294,-1331.70859665773,-506.486096525014,-1096.62660931903,-247.323084512071,-655.894245632811,-934.184822058362,-309.453327827971,-540.998757622663,-145.076419935825,-347.31776965959,-492.860247217861,-208.098622970053,-340.17827437487,-456.22148830641,-555.229409938185,0,-233.548757512405,-357.471724700407,-454.150833746461,-526.75689298294,-171.382404179997,-287.397945477544,-407.025757843972,-496.957929874682,-321.080289967071,-429.842726562803,-516.786604389894,-309.673756084469,-499.747983492947,-338.249880378744,-446.36791908477,-536.721850789819,-318.950685342339,-462.574985372715,-179.647836402313,-310.630298090105,-362.432431295132,-436.677163970945,-263.301831970911,-361.107940067147,-217.476351362017,-261.268118318156,-305.031911351386,-403.436555151949,-281.12462834037,-295.567926961665
-407.645319974072,-476.681234711567,-436.898027959132,-458.257810796754,-539.915064402194,-450.782888476303,-590.992681925964,-360.147870772076,-683.098676098798,-804.420990248672,-904.085718990518,-614.494999063971,-965.698324507383,-1031.86715889226,-586.875449143871,-1059.19887001324,0,-831.935013049022,-1187.82830352002,-476.46546440253,-986.860335256336,-209.55133483036,-589.433344999356,-806.566606547393,-264.052969066159,-472.385184090945,-105.670928482353,-299.631440626403,-420.301435459856,-161.736558330744,-290.919060937595,-392.207462924325,-496.70351193322,0,-196.518700333975,-307.674290105306,-396.263432697289,-459.78562680873,-129.29154215336,-241.594151972367,-358.667045632242,-438.313893731602,-272.33578408857,-377.212246824399,-474.830479947765,-325.493316120857,-504.863217961427,-363.261149050283,-461.57623721869,-519.054934289341,-351.513615824309,-469.824603955778,-230.323819774042,-348.203760911841,-379.222141970387,-419.010896147226,-305.665504863013,-359.539130890093,-249.919646618974,-292.574271146525,-319.545231370262,-378.975200135818,-321.18321175397,-302.702612262955
-455.255319131572,-563.583332425027,-488.44736325115,-501.665978857175,-614.034282503377,-514.498040803829,-651.828200177372,-434.270153483904,-731.052471312229,-846.128185344298,-945.02066244532,-670.383531260004,-990.021689269511,-1047.1907216391,-615.68603649487,-1016.50990480317,0,-811.274856016329,-1075.63360632429,-466.136838069336,-898.351480077941,-177.272889601788,-562.13488070189,-712.604063532177,-235.951883904225,-434.741880357976,-74.4252187222168,-274.978429814647,-373.108965349837,-126.324949832295,-256.527877752254,-346.781299274546,-441.495499238005,0,-164.381420100589,-270.325503171116,-357.715741163278,-414.237202240445,-91.6071461224815,-204.558776396481,-318.530868210637,-400.307090192579,-239.272655489151,-346.224263814846,-456.498668449531,-362.222141451351,-576.75804713026,-429.50342586926,-535.817390582828,-583.550424650026,-406.745798050165,-549.894950473021,-292.048129025456,-421.645942236268,-461.89172950733,-486.973942176757,-369.750562099636,-435.981050504898,-301.458857132143,-373.970559331315,-409.631203998077,-448.512691525289,-389.534636425467,-397.381729944812
-503.228788617482,-623.298685111104,-530.632034337484,-536.094768312908,-661.809058697238,-560.57014916606,-692.00168233647,-480.424562266988,-770.424336889669,-870.551903702726,-932.155053442954,-705.373704807526,-1008.50933734116,-1028.677685233,-625.91397845783,-965.904678056197,0,-774.296431647556,-984.932990192142,-438.095793849369,-817.686713083477,-153.0203649089,-547.211681551131,-651.431491080508,-220.432871313758,-417.760323742082,-59.6432544174453,-266.322413839016,-351.841068989422,-116.672640260091,-243.069746236431,-322.266009822876,-399.042859666672,0,-154.392045161898,-256.269850757132,-336.444644432304,-385.051821199912,-86.778920341756,-194.913963720345,-289.841644073208,-374.422313965428,-244.834514933262,-343.376311834594,-454.970610867084,-424.285856850696,-733.363389804263,-523.720383881543,-684.196984607999,-769.429749059173,-479.944810354641,-714.951107814471,-361.11578281601,-520.509395187138,-615.525700387447,-669.798409044494,-447.840063606259,-603.97421880127,-364.16238612596,-480.272923259777,-559.268999967214,-623.412649835398,-472.870206112821,-551.556354556249
-476.185734620757,-583.834033029181,-504.128410633065,-473.193703239248,-596.907960333217,-527.652926247502,-640.033218848851,-432.709969483826,-714.860722732652,-785.964770561614,-789.931444542494,-651.653710288967,-934.642610182042,-886.373781876121,-550.476634363474,-834.391431313538,0,-662.513732715951,-828.962319571242,-356.417733103183,-680.366137357403,-110.893004917125,-477.0096762533,-561.280475965973,-179.341934775978,-361.883338402119,-38.5905523272362,-230.987907893502,-306.012626425027,-97.3647772811356,-214.305461111496,-276.91522481324,-340.203032568213,0,-146.675323991895,-232.206717262495,-292.056787260988,-331.734428328081,-81.9354339211657,-182.470315095327,-250.549959101043,-324.7735260498,-242.749468701898,-323.860512274894,-426.438181584268,-439.277297900072,-852.070650186036,-548.593391796815,-786.471849219939,-922.283284946832,-491.773913024872,-818.412485987552,-382.920527130172,-550.062902187006,-699.742013250967,-803.323081152877,-465.559818760585,-706.735756448008,-366.126544243395,-508.880907748363,-628.554896412872,-732.416270793208,-489.74340792616,-618.588631171443
-356.258407576159,-455.5972986724,-395.372180034957,-308.851609631242,-429.098257342738,-413.915438404916,-495.174634494882,-293.411589919127,-551.716835884608,-587.805327554903,-548.756324461844,-511.254767094973,-742.548490458883,-637.124426111484,-400.458334995401,-625.986750335626,0,-485.142345587855,-591.324437644595,-235.725839629184,-488.622346413044,-45.4038173987422,-344.332944959934,-426.204544949482,-102.094563189624,-251.892739071488,-0.0446868465662376,-160.602958942359,-219.461302079456,-49.1959421156208,-153.449353129725,-197.50740262272,-249.012658955676,0,-115.406203578884,-173.562723636318,-211.673529681467,-246.273763639425,-47.6826459657024,-138.960223484994,-197.455704392568,-250.003578298541,-202.430331535823,-275.326198734649,-367.410977865878,-365.213252065976,-819.146088156772,-458.851450664815,-728.636144175065,-887.022539348776,-400.448258517828,-749.230413760694,-323.900251510789,-461.113731801312,-620.171483832324,-749.206345811523,-384.75525850428,-635.219992231318,-281.125517730723,-423.748313598801,-546.842738293902,-658.882762751763,-408.655787625002,-534.231301739392
-237.789934293471,-336.993223957311,-288.909202011082,-161.218981911224,-275.070888615477,-316.246668117334,-364.167273423392,-165.267024973678,-404.446327982166,-412.690124948856,-354.410969307088,-388.279408322724,-550.918384969968,-436.935614725367,-290.862449635224,-458.385857720102,0,-350.489598482101,-394.603284075832,-155.910737793092,-342.071843049171,-5.10420503670074,-238.017785849575,-321.437025873965,-50.1615544335028,-163.325422683386,18.8321995593072,-110.419606329195,-151.644890269825,-17.6963355015704,-108.424797320654,-139.343518185117,-179.556955220222,0,-87.0616698470953,-122.630980356906,-150.990660768532,-183.557563872328,-22.8321603200979,-97.3940004037903,-159.125561186143,-199.203391704747,-166.500057266246,-239.733704393288,-323.705114282474,-261.692172723621,-675.289873864582,-328.522285355946,-561.851330116178,-717.728352089039,-277.020787967776,-585.050159988744,-237.76476661466,-336.21694337123,-467.788607314069,-589.221870477037,-276.475365931622,-486.759538752683,-186.182584448034,-310.035697530231,-414.924901021134,-504.478564637248,-308.125590700895,-404.804566631893
-178.964200270012,-279.335307923392,-242.286008647276,-93.0301764815495,-198.756011615157,-287.941442342812,-308.799908086889,-112.348934071807,-350.629254031514,-346.267152011688,-286.015118690925,-340.611352324377,-458.860056605543,-378.458579806824,-276.500295018959,-401.148039637069,0,-317.886568482124,-338.458458890773,-154.862279298067,-293.184034007623,-15.3405687963266,-208.231068297074,-293.684997423663,-58.2589484249502,-143.616577957564,0.326162923655995,-105.069046047864,-134.86749972496,-25.3200602516685,-106.925172270691,-130.735824084168,-165.120287382594,0,-86.8974996619761,-114.154126465881,-139.151103301603,-166.917057912021,-36.0806177975603,-88.5896156180568,-141.082854963529,-186.368932522154,-160.373144855507,-226.799077153855,-299.004560219172,-195.015739232847,-535.840801909442,-235.198316364212,-417.142691099834,-565.094583916651,-195.644077723026,-449.289661359428,-181.640631801987,-251.491776847586,-353.991898341284,-462.143609087415,-204.107486577956,-379.461597668178,-132.753192261529,-227.074664948508,-321.632663708178,-394.460751482624,-241.159303959473,-313.693020268324
-116.260111209418,-224.282399824706,-198.392930574543,-23.8331390056673,-128.512156015384,-256.669414072819,-260.347124105532,-77.8978234430853,-306.547922652076,-302.049456033233,-252.538604651905,-294.318026868454,-401.627809003471,-369.494723356629,-267.937076291179,-372.321170061608,0,-300.137762069989,-360.234355203846,-158.549210990148,-274.996640372453,-26.790295031583,-188.976873643008,-287.66673658466,-66.776908363122,-135.828321663866,-11.1047748157706,-95.7566140820765,-119.912249677844,-24.8616655241923,-101.753368696778,-120.094556455863,-149.298267926647,0,-84.4706486902716,-108.984007672877,-124.340492219585,-142.138192640237,-45.4397618983481,-82.7968292248084,-109.768344623284,-161.048425355647,-142.228231402388,-197.788145820385,-247.346240264526,-168.313630730199,-452.306172629472,-184.723465031171,-341.190563440384,-472.426383329274,-146.298490582904,-349.965383857416,-142.546691778567,-178.290246460347,-261.944525919028,-363.911631566734,-140.253376737317,-278.957422856928,-79.6552111775966,-137.000552563039,-217.499001366232,-293.63165530844,-164.24071071097,-202.313187688357
4.32335045862727,-114.628168143815,-92.3110353787777,110.216496571151,5.64383262325489,-156.254891711221,-148.968544267948,-2.9233811592228,-184.717170142553,-185.777798955924,-155.418753382061,-172.728505338571,-277.070660197925,-300.042069394887,-173.273578016075,-277.197689211015,0,-202.189782860842,-354.767107400739,-84.5132682622685,-227.572340100254,19.8031819160563,-116.858570217953,-260.869295571595,-18.119234725823,-86.2920915869148,24.1677653390236,-47.7129233535544,-76.4501038045967,17.1665636806188,-55.9742505471657,-75.5443355816923,-96.0724567650064,0,-50.9645535184251,-66.8865975207152,-75.0017523733954,-83.8599742336517,-11.6048293143522,-47.363948156548,-57.5536165090065,-106.153183708914,-93.8646009552383,-145.48257310339,-174.535292727453,-167.681023230014,-402.583943343094,-163.239493962211,-297.649389714096,-394.128483370888,-102.04602055022,-248.191982792417,-102.839510720902,-90.9156687567201,-152.024858306708,-239.677083571055,-61.1387243472492,-132.924163465921,-5.66244723278806,-22.1542124634252,-63.8739035955636,-138.837689883811,-56.6622518460754,-30.0615545682299
110.709022506167,-5.61900786551796,17.891727916403,221.840887381164,127.71614396469,-50.0659979561878,-40.9717562926142,43.7203214799277,-55.0145826458238,-78.3530855935155,-75.6974300257121,-34.5542226408155,-140.507732051755,-238.040482501455,-41.3975098374391,-179.410736190951,0,-89.939200334071,-361.764489626247,26.8526410083173,-215.481089151777,107.76473523866,-56.2314943016623,-286.410310294015,43.7640021047428,-54.9062068087174,78.1055940859286,-10.1728476892664,-67.2285582879217,55.4209321878632,-18.7567671088614,-60.122759817843,-82.6942053055701,0,-20.3376904557408,-33.7168271509696,-56.8045566079901,-70.3644169961636,32.2035657919403,-16.3705627058369,-42.0836253477883,-92.3654003982217,-73.406069194423,-125.117385184534,-161.375038667427,-198.763350401488,-366.013242288004,-181.77751797374,-273.344344258392,-327.672304499919,-95.1062389427984,-178.429785778543,-105.351371398512,-53.1357087468806,-86.533893964402,-147.114760706683,-25.2119492610507,-30.6980278245994,24.306676502111,37.488670941905,34.0319967275015,-17.8457313321368,3.02115692567939,89.4979365060269
102.698490036802,0.778091207208192,18.2737220147337,186.632529902376,101.682656904653,-37.9431192811743,-61.2947544046817,-64.9917861260395,-43.1787787042798,-133.166761011929,-175.071930643,3.39248784169155,-145.848177054399,-339.053686695859,10.8114942720282,-225.327085790692,0,-107.20022927381,-500.536627984163,59.455327121682,-338.561748739681,168.877930419011,-116.063489318131,-435.119761874696,40.4319913242249,-127.138059725333,99.8502317189843,-46.895059796959,-148.34435827586,38.0082126811436,-53.2663262077793,-134.87149265503,-179.638203385096,0,-38.3292425740067,-76.2094732801498,-132.005240310149,-168.259666435486,34.4211878612007,-42.4945268411088,-105.759286234747,-175.102990497712,-123.432324811292,-179.281495214492,-247.683382807436,-256.415245449133,-351.329292310915,-243.224588130411,-287.717806399378,-312.60372546714,-158.433768194504,-195.258697592156,-183.622709521803,-116.355410890672,-139.594694256419,-178.933034564596,-79.912727222392,-82.4680722680919,-33.1378929129219,-23.3369071954918,-30.8193333524801,-59.3639173309456,-48.7183357334634,34.3440296932414
-7.76330356617372,-104.980811106066,-98.8578292781254,14.1166111302974,-83.7720861510205,-110.558749085186,-218.173924368551,-336.96964265687,-147.921418849384,-352.693029263364,-466.662681008747,-60.1747137047181,-322.033655892994,-617.955780319504,-35.6632942593739,-422.760996866045,0,-259.366977899682,-757.43354331825,-17.3971140432835,-563.984209373098,175.608069727861,-273.818492479671,-630.998597322315,-22.2047583964177,-266.608353211946,88.8532410069209,-133.918771920908,-263.434144571996,-7.3463037132347,-135.713958276475,-251.125086070144,-321.127788269192,0,-88.3258615214672,-165.400701365916,-249.73334604607,-311.161047763696,2.56333654348916,-108.778772576044,-202.882560546058,-298.59441632765,-199.645364885161,-271.974978292331,-367.064613734737,-313.84872761729,-372.473671631927,-315.677583699065,-338.522705498365,-351.572404839875,-247.789218920036,-274.346517952661,-286.126140375607,-221.221223337102,-264.579637437652,-303.340463792565,-170.641583650014,-238.387051516199,-119.723243187924,-143.924686766911,-192.916275536407,-226.698295511375,-153.247359230664,-140.779077696131
-144.880880770418,-245.811065627204,-244.772329649006,-192.07287443633,-319.277292255339,-196.147720419287,-409.596027908344,-645.029933489271,-275.855124495738,-601.499412770651,-809.81131172557,-134.591060429617,-543.894296587947,-936.609653284734,-110.688740525053,-632.807392022122,0,-424.195935105699,-995.781848883631,-132.373035787277,-762.605266495829,139.663332110952,-410.476204283467,-762.335990894078,-86.4360201007161,-375.029697557805,65.8221598816623,-207.878171205144,-339.69313879159,-39.32649429888,-206.615541653458,-332.190398722449,-410.240246174904,0,-134.177354899691,-231.419878013142,-332.701365283902,-399.855912899271,-33.4266959150262,-166.958674802692,-273.737852231086,-381.3171761045,-247.024804291533,-344.603940744857,-446.415826311526,-364.391545770467,-452.609736634795,-380.866244036955,-428.820594471244,-438.043472925924,-314.663512208132,-371.58136995984,-356.766874316543,-297.496716643921,-376.195677382714,-432.610458781956,-236.475393053379,-376.778953786278,-179.742483890917,-237.694066779008,-323.533766037434,-386.474080841734,-227.803308643616,-300.498538432375
-250.008470763343,-334.039359021727,-341.960620737628,-340.251411411211,-483.868453695555,-256.451585921856,-538.819383540704,-844.134350087624,-360.400638590409,-757.075524948329,-1037.52953429763,-174.841088427969,-684.518612020016,-1135.70124229857,-172.692866574816,-752.450710880205,0,-529.030451028768,-1123.57886038176,-221.483810511859,-871.861598517645,75.6060785164825,-474.688423795865,-824.750527186243,-126.582092930403,-424.591302919646,36.2029386567442,-250.047295935352,-387.164805501709,-62.666532964383,-247.147481709893,-372.136199100103,-437.624916536129,0,-166.804431709879,-261.462269791518,-370.820543160574,-422.21497829548,-61.8582519986234,-200.015938266967,-308.062924200555,-411.144469377064,-255.88776349517,-375.98422666841,-473.509275798309,-409.818050887082,-591.081367533345,-443.367348529055,-557.261065941746,-571.77059426995,-365.02490200421,-477.957406797488,-399.89264600091,-350.915519287377,-458.686654379586,-540.696652886958,-283.520524970017,-459.989473047265,-226.405548069353,-298.270467268843,-394.84435883542,-480.814897589224,-267.678421375839,-397.977438638225
-278.326771523935,-311.452885422965,-366.570780151587,-374.104891222533,-503.544491375142,-282.697527334028,-564.511981720028,-869.774965661628,-382.940241615012,-773.061080353306,-1048.84091511257,-200.513753849907,-713.38974972313,-1131.00504857612,-239.485449196267,-794.253063541829,0,-602.877009402177,-1145.48128322181,-287.964305847163,-926.571427098416,0.351871784940633,-514.771367219612,-858.41126997175,-158.005232557256,-450.118893703318,2.0619337585975,-275.743574436967,-432.649584240231,-86.0341384355748,-265.017215514342,-393.78432064505,-435.595002669508,0,-185.514621430644,-275.161391459187,-381.123838501662,-409.744986941894,-76.8475995804828,-211.500597124745,-315.305302291977,-407.308617351103,-235.88920227097,-370.626330269959,-456.095836267774,-435.468768924878,-724.66030847506,-494.369337706969,-672.432988762042,-708.6351785869,-405.474765159156,-574.989170652596,-430.093301675585,-401.686903837546,-525.181891867572,-628.992599224517,-328.040925806336,-517.435922319826,-271.294001956203,-351.324284479553,-446.604976210358,-532.528092029289,-298.893374827173,-461.747423556466
-232.735790481333,-200.974518364582,-346.011080000725,-309.8134171747,-403.522541383722,-282.84124398167,-513.17226058656,-783.428214879655,-364.366264618681,-688.094165926506,-891.980083659012,-230.343522271465,-676.989961846601,-975.961088792509,-329.972899174083,-810.793743831754,0,-686.517081303957,-1107.52802796305,-377.242238465638,-963.652514884844,-87.6314653502447,-586.767128539308,-858.656991220908,-213.716921843951,-481.941545718766,-48.6288110969552,-306.956025865173,-462.028928686027,-116.496156520127,-279.987078130362,-400.116085766633,-422.590540292894,0,-204.097411925307,-287.912982910663,-376.353248997018,-381.583008150834,-96.9425047640218,-222.678912130642,-315.16439154386,-384.756953695712,-218.967204542446,-352.631286770254,-412.819209318343,-448.236666609144,-802.726923363835,-531.314502509463,-735.889770554761,-798.280342716726,-432.782407095543,-640.605304198881,-454.849090650254,-447.933269448262,-581.260834998634,-694.141837293864,-373.329660001129,-576.006098517251,-303.520355509084,-405.611014420164,-504.235250536382,-579.216253166452,-328.415446155439,-519.093281730988
-180.166520054671,-91.4804715266818,-322.25914173927,-237.050810232508,-291.187920111356,-275.277146794282,-451.089795271163,-702.603629829978,-340.832891589327,-588.601990898521,-725.082545068176,-248.420628010857,-620.986489665334,-810.740244414187,-411.5920542402,-809.556725462873,0,-751.833795769483,-1043.79128397665,-498.384959347994,-964.050690485131,-202.946652056427,-673.414472652853,-801.459878057001,-301.478179473619,-516.544950308598,-128.788597932125,-351.961504234229,-456.179258164389,-168.620432371717,-308.817314705337,-387.944024280664,-403.28216091478,0,-242.088562827013,-306.301007863057,-365.640558082235,-348.930578471806,-152.213735459304,-256.328153189939,-329.120177391935,-362.630625589797,-239.903092933444,-348.691386511559,-378.102932072721,-468.800955835413,-833.434241987234,-561.787609458277,-757.837617224189,-833.100377213178,-450.731099873695,-673.176257732953,-478.885809546531,-480.178930524744,-624.809114677966,-735.528426306429,-414.743421155029,-625.484924176528,-322.89539174573,-451.38094270901,-555.188503815086,-625.839467430369,-349.709763296419,-566.105579898768
-164.363470645171,-29.3715341455068,-308.359087094744,-212.437306142323,-235.749667868406,-269.459552046252,-413.974500430394,-669.893186579995,-321.12084621774,-521.407233342634,-638.991762568086,-236.569856872522,-553.25884666491,-707.444366794055,-435.592029669943,-757.205431129337,0,-736.67479089511,-953.570568135623,-590.207282659514,-895.476567591208,-327.22974651708,-705.15337495198,-698.170451256644,-384.241657638921,-529.302039023113,-219.851682922856,-393.34287167479,-426.773550530256,-235.636061052643,-339.096405275053,-363.446546810693,-376.110618917942,0,-288.785459568692,-319.985160793925,-347.185790408656,-318.020416040898,-226.271857206403,-297.011730558252,-339.791979916157,-344.194410258082,-273.441486791891,-346.510109543796,-354.038933764598,-476.628477989255,-807.919647740194,-562.074352897908,-733.786911447774,-807.287070689471,-450.247226291474,-662.658053729828,-487.287449996803,-480.235116700082,-630.342069051184,-733.571571046693,-431.561586209119,-625.408821211748,-332.225526262638,-463.852011416265,-562.552395455777,-632.580534434978,-352.93228875651,-574.469148891908
-134.248887526017,32.483627028698,-274.262887671037,-179.46264235655,-188.34950818072,-245.883413034545,-364.546555722131,-621.755505596644,-267.853569751273,-442.081205764187,-565.208811773579,-192.154445501805,-448.766309047314,-596.159200933507,-387.689249177918,-618.404036949297,0,-619.83221099261,-790.354179547238,-576.823985004063,-747.145132361988,-395.756889309923,-629.588297120895,-564.756507974507,-406.339586181491,-487.711200976562,-276.04367157863,-394.073239520079,-382.577837157947,-274.587211634339,-334.308445986146,-321.519679050236,-323.018966068708,0,-306.589178802113,-303.486550348554,-304.303271494597,-269.910834054741,-259.905818431317,-297.675831738035,-298.755063989615,-296.816431598719,-252.135678553078,-298.782648304843,-290.506444824164,-426.169737996427,-681.892349785874,-487.88038131474,-631.00286362219,-691.927371484643,-403.872415662777,-576.688909063443,-454.968072266541,-425.725739088894,-559.82934527983,-648.41284159148,-396.505565430384,-544.594869659291,-311.468688998525,-416.124707543072,-495.349660264049,-552.791733273097,-318.725452151757,-511.35430909549
-22.7122511200073,152.734836308813,-183.239365092089,-59.5816368093753,-62.9160101365322,-170.033397662126,-246.503406997945,-491.199892010146,-142.780316450287,-283.880439314943,-395.851084108478,-108.890052964219,-278.801379416528,-382.32469532874,-282.055401016867,-391.881325753491,0,-430.1251683119,-515.243414699839,-443.206028283249,-521.274369967654,-355.71751991242,-447.574755982418,-380.576781677385,-331.921056759678,-365.256882829692,-253.800088946657,-319.250774287433,-295.714671598429,-238.520003320513,-266.81181510126,-238.668091550805,-219.709167101025,0,-264.305377004078,-235.849738382632,-218.079264356011,-175.726203539935,-218.964980864312,-232.560730831764,-198.672389371655,-197.960773605352,-161.379139167808,-191.648405371571,-165.715502191689,-320.9148333573,-476.599252913444,-348.14119002239,-457.443922474063,-496.991942636701,-303.068889624265,-411.972602809963,-378.005031026799,-317.779352963025,-415.259277492866,-480.637334287023,-302.629153039233,-395.803941639199,-240.421315243819,-310.103732377423,-359.769588680467,-392.421686116789,-232.542228995667,-375.274420039044
111.894772636192,297.164343387159,-70.1970208219717,80.2809896444545,101.937117384793,-66.853839008224,-96.1637665771994,-326.751104454364,3.35950362456507,-92.7050992379238,-173.295649335034,-11.6557170102048,-85.7701001164421,-125.879286960411,-171.49627068662,-157.535930045795,0,-236.129131728992,-207.360259923918,-270.178126592128,-268.805021355177,-253.908264117195,-232.533215922467,-160.339228055672,-196.43381300125,-194.86546278439,-172.882514672199,-189.985298836004,-167.404148114918,-147.384738632002,-162.494050046498,-130.341788230654,-99.3294355148538,0,-179.156617909021,-138.489925749271,-114.402055273941,-69.7688692673823,-143.177077068469,-140.533922264122,-105.907830322666,-95.9925114023996,-68.2000344667429,-89.9841677261216,-57.7190903409106,-234.517725807259,-314.214831572672,-233.455988639698,-302.593174621115,-326.002947323009,-205.047616237675,-253.838795803799,-300.662660140603,-213.843747087589,-277.051709650296,-321.281227338624,-201.533865247655,-257.861343326808,-162.157916151275,-208.701141427577,-229.863948152969,-245.068497419977,-141.782290864258,-240.720512697402
139.476907958997,384.492271454621,-20.4710490476346,84.5890931524917,176.698693206974,-16.4118000584963,-16.5054726479087,-243.028453131674,70.0539087639944,7.23301922164556,-46.4280620335442,39.2464706060034,38.4921474033156,17.161379191659,-123.411578695074,-18.8958270757155,0,-108.678030218079,-13.4076003940856,-163.992855290816,-80.5222292446105,-204.958253992483,-82.2818240959548,16.2168575058393,-94.2670265424312,-62.6679425896381,-122.469229425635,-85.6794655156185,-68.5207479476902,-86.8911430854358,-89.8506516003626,-60.3973201527904,-40.1786383353625,0,-116.165181449476,-73.3780611504652,-59.1764668385806,-34.9429950480052,-107.394886409811,-89.7777931620777,-82.9821755165836,-61.8340808624904,-36.4342916594101,-62.5210915029182,-52.8914916551381,-220.411963628905,-279.370166618481,-212.392818811179,-250.033556542981,-278.744064360663,-180.032049295897,-202.00667942188,-274.35162981552,-183.157176162068,-231.743704437278,-268.290827900496,-167.638571518392,-215.604947513553,-150.33399594064,-182.86671209334,-191.838060809375,-206.178071437724,-123.508842230039,-199.296938005223
71.0484223562672,415.603890471449,-34.4786310646916,-29.8929407337852,160.572634523657,-22.5958467773508,-10.2727323496362,-239.723528600749,69.7116877155709,15.3836581912538,-22.5831495991779,49.7490445836678,101.275910958449,47.8594309772613,-118.264710093477,43.5102273437611,0,-33.4628358580935,58.0402412969213,-126.129632028046,34.4236552899181,-232.772684067011,-2.82617590660818,126.443124200665,-61.8897654760573,7.56156773323042,-138.79978762784,-40.5090491274999,-28.7630259544484,-88.8628829643794,-64.8548875418778,-37.9761822315633,-36.1547345227996,0,-100.293281228762,-56.1444975239481,-53.2163970335096,-65.6672897568226,-123.23512491618,-82.3754767442778,-94.2891304755674,-74.2806978443505,-42.4297469245946,-75.8390533396956,-103.630799484689,-225.392507060967,-297.543534661967,-225.787270694132,-255.222164677513,-300.49271389097,-192.852787598563,-219.378031744169,-270.551303337784,-197.2933382722,-243.980684602007,-281.044109901391,-184.199645507446,-234.289635193443,-183.571192876411,-203.605122498591,-212.722721633476,-227.689614895796,-153.616346206696,-220.344671538598
51.0034136414114,447.682710593707,-28.8610539914258,-70.3633857484563,181.916704509104,-4.30989984188536,23.9734627010313,-205.345064137875,108.031145452262,60.2020742535999,42.3938272447448,90.6464526188229,197.437007240663,123.996347879288,-73.5920536138224,138.948358525521,0,62.0253409895437,139.378686360736,-78.6132416328006,151.540834405865,-250.005199563711,74.3260404086443,227.346826899396,-49.3744676094679,68.4819706728176,-162.813141296918,-10.9300829192569,13.725583309199,-97.270286134639,-34.4626615908768,2.58973530244261,5.6681668352111,0,-84.8101260599568,-28.0679048729817,-19.3699553949278,-54.6394709293376,-131.776138136798,-58.7627542413289,-52.1282292445115,-41.4353530502936,-18.8652724406377,-44.6508346284706,-87.2464906150532,-171.287204226605,-242.310819873662,-174.917760825716,-206.596095991324,-253.102934639272,-150.924296032159,-177.863317721673,-224.040622618013,-158.858002552416,-203.170121062579,-229.826543056243,-161.021355096613,-194.242433973813,-170.015487075829,-177.760040367662,-176.60369288005,-179.01111704929,-134.459773454097,-186.509934491145
141.225055106022,487.91544228463,35.0564666225071,54.2729354866426,288.592572055019,70.8220775403668,131.687088230797,-96.4313377943951,216.849019268714,203.595587956486,213.409296436437,179.780508987262,351.195487075742,314.816974674193,28.8237590304335,306.073405950033,0,193.601584584235,309.417090057357,2.23797169910663,299.284353145186,-204.19642945958,168.185777162609,342.55560449923,-20.8303934790263,142.35583637274,-147.856508395441,37.2973145943422,101.32120640723,-66.062343807294,32.0152961899594,98.8918081676031,123.619485560675,0,-33.8111021989354,53.1018619360432,83.6086226385909,64.8365217162913,-94.1716457681548,8.20893375984721,64.1632171313353,77.4439300231051,54.1311507288119,56.6952043388229,41.2804496981545,-57.5768769105858,-76.1684613083358,-44.6251746847996,-58.087121443033,-81.1598446917942,-34.2715831549956,-22.6207128030826,-131.174566193692,-30.4553817900281,-67.0293056843255,-64.1935912405371,-59.7257866934924,-45.4798756809625,-82.100525614704,-69.4757696007489,-43.9290636085415,-22.7165376774603,-37.3263193326984,-55.6354585585208
267.078623646132,511.712771968923,126.146989933537,240.740308708612,408.729217321728,156.68658607441,263.242734669913,26.3226363674697,338.458550111281,387.314758966722,414.443044464513,269.606459956861,506.600799388077,538.927903225808,144.697228831657,504.578396831502,0,330.453284360376,539.699550068208,86.0866817404358,452.143412895365,-128.01226614523,251.431613838995,458.872282529099,15.8437260665613,211.416578091104,-107.177747831529,96.0282157106217,205.512479496298,-5.24809075469394,114.371343927571,221.616349523628,268.752176138392,0,36.3637567378336,160.882265110915,219.217894158161,249.371420729642,-29.5965706571954,91.8273827029974,200.19903630917,241.791000019036,147.899101572433,194.314543732308,234.239068238093,81.5255828054451,165.707107771821,126.148176813877,163.413556340217,173.655629230412,115.11497134862,199.423845332604,-27.1921255707759,141.886628363051,123.620137610885,154.887594574084,81.3715495924571,152.88041344101,33.7897297300125,79.0467239982494,124.519518042245,170.784950838802,88.5307875058631,110.476793762729
337.991310664002,505.059336423111,193.187764165142,355.395686455769,469.091198373891,202.699379928688,354.348025056279,103.068265851834,416.49920510064,529.862640894515,554.679526021996,313.317237578276,619.670788266322,705.563765920484,232.334925478239,688.036597460718,0,453.497436100908,771.745913754587,153.679658948485,597.844976185684,-73.9214628231242,320.453389881586,577.096492840007,49.4612231338462,271.598551600089,-77.2061186688555,147.417085623181,286.680068637834,43.4059827426632,180.285225684801,316.792981758527,380.035951642259,0,89.0346698900129,241.755147804874,323.911580446316,397.100477155918,19.7309485710437,153.94357360096,299.14827065737,377.239310947692,226.907742708764,313.735791247298,404.381480002023,217.211874496702,401.899070287086,285.577008713771,378.757293561438,407.480784433146,243.983447642116,390.620604793454,52.3545277744904,277.855544545995,288.076165776346,322.092661129482,194.224161459112,295.578147875487,116.285415090722,188.544358612173,242.001253784719,302.975554114774,177.4190734728,220.201953503398
364.909888395249,487.588124588098,232.456819010473,406.139199949561,492.706623810408,221.234490317256,411.118870118704,160.123535799909,461.09814175383,629.54197844592,651.789551236215,320.196058817498,705.395184084911,835.036145283381,284.056363537776,834.002352748751,0,558.189501401387,972.926838329929,206.480377753422,738.043835568194,-52.3357236701269,397.837632482735,705.504382375579,85.0807824157527,341.059270065438,-67.9116616624031,196.673285897244,357.13487423637,66.3548483704408,231.53436419993,381.324257748421,462.498340368428,0,123.12011892779,295.205651684541,393.509083634918,478.45956895551,50.9146260892905,201.277053577413,364.017221246944,460.622225428521,293.86948689397,395.594327293943,510.61082813829,342.889647719203,571.433771488237,410.739702084258,535.136290530338,558.123382473211,342.1929245427,513.841122847381,108.349287587485,362.223516516963,396.428221440622,415.843077955534,266.210751040926,365.799590266595,160.072117187741,245.381724963083,304.768861961267,366.256935269327,222.357053385037,269.533311339433
448.885803220498,529.317527842563,311.589932928984,519.623807374261,582.131202601929,275.999421470937,509.198690592891,280.626280802919,534.271003398334,764.413522417894,809.285507249941,352.027074271751,809.78472545562,1017.69593333254,329.749574283053,943.797952949947,0,646.920392514805,1133.82032531189,255.525476325063,862.643518272278,-29.8741200808058,492.558675234085,840.567546849744,133.599403809493,430.98106664982,-50.1702262653451,264.800795904992,459.853728085886,101.765348783575,301.980135881593,473.751859759712,581.316037589726,0,175.416746916094,370.088017664864,492.625383019875,581.83017986091,102.380812774872,275.359186656484,449.414017927564,555.807886344285,383.829696019104,484.211444474971,612.659345592368,492.070902485455,729.043830824764,553.424659212461,695.644795318149,710.643740835173,473.9638356471,666.116096971002,206.065211070942,490.846204323069,537.719234144929,554.149659267549,378.216371593989,488.763476267885,245.949037809846,353.000523400054,424.325043952729,487.731431769411,308.006334075451,377.957289704283
617.666832553185,650.657933575055,454.923970003939,728.463764252921,763.008300332742,380.343531855583,662.917791241678,466.23704707904,643.466041272404,947.222628479034,1039.86869703568,427.810572372819,921.53119137472,1241.97087222838,386.153421462816,1008.05943171035,0,710.455646059606,1219.61727070558,301.0226559602,935.068314652067,8.84782693765209,571.678552595296,941.614378833176,182.075436803485,508.106796962428,-15.6311239171955,332.092734352301,569.028482272962,156.472154405769,378.599956131032,588.907785298787,728.776905359993,0,237.09257457434,452.92919468091,614.962378363974,734.134696602511,165.870896232861,354.990240721418,552.3088311227,683.510706184327,472.682781371435,584.698008917357,742.343450457288,665.50137656237,946.658363637911,746.358688413964,921.788514675295,950.080651287919,666.259450537959,915.57714045606,376.068344513088,709.184536704891,772.924266912723,805.310421868111,569.787858713923,731.865274888178,414.816767579778,564.44583720679,652.153976819804,731.884738557568,480.211807771591,603.084374781443
767.773088933987,761.083603589726,582.705083049551,906.056201084054,924.315659304071,470.001132483337,777.340515972995,612.895824181832,718.918164349724,1073.96562330593,1219.58835177178,492.256911989843,968.904270115997,1375.49608489312,430.361328620383,1002.1129132287,0,726.635373348477,1189.20534005772,327.900975487646,918.852230803248,40.0018965478597,591.134869129195,946.63269934498,197.516866500732,516.706788012704,2.91346228816946,341.415935504971,589.76544332284,175.985500832945,388.639699546869,618.972444486209,780.972174231219,0,245.609851340062,459.312303279051,644.368522734118,805.222958748638,181.624812897494,365.853045381035,576.05761085181,736.335006048187,483.439207307432,614.800114904155,810.207304396812,809.627300916546,1187.90077853516,931.959744929227,1160.18601769489,1214.32258056021,846.979782716643,1173.68787577926,551.588952044856,919.700596921395,1015.56887350645,1067.56833176572,759.185028878054,984.753895556741,588.552506485909,779.575020642969,883.322124749546,984.058386079129,662.654513719106,838.031524799873
805.873253017472,763.146029951014,618.189241736396,946.561461891315,956.906365627631,487.321208989989,773.659441368497,642.101912728107,709.686974860041,1061.32100579719,1245.39509400035,496.402580130153,912.828796799502,1340.26485451265,431.647924765411,923.761461686774,0,681.939416996079,1066.45774299261,318.467091502016,819.88700211768,38.4301984199064,539.929662659071,838.552568471025,159.391352643957,437.289241429908,-16.7908374619266,270.181208906367,478.146924913148,128.763824760659,294.897005400996,498.752567886858,654.969432031202,0,179.137202478025,355.786378672038,520.081206035519,695.739339596945,134.921508109337,293.842934527976,467.843664085075,626.142709540449,407.739936511496,533.620245090418,743.524333542153,897.204283388643,1371.44481918141,1047.50442827558,1329.87569960105,1403.97967431439,950.033761885217,1330.8082406863,656.49479714923,1029.12826197302,1157.98450986157,1224.80385384349,861.766993806378,1127.31789415866,681.519132329087,891.016542974014,1009.01454144619,1124.32784847037,765.071622170384,968.997346614615
743.061698637671,646.640114385893,565.126094932866,872.411158934348,861.189034533278,436.289183642327,674.828388589734,571.41776869332,630.56333866852,939.617254648404,1134.96172258833,444.640713097809,787.799440802581,1192.87462642758,384.437041526825,811.614842800124,0,592.084665479869,937.222182685563,276.908406404577,697.692607689468,12.6416766508557,451.396741395048,686.715345062791,91.8109693494595,318.308327777346,-49.7753584074496,170.514340829777,311.289543662219,60.4377953037672,164.531247203878,311.287759776724,441.385324434412,0,97.9795922420735,220.260094817963,339.930763216373,495.112795031745,85.1080628550367,210.02348968293,321.974940588605,438.098605649042,328.990299766587,423.753706570392,611.276133935918,926.780694002965,1455.88376870305,1075.50882760844,1396.27650524706,1489.32607002399,966.641474697507,1371.92858904644,668.10845047297,1034.99433384029,1182.67821549756,1267.49788237613,867.520530994395,1152.8762136942,684.417005393885,889.793318136713,1021.28737710585,1151.15894322742,766.782222613528,985.144667203906
642.654704481323,479.427049104965,476.491079821034,763.210601299214,712.562615634088,367.774606274376,559.057372177628,474.373935509962,531.61307220843,802.401033686224,983.639501527286,376.520116891028,666.808503514976,1041.78877516801,328.121729007442,730.223329309362,0,518.102372673574,885.572856333057,253.998988257946,640.545912054072,16.5142421703303,396.007797647431,609.430497247869,67.3940156543739,259.012225255509,-32.8092644525042,137.540852095905,228.37915469039,56.6047775838105,120.419081029436,214.980110935582,319.520912655851,0,88.6351986293981,172.779589851871,258.535250077161,379.510197628789,101.741655218993,198.929903133758,275.873366470622,345.85602473966,328.146946774066,394.603450542658,542.867366183985,885.901519252494,1438.38178525272,1017.56072209804,1354.62726068356,1480.16122097439,903.474799649356,1324.77791505109,606.098126772504,962.013648649018,1117.91353740188,1233.79930653198,795.722341210356,1100.72331028944,628.218947723108,810.978914377924,954.310999392322,1104.83361114662,693.946725827613,919.67005346344
541.187863972688,332.22691893,396.158177398057,664.932397314062,574.700283345453,320.527643128607,476.881343520959,404.435992302907,450.268956629346,707.521076554211,871.481575902388,325.779937596756,592.416060186834,946.272432810797,310.862220441785,713.830669905751,0,514.688574435196,921.851297279406,293.236231161952,683.630603302655,91.5683060293813,417.301507315806,653.567688501066,127.752501898239,307.658361904158,61.0732221461835,204.821991403719,281.05683853155,143.724435426277,198.757870867986,268.052325398729,350.979207334762,0,166.867834781628,241.660546894907,313.16478005113,404.200562255665,186.087347090502,270.413453276349,338.307954191821,395.616330383375,397.55113816733,448.970687539355,565.199086209673,777.586604572851,1320.40550934673,887.081231381405,1211.7456505525,1374.06567518512,774.955559414968,1191.90917562522,506.163655333009,827.256123332649,976.863154617441,1123.26908472377,667.822561183599,975.652244235061,536.371610535052,679.734587930213,821.966981532459,984.859457152951,581.813751342841,785.919906210821
443.808080477202,220.718395472932,333.876093771539,578.715029636819,464.726190045676,285.987959060641,424.727281690513,359.677742593681,393.36631971125,647.122812576251,813.033788929826,295.173596136831,547.888327477273,896.518543137624,328.938166703089,730.188803224006,0,557.95143865211,978.316932923507,362.775005153527,763.031530643589,198.328644837311,473.827607456972,740.672354220592,221.959901997779,395.764096712201,171.373902039676,295.156330925573,379.786848481531,249.270312397436,304.726477848557,370.469532111093,436.357551101992,0,257.272003146805,332.807045190938,399.740323385836,470.161888237673,267.785742361989,347.916673399756,407.288214405152,472.643692894475,457.201527846844,495.89994156692,589.097306270083,633.201578581863,1096.1101059263,711.447712149199,981.884720531804,1148.13321763423,613.642633734099,962.73742201607,391.517835122284,659.035512744873,763.752470873026,905.227874783459,518.332645947441,764.579491071839,420.76437754641,518.96614610861,629.359848342252,776.245868700263,455.640170590851,592.434834334306
373.216173387325,141.392648049417,296.839901223272,517.191127474701,393.259812181049,257.808113309826,394.364770068727,341.769015426083,371.219865892356,615.72065507657,800.289923959945,285.88772960125,524.744923691405,882.623822605662,356.996857597254,746.567812303958,0,596.350768619514,1015.81065568417,413.73627323618,813.393425127328,271.98306517526,513.008623693745,789.865717242122,286.874008944661,448.919798748365,235.815145140973,338.731278266931,437.605283621287,305.974242121778,358.847600148747,422.783347029379,485.958873474202,0,301.44771952014,372.945884602366,437.593619463269,497.547810859041,300.900897971198,374.90739473449,434.029489869972,492.441084911758,467.114750099974,490.468886755527,565.676892792081,502.224767181036,817.273000556391,544.089743102832,722.952542303893,841.944949043181,470.25103908407,692.182468731108,287.233071996512,511.98492526661,533.493838130238,632.377327213517,394.853555405842,524.147150727485,316.358029962722,375.272794956098,433.307551301118,539.008426810861,345.858323245549,400.952809464988
364.310951983186,115.34626643319,310.034632275868,515.657299680565,383.656995930351,264.227436049305,409.280815152283,383.029937710912,406.696103607139,639.860981455822,840.839960566987,319.465866628198,558.111712725046,923.326066195313,403.168080994524,786.173034946935,0,634.705998646331,1069.39679713949,458.263256930178,854.552702422127,315.368058672938,553.646320271768,818.262589745808,331.961229562341,490.065762680509,271.75581547822,368.084905107239,475.29841619561,337.492954136608,392.575636872851,449.72993842227,518.660892906164,0,328.517605635997,397.830070908911,462.24088911849,518.783282101378,318.668357564709,385.468193025234,459.301636169036,498.25518761303,470.266086568641,484.414874057252,548.000388631241,440.489624169602,617.609068131806,460.09391878745,549.384463263112,606.447213822314,403.567440059059,509.672835760927,242.744082724772,439.279862534962,394.930222709665,463.685315295419,341.717821308065,379.821586171098,279.327141733791,308.346980019217,331.005993596799,396.800102820435,296.935751800833,306.521898088225
401.442188259579,142.524166724975,369.003030570007,562.810021554092,423.890565114044,311.300677783693,473.778082154684,468.306892158588,480.688425266882,707.77678140304,910.233521847356,391.663160754225,643.150687698439,991.898528919857,469.467570637856,858.388755351961,0,690.242482962396,1145.14991787862,517.5736150711,916.333064745561,364.648389710219,619.670650352347,860.921876905196,385.257112704991,556.895273032057,317.834793145517,428.628515432293,533.751875371703,389.159327695616,450.396132968597,502.697586399008,569.980637816155,0,379.42234442777,450.097470768321,515.944766025498,568.044682734503,361.290511893536,426.295811786411,503.525275642855,538.800376117667,499.842457462656,515.665377374852,567.638721280671,459.252984106557,571.35147289606,478.735535674332,520.453219892398,545.450750754869,425.759741563331,477.768208366217,279.595503549019,437.65321729142,390.692928023862,469.434909763745,362.818462567098,375.716179201602,316.450571798407,329.626854331533,341.984357675068,388.996719249103,321.986334647932,322.909557782023
420.44031086223,167.256940073209,412.956363580965,589.711978560794,452.147962789685,350.95047758297,522.72400252755,518.588749473255,519.880584222984,740.007846303953,929.663924770412,443.418612838743,692.679817216726,992.267996852826,507.197003460252,893.543008960823,0,718.913199604531,1162.07995161475,549.645320940277,947.169883769251,403.758150197101,659.054818571583,876.314224918655,417.318231151186,602.55612360409,358.328045990205,479.538434646645,576.739899258496,435.497224980866,495.479337661775,543.84488900817,604.598264208773,0,425.31682474524,491.020643247153,554.707809001233,595.485368277614,401.809062202932,465.95193677194,520.900356797063,569.34408550317,513.935106729745,533.183608995892,568.438118931316,488.451954066928,582.86357684242,514.061182753569,545.381449431589,565.401351818386,464.061924385829,500.924433077827,338.369680928963,447.049719557749,428.837827189615,515.565008134088,398.766973303666,409.921792064423,360.996696573634,373.887542353009,377.958842562027,419.490457742504,368.112038995982,360.649150006227
390.280800951089,142.639577335932,396.065909273676,558.371218731482,423.641176285138,344.872962397212,493.352966073244,488.009187206391,483.687327092565,680.085205859562,849.746626644807,430.803020337988,644.174333768847,868.575432856188,481.157106609393,824.394359925853,0,670.326908574105,1051.03462490469,510.487670041922,878.13673766025,393.758228793496,613.374615797968,801.453504793027,388.508082512143,562.867397433218,353.839571052644,456.78494056552,542.681795413446,418.867711542045,469.298420685896,507.505996237875,566.273337959475,0,409.88769491081,466.680530158403,518.910447221809,544.891535084119,386.131935307772,441.550016793856,472.65059815761,526.215265754384,460.486505137439,477.87516361219,500.929311602062,444.115003788227,512.980955708734,470.300495831893,492.131187771216,508.015366892788,435.731349716866,456.61525628126,338.905832151615,414.232593540954,406.611154951644,461.918730969223,383.700430937513,386.366846068289,352.420616206192,372.795962300402,370.077803180921,399.267641233058,369.601664825798,355.124276508117
351.209834721239,99.6849663262869,356.378073570726,509.300907508609,369.054513439987,323.996475465478,425.016120365374,419.768854263284,426.822887111762,574.246932734836,721.204310553627,397.769288491971,552.39033571557,687.843586280652,440.223013884227,692.950265500932,0,581.733354172228,855.394558404027,447.422109058823,737.114481008467,362.035837981774,521.819198668868,656.785922414219,333.430615582973,470.320143904509,316.770753389773,384.212168364605,447.79825702464,353.84152787721,390.299514130049,413.050285614106,468.7587365637,0,344.886540767858,394.660742299299,429.490150812614,443.615532245819,324.913912592929,365.85060440862,388.024100448742,427.448362550385,364.470717027184,374.927748857441,397.15680661488,330.084745145653,368.642568275216,357.447265018893,364.695334248668,374.405193067739,349.552940176038,360.249935680495,281.899933387422,346.615482253476,343.257234571222,357.426734379255,329.06031082845,339.677644945283,307.258057615488,338.966829948683,347.876659869167,358.287453731892,332.266769378655,341.299718306568
330.107683492795,75.5887683889399,336.286077963855,472.165722140514,326.935818657773,321.194372628521,378.873745653768,360.600383409529,399.788474814553,482.389504850169,602.670894628367,394.56760450394,481.932852169615,529.552972437026,432.416162499087,570.982898330315,0,511.903431048975,649.193479940278,421.876487905179,591.310693280511,356.091077998378,449.331636285891,503.553372646811,302.233054113384,393.532049537801,286.142821426553,325.038845942063,352.201423772949,299.876619994948,315.448203845306,320.640679945632,361.112492707261,0,286.885507607261,320.535879844511,338.780020232463,341.441362662183,273.607042293639,298.236965619245,312.56879548973,328.0504539217,287.389699149713,282.484132380425,302.260994315806,212.272843113367,260.516320702374,245.319296624099,262.856010538685,283.100626306529,261.494863045564,292.266674022921,218.398915519038,274.943694559371,299.805177782626,303.493550778393,278.318238305391,321.966136320915,264.2991346004,307.911976969599,338.597538062084,345.585092088498,295.106708067963,346.01754296366
281.481380315494,17.3415194871112,298.511599617616,400.888701715532,254.654011447668,302.293979966292,319.525428279591,278.355775655441,356.568117167884,373.183572746926,456.673032168726,379.674141423347,392.084138861753,365.617948828198,417.295177904241,437.658607514865,0,438.072677084443,425.209577963328,401.026517823181,435.10364796675,354.005253083425,375.545696079083,345.402764979311,272.540605610589,323.146771508908,261.875728315135,276.935831652548,266.058825250608,262.080927042989,252.283396423944,234.977839739854,248.452945072365,0,246.277900654537,249.13171493668,249.391662213305,235.524256744945,242.805878848642,247.895905873465,246.496850440477,237.544419409953,238.06914260747,210.341981870655,211.974774823272,128.283554965128,232.183049182408,165.507090957755,220.012657857648,271.803096820988,185.069273846018,250.568654571469,161.235389808867,198.845219854765,258.522143760832,276.400874331775,222.212485049911,291.853749377986,216.883520309372,259.834028912433,296.777938632292,320.119946337454,246.401792317999,315.444946645985
181.081223210749,-127.453722647023,216.792908293345,270.8135699119,103.875854358811,245.680010597033,204.062335936304,136.306488699045,260.900831614648,210.06295546959,238.867376636142,314.196435865541,244.129597419049,151.875402630092,361.723624916925,260.377227614508,0,328.563602415925,173.217992113873,342.7355579997,252.093536139815,329.175923331546,271.543493302946,175.069896683169,222.191171975374,232.314829752328,241.181486908403,221.697725353697,181.867761668472,223.129693006351,192.140376236015,147.074857780903,132.605903915739,0,208.874634404204,180.603842281009,160.895787851407,129.747016743321,214.957727559698,200.068309101316,184.257558113253,153.007545534079,194.727826139204,149.276210039358,128.689915227562,88.361606709668,246.286177787482,122.875949285758,206.311946596452,286.04170651229,128.302388329092,206.27205900264,113.888548991798,130.53079112903,196.817355981677,225.124682415217,158.840303913398,225.133278288177,166.398926109845,193.415632369633,214.393452500167,249.108794707974,180.500517624079,232.991411852157
68.18092560627,-319.113075898074,129.098146292386,125.704268489612,-97.5602888447875,183.193998310468,68.8889284479294,-40.0823633346478,155.370931398083,31.0971854917303,-13.0974458313942,239.630027247117,85.5983497981757,-79.5483196630161,297.71755529322,79.8035902661372,0,208.848452714711,-54.6057535681284,273.387027258134,77.2892625917782,304.155870030701,171.753767940147,21.5794599974422,179.332339634574,144.109765046618,235.439931954826,177.030226849564,112.401634423747,190.332661331825,146.450633867489,73.6331822747871,38.0014913993111,0,176.033862575364,126.149527224559,93.5183376650871,51.301551908573,186.440507975345,156.668587565258,134.976245048373,85.3971636940748,149.497373353923,99.1947844677286,71.8632463959383,82.8053173633091,248.640754753071,109.045270281115,194.189988538203,277.014153174467,108.108237594695,171.651675579566,94.2671823868738,100.247921268926,149.191283994957,169.837919001902,126.487754134093,170.037698696908,140.900112916312,153.379892694749,152.77282984414,179.26271273542,135.512768313252,161.408156320534
-37.6370279296364,-499.307387483916,51.4522805162639,-6.08516424435135,-295.166234630036,123.420938252831,-46.1085863964376,-208.786568152874,66.1192042064068,-119.206164719746,-234.261943858583,181.749573525518,-44.0238111992086,-275.936162494576,234.776632342441,-70.0535927513363,0,92.6357092401123,-228.841763308664,209.47310718816,-71.0793516556698,279.459118760883,93.6454878744245,-107.722721632433,143.982172940661,70.8686037617632,220.214689363213,136.345047856442,45.359652239595,153.979039478585,103.427339643438,8.71345977416633,-40.9937254264026,0,134.798533637315,70.548105434536,33.3468129466438,-14.7915357970122,146.637166897416,106.619919374411,81.7298333464955,22.4751829965046,91.9677599534572,44.4730847921004,18.8573684019577,59.2445838203093,184.642834485099,78.3365470314937,146.662534573184,215.785315501642,89.1136425188289,131.807537698829,78.8268879378853,81.5624101873885,116.519206389375,120.844320043536,115.739465462828,133.079234697645,124.325135717944,133.008902276443,120.544394148939,134.933170959979,108.90775526061,119.842756026159
-141.735631136115,-643.788578410662,-31.7580448086061,-121.140222801741,-446.902153939092,49.369281938822,-135.405303517322,-336.412251581966,-22.603532135768,-228.465880346789,-375.370638354535,108.758568440131,-152.668579610479,-403.54055564634,142.545712214977,-202.534875120194,0,-40.0414745890183,-365.599896594626,122.750545586289,-209.044636564326,219.765694998051,5.42376290382311,-225.678164385892,81.3438336147721,-5.90845572666951,163.360608001897,68.4069581448726,-41.3652688456745,93.7841156046183,37.7528519805592,-66.0392112853305,-122.481419126095,0,70.2766277292582,-0.921023048225962,-42.9869171026944,-94.3926209903559,86.0612998433772,38.4941963162451,8.31801680659922,-50.8165050539062,18.7083612974291,-23.2299703591075,-54.4180816254122,-20.2598491051786,47.6094284845805,-3.17325654100735,40.7949558307293,95.578748907743,22.6547090705776,43.890504454894,23.0141277740334,17.6710382132905,48.6294026081167,46.3966286583802,71.4547239001432,65.4253028972244,72.2730648254595,76.8971103835476,63.5141372869758,79.6520833758302,54.9221151310103,60.0060628583047
-214.536699608147,-729.336403924022,-97.5088367613233,-188.086196513165,-516.777526230771,-15.3915031613283,-183.951525800679,-387.151473151376,-92.9320750725733,-278.727256539686,-405.948263281385,24.0673460444155,-227.345196000379,-434.607220061968,30.7303520931718,-306.576333326924,0,-172.200320437866,-448.737719652186,13.8206658773874,-318.694669686753,131.438678370968,-96.9157636853107,-302.500903882246,0.577834121899078,-79.0633376538888,90.6887307664611,-9.28146144810356,-116.718142621938,33.1442136702053,-28.5899135075718,-127.888849953483,-182.206967372831,0,11.8369069952373,-58.9356545252884,-106.253359536546,-155.739062438135,31.0386585834614,-17.4952849610575,-47.0187873492292,-106.547674256394,-33.8450164002951,-69.5158610386177,-105.407454098837,-113.804305464796,-91.8055875243483,-98.5952633936673,-84.5434238098527,-41.5593151818161,-69.8576468365384,-76.150680575975,-59.0522761303533,-84.1618733514501,-55.7442924506361,-55.0283475845056,-12.8771479781089,-37.2042239377852,-6.2842747467484,-19.3057887015954,-29.5343141226507,-2.50945373405024,-27.7938862664496,-32.5806531011729
-237.693919663826,-755.228405575475,-116.524912705192,-197.614688412535,-516.483521911539,-37.3859517852888,-186.025767733659,-364.86927397558,-111.681877287425,-267.137010765659,-361.492651449233,-21.1298246800738,-240.04596752124,-383.48311752032,-47.1415321389098,-341.140044806987,0,-246.234527223868,-443.213390103065,-71.6228031680452,-354.330970575269,60.7888870938174,-172.925481112398,-302.463610088796,-55.6822370064126,-121.545823876322,49.8378400742579,-49.558728196692,-140.285902268291,8.10266467996121,-57.6565130512665,-148.112843853539,-195.125587927305,0,-4.01350483078134,-74.7488577240178,-122.199169665261,-165.926263731247,14.2637239616721,-28.0384200387384,-54.2534997740725,-120.884679448798,-37.1947573650639,-72.7240336713752,-103.631491857385,-168.068027849586,-177.303745597903,-162.850671299808,-177.275885362278,-145.686439784818,-142.553786573615,-174.663974992443,-122.422224022157,-174.859283227306,-148.850193844533,-152.229417055052,-98.5464062786533,-137.09489262619,-72.2148876714634,-112.435555463348,-125.154600795142,-93.3670568698662,-103.112218423203,-126.360261767095
-269.91566457032,-782.345957147377,-133.653841187652,-221.986718834033,-529.885634913412,-53.1122643035968,-191.749055351326,-346.165986258181,-113.026205264519,-256.49778172647,-347.720762024948,-32.4461044774005,-222.418634284191,-336.798179237055,-78.7481263184322,-316.755256622152,0,-252.630658922413,-384.308503197136,-116.961752186551,-327.823752469667,10.9257228734277,-207.824018957242,-269.622064562592,-87.9346712955828,-146.523695396144,30.3494564742144,-65.6914098591688,-149.041491379639,-4.60007236038306,-76.4978709355424,-161.816394919825,-206.500829556447,0,-8.70513983537595,-86.3874953493902,-131.862013329141,-175.595603257691,11.3106474982188,-29.1382622145531,-70.9776928559443,-140.945791655335,-41.8632160504514,-86.7225267409614,-118.523365063268,-209.770385198655,-243.112748299915,-223.115426638384,-250.087456175683,-230.480020939939,-211.042056785656,-257.509325180882,-179.052892584273,-254.339445257882,-232.54540884806,-250.433265963854,-181.971200039515,-236.908671075068,-139.151701200709,-199.321703192562,-222.91555972982,-198.138157707655,-174.610977366784,-221.851605922759
-358.478090608029,-856.224506944167,-202.932553981138,-310.895814873136,-607.138956333808,-117.769297693823,-247.629267901298,-386.524049321128,-156.146305462659,-301.737393374946,-411.496538140699,-68.8456694778821,-233.476445920546,-357.792041375423,-103.687204499126,-286.576932712044,0,-239.01323253048,-343.216680831677,-145.233475332529,-298.201802342161,-43.8672507169847,-221.043427749048,-274.260804558446,-122.616680572278,-181.928241635706,-2.68991750250805,-105.029444498233,-198.253657899713,-41.2684137938919,-130.157269885249,-216.742791675652,-273.172777974205,0,-53.0278024420666,-142.626412767595,-189.937301959021,-243.97885575736,-19.6096563390091,-72.8945643486767,-148.643237334239,-214.92202023553,-102.529629856486,-160.330620403534,-208.169761684026,-274.2318335101,-330.883200312662,-309.1270632928,-337.779784734545,-331.738425098801,-298.467040402276,-361.549692059266,-258.61072992947,-346.74695558823,-339.831621182596,-367.813174655958,-280.26037459554,-355.449578403234,-233.866803212622,-300.395605229072,-333.255974589235,-322.37723026629,-266.057656332605,-335.966418556197
-444.121224408449,-926.345257409031,-277.16324965055,-392.594197743747,-679.543588479222,-195.385642163497,-311.657206550915,-430.792649538725,-221.528562075052,-351.177436790186,-465.590157676039,-127.045669349913,-258.970105274128,-390.788663647055,-134.485145306606,-261.999568665008,0,-222.768656356823,-317.536234328564,-153.818959522642,-273.887580270019,-80.6921905696044,-209.313472811965,-296.631737693363,-142.798144855618,-200.080645714288,-28.1126639917604,-144.591931595765,-250.792066030903,-67.2221638068191,-182.361947637164,-273.801901635759,-352.594894119329,0,-102.537881862338,-202.013575933029,-255.512442273118,-322.885775488279,-49.1960570579874,-123.59182463334,-223.559130797398,-291.470323551943,-170.517989008413,-237.245279097675,-301.338998302131,-316.447613516377,-407.363472563443,-373.442564472184,-416.860522267009,-425.017353606186,-358.399163396657,-460.789089851107,-321.262293779455,-420.661393928881,-439.0095723995,-465.842849716261,-358.696552251528,-453.830750966351,-311.873374150315,-380.524933321287,-417.455923955924,-419.259519584878,-345.148199743911,-428.961483761901
-454.983340662959,-914.728552613803,-280.072566238842,-394.377714001128,-666.506752748442,-206.663713316018,-311.791701497946,-403.852277913755,-242.660729057564,-330.455015370963,-425.23271289617,-146.989660505567,-240.048605534099,-353.358111772085,-144.268498079412,-221.829036127074,0,-183.598977735769,-259.819759792977,-120.661314445385,-217.97016595288,-69.67758921366,-154.645569253703,-265.897013725364,-116.10760714836,-158.170621882077,-13.4191011509073,-125.282500750272,-234.680572008266,-41.1710079725697,-168.403562274236,-259.402053165844,-353.642004199245,0,-92.1285711884948,-191.741519560726,-252.143977415088,-328.333668473343,-32.8477556513091,-118.458416340493,-220.618303746136,-293.664691401234,-178.441179877654,-244.104804856892,-314.559056116057,-304.032737946164,-445.19381006167,-379.530519853416,-456.349888848367,-478.935219790677,-356.345632194024,-510.65570332755,-320.903966945539,-435.434111275337,-477.591086918761,-507.112455280209,-372.34377442588,-491.014193946916,-323.197706825885,-395.595885977026,-441.815833628061,-452.588459218904,-361.645155195646,-454.17941261077
-424.571673595437,-822.435363879921,-234.370388396024,-372.530993112297,-598.291636023617,-158.250468586672,-259.380155157156,-327.471612341501,-212.800777576365,-267.913738787267,-336.486632422546,-120.880499962187,-176.716483193959,-270.638743752878,-130.156816851692,-172.573065076928,0,-126.220393055243,-180.172631874091,-65.7687538750704,-131.839215424871,-50.0600806435698,-75.5456432323599,-176.036366786051,-63.0559237599198,-76.5568656366956,8.44916119253894,-63.3058024277708,-161.894097909565,-3.47668807998992,-105.999302176653,-184.047097274173,-276.168643794051,0,-45.3674646831155,-130.888730766332,-192.363226608435,-271.794725940885,-6.23970433133519,-80.7500554343882,-171.154720338058,-238.706816242411,-154.143576904038,-208.591567899574,-280.748046276914,-295.202400205995,-486.506363673243,-377.85025241989,-489.172233017139,-527.376610448942,-345.733456013804,-535.758309975869,-294.763348794325,-425.395891414671,-482.09497901752,-527.696736312343,-354.193616048406,-499.411783228575,-305.982009695104,-380.054884726674,-440.997462026772,-463.749860476083,-338.760402225317,-442.776939955988
-395.787671530595,-679.086944726565,-187.432762368255,-380.221967861434,-518.754726856539,-100.515167518968,-193.999148941599,-242.348592381905,-158.109029387182,-208.197790502971,-256.799756595486,-74.0862899077957,-92.9434435674141,-193.602695159858,-97.6010374915827,-109.943434263122,0,-52.7281597307116,-101.579723622316,-14.0122906288133,-30.2586467258764,-52.676972622495,9.44502936997061,-56.4812921179452,-11.6700679985093,12.544460635166,8.38537961156449,-3.26474772043604,-73.9639849666832,8.81108857339106,-41.2634299609155,-92.3180116379881,-171.196782499851,0,-9.2914051500604,-67.6413648095683,-117.535742499767,-193.65347906982,-3.49623305041505,-46.5870038128925,-115.655022913465,-165.885217857074,-129.0900345871,-165.46227272246,-235.558151977573,-309.054149844931,-518.930790138849,-387.891203951498,-512.244751777795,-561.133264531914,-350.098445052543,-542.297014548728,-271.155689218855,-419.076952143282,-475.776762352854,-530.744131169092,-339.91447103737,-489.573768871749,-295.674826413058,-364.760968187811,-426.734100247491,-464.013918924374,-311.421013059027,-416.730844667646
-309.432920240014,-467.83901719322,-102.00220303498,-330.485909177021,-373.362918796235,-18.7819659302466,-83.9982073169829,-108.949707056306,-58.2375311668422,-101.182570960338,-127.301697150069,12.3730477028712,37.2797583106594,-72.4049066269748,-14.8503546582306,13.529435992768,0,68.5142783533594,19.2616323204204,61.692408084055,109.7157967889,-28.5562577427895,120.605470700953,96.453759693229,57.7611127595335,122.331020432491,23.165299171828,69.6049507764929,44.5555657066701,34.4638361151356,41.7378339325781,29.1778296934337,-25.9162170734602,0,40.8409146107193,18.2178152071189,-1.69008445260656,-62.3479933981852,14.9074725001356,14.9496954668811,-23.2773823299854,-44.7779509065663,-65.9179228193447,-71.8983844554926,-127.126323371621,-265.708325889763,-436.570791517926,-332.176783552986,-429.863143169683,-474.405342800002,-294.072556421749,-447.128802986263,-194.437673462754,-353.521769768172,-388.363634658933,-424.774418038859,-274.201503316442,-385.678615216982,-238.91830039364,-290.29048975099,-327.509935928587,-365.090652053083,-237.433428439181,-309.539533958706
-142.679653041612,-215.908527590002,36.4667620132263,-165.478744761783,-145.907659819507,92.143221724521,76.936588170674,82.1500707177688,82.0465531404623,75.9705256124178,81.9336472477219,131.307220020865,208.932680005937,124.567257337339,111.268023967836,190.998520935171,0,218.089867147833,198.089046156548,163.357559374023,271.792276544137,37.7265123548763,239.071569215515,256.949692129037,134.952764453464,234.738911038446,57.0519080918837,152.37821242472,182.991555747905,79.1722893854762,139.566560966629,170.81747784649,158.969339040051,0,104.515879599179,121.486742515213,150.126884356863,120.781567398515,46.1705778753385,91.6769414687398,97.9365598051748,117.830882150465,19.8433881186167,61.3799452911553,41.0888729750238,-160.346291360235,-249.111357444811,-199.015641443474,-246.534891189225,-273.827023585765,-167.603231156877,-254.316464577763,-65.2872662599687,-211.687798851244,-210.95154559387,-214.283987192437,-141.966930046561,-193.434287540706,-123.212806875741,-142.904923983634,-147.670561790295,-163.168429611406,-108.226002792783,-121.224650663456
9.40420224313091,-9.03165774231683,154.935790039722,17.0431620202019,62.6792576172776,175.1813646386,211.208081676022,248.056981214979,194.840563323563,241.055120813418,273.119076007511,215.31126225661,350.685844946349,313.356223776852,212.780271197797,350.023899699646,0,329.362211120293,373.749305844696,235.566863442305,392.49413069031,84.5408378409284,306.505100958664,367.442072941875,168.374257422286,295.966298120578,61.5630435091753,195.093077461131,277.541271153052,90.1719211941203,194.889233149846,268.718668002886,308.983670017341,0,125.165330527036,182.052206864321,262.501611251802,270.761525156853,34.9558760208491,118.810985526968,183.081810062198,241.28631682856,60.7751674715173,153.538501272218,181.572649004349,-76.5572260161803,-92.9307580413177,-74.528521491291,-95.5721559011842,-107.487473918951,-58.2775088354463,-94.5278281313881,32.5945064819913,-78.5727154921157,-53.8201805615524,-40.3167697735394,-27.6660121825667,-36.739143650812,-22.3505195236393,-9.55049765284462,-0.627815290070364,7.63072768086014,2.69387093471642,31.8159421007873
101.700981362429,149.314366602905,224.05146323503,133.462640522802,200.164518258972,220.303383059891,289.524148060487,352.099263624983,262.696575630266,346.614848195088,381.747873309025,250.171642252203,438.225156329686,435.850442156276,269.054532973646,467.640321056224,0,396.854695267576,513.579398031913,259.560728615521,467.24726871266,89.2038151835542,328.303298451992,428.262937026358,164.816552232228,311.216240354733,37.9944727211627,198.137368359859,316.106069196934,69.0640329203075,204.511922176522,310.924389350791,382.800637314472,0,110.564750110862,200.060971591794,312.431948264658,346.591757814139,4.70030102425975,114.803647719796,222.145754910816,298.922291899868,74.9849442972514,202.270053568442,268.516066898928,-4.4043023451201,17.5262070527434,29.1436027831068,8.75657262310388,1.06670237673208,28.4694592927118,8.96116092691818,103.151771201834,26.1655761949842,54.7268633657537,63.9409699945788,53.2142687967644,60.3690341742893,53.8312908588029,86.9363240148698,93.8568801727218,105.068289408882,83.5908182476286,119.851211557685
166.353253407487,293.64611121476,264.510696515837,188.554780769084,286.985014136379,250.91090958974,334.356786391297,410.930302828934,306.380480770763,402.846448979104,423.575753457608,263.800937833161,482.83351527323,498.455969081742,291.961285773557,534.078012465971,0,429.642026915478,595.854330432282,248.390400274644,503.051378513696,69.6515213791475,326.780827427076,441.15448830887,150.756625654811,295.073991532415,12.0054170183359,180.128065922608,304.175038404861,42.8645162176147,187.248835131956,299.979681939447,367.127202285312,0,95.0320081665858,192.288946337642,301.528381915949,339.877066421209,-0.895789857589343,117.005413988403,216.913516791307,290.628481252417,91.7017949000451,225.112925182237,296.778013079776,88.1759092516048,147.428967697007,131.881078342197,137.840184786876,131.935032591509,123.362635922423,122.379595346982,183.883402908327,126.779477663543,162.45883694517,172.726472529901,134.985530809592,159.025748379158,129.540278839794,170.188123726542,181.74240436742,187.575259249019,159.117686465148,195.648520810902
169.3849118162,351.935460222537,237.91344918781,161.841675604282,279.870728822013,223.041275830095,302.819725837317,379.998755941895,277.711126811477,370.156584214431,374.098958734241,221.302550260173,434.17318410317,462.249556232781,244.136623452132,469.781324681953,0,368.377195223682,533.141672757173,181.759695252587,431.930375044059,18.3443819869383,257.40334410483,340.463295352066,96.7146280189191,202.143721563503,-27.5514320813547,107.159281871887,193.551828341639,-7.99204268224728,102.608800073394,180.355602494962,211.428147702289,0,46.0956436062802,111.58026923315,177.986493689615,195.937675874537,-18.1687456722754,74.5490020988126,122.435671510992,167.262604148566,55.618669633953,163.810819395629,204.232186984768,112.145526639373,234.538329790686,155.650716571309,221.819280213499,233.32846141337,142.782383996376,192.551445530196,192.454011939715,148.673799638515,212.039388063831,247.920806519363,146.166385338554,206.17052079144,129.945372183179,170.8194295053,198.445326257453,215.50905532561,160.947495641485,209.785233900005
58.3771039586093,255.237558248807,107.898159835056,30.1517303113219,138.041537448723,99.9626873873851,155.366917663225,228.860058245825,133.600920311516,215.749723779209,206.805424558535,87.5210314721491,257.522957931354,295.096396598784,108.021741227187,244.460579880162,0,187.997253471211,288.88719444752,56.5541418117405,223.908735904039,-59.9602181230977,99.4273664062624,109.838909146158,-7.99770578116244,25.7990708881535,-81.2927406135528,-24.9647984009158,-13.9885210539586,-86.7990107772615,-52.9317380065759,-42.8202199392076,-64.878090895642,0,-51.8018082203375,-47.0365109488418,-49.0676573481403,-73.442826951372,-73.3599490555416,-38.4467387322377,-49.8658844568945,-57.0293239812559,-49.6175383550582,11.4832372166281,-2.7964252729225,3.32739901877741,181.332643306003,44.0797107780947,148.998122117744,191.875773557879,15.5214869332365,124.133458338897,60.8334069401398,29.5410058490179,116.307314860176,183.376840348823,15.9801182633517,108.539270360823,-5.68582432104714,31.6942823717453,69.2832642678884,104.915303584071,29.4679896890787,81.0678609930339
-103.629886498569,94.6022066773897,-56.3662200605221,-135.776630270446,-43.3242617206776,-50.7384940875005,-27.5991135654282,50.7714135498137,-51.695188497553,18.2653635520759,4.55761290176848,-72.6077431133464,38.6156632149863,80.6744034805819,-43.3015193939507,-17.8079482265831,0,-11.9869951405936,-7.23361446767024,-63.9413203683124,-11.5228033974807,-128.712147685911,-67.6843585611215,-133.797311007062,-108.019947488209,-142.920991289256,-127.762955808249,-147.237209570954,-209.156396520867,-158.86936672927,-196.563150012295,-246.181042314773,-313.65861877468,0,-150.126806738953,-199.514588030908,-257.630879451964,-325.828858301128,-138.095981411794,-160.44442683856,-215.696977043551,-265.080663360975,-166.185899425239,-149.68660219351,-212.715053004605,-167.867643641621,1.66159495806806,-136.046837818947,-45.7802602964495,10.6758718634013,-182.221436516862,-59.3074321323864,-125.330407091842,-157.182228713121,-83.0191039884952,-17.710225706988,-178.783615262393,-96.0877750102052,-191.461989224063,-166.105783236349,-140.572753637502,-108.764771652497,-158.514508002492,-138.041854457444
