-316.519447955637,-74.7438274947919,-236.773366244413,-241.485634709167,-140.860578877188,-82.5009463521563,-168.481721724439,86.7782361893946,-206.469855194149,-236.410884054817,-360.017310707213,-376.618994990731,-444.113178693594,-469.341939089508,-347.620419823014,-536.328647726935,2375.4907813015,-91.9254832816645,-122.518980083606,-196.10286457169,-93.0129298504539,-184.358441628764,-68.2191480820554,-90.1130723336822,-72.568934357213,-254.100014907125,-577.579120903014,-216.54686006493,-376.836484304489,-259.537247751072,-356.899963876683,-294.480530828171,-74.0188631155989,0,-291.435680435561,-212.124577351854,-27.7661357230895,-2.46487888925599,-299.192799292925,-262.364608829924,-155.722348650643,37.263169090517,-134.770878091967,-13.1218552633922,-59.5920719696595,-260.189715692345,-196.320353885447,-245.617931670567,-212.922038168966,-191.535588982774,-180.443633981122,-197.552793330075,-255.042468600075,-194.145460747869,-187.040809831778,-229.451226014565,-216.54686006493,-236.12089830314,-184.358441628764,-212.124577351854,-186.968313393859,-216.111881437415,-169.931650482825,-233.801012289722
-1529.13622052703,-383.438842204241,-1148.13301026988,-1167.95524130815,-703.903487935058,-414.011500560136,-823.220757688017,375.222546356849,-1028.41235903211,-1169.4669078078,-1762.57375832114,-1809.44993883182,-2135.14553361768,-2263.33750939536,-1648.58100462625,-2558.56902509786,11271.6495657902,-429.949627437056,-609.115901224521,-904.622390409186,-431.412218264427,-816.634456593543,-278.678013434868,-433.09420177789,-268.506663964189,-1128.05508900176,-2632.21757782539,-925.797408577204,-1749.14993418434,-1151.67974167046,-1618.7383592292,-1423.54711139472,-484.538766243026,0,-1325.22098707058,-1020.51809290729,-203.738643437911,-168.143107128681,-1383.19729895997,-1235.70703602311,-784.861733532592,66.1833229941729,-660.871191237766,-116.272750129021,-386.5054246993,-1253.29834629953,-969.306244734577,-1187.70788899675,-1044.60102890962,-949.574998379744,-880.342240651422,-971.529319888035,-1229.59974064878,-949.126910855042,-919.185319106644,-1129.77381688719,-1048.38888509873,-1155.40405539559,-896.670524056443,-1035.74234487034,-918.913821600479,-1067.13139911707,-835.102890786122,-1150.12346778053
-3058.06336027843,-867.691638679294,-2317.0261848383,-2348.0125420052,-1506.48587531914,-898.547632021515,-1690.29146067756,555.112971559417,-2172.65503505155,-2447.40401558033,-3609.82026581351,-3576.84063513793,-4225.89227911416,-4504.70822136981,-3190.1376738398,-4989.62753533168,21616.7187465866,-834.404996311138,-1296.68218343232,-1667.0745454984,-821.899694360895,-1380.0105467823,-405.64447931684,-861.024884157049,-276.120780853236,-1914.57760082336,-4683.71425577377,-1435.66044196698,-3190.14818667357,-1940.83166924428,-2826.03554534782,-2777.37179514719,-1403.82151170892,0,-2346.58822967989,-1992.64259575051,-648.627258667208,-912.154330843382,-2541.69225258366,-2351.63300434651,-1655.23083098237,-286.831338236741,-1358.69015637274,-437.884948576389,-1156.47599208011,-2487.76821762735,-2020.59542561047,-2375.21204693845,-2150.66253536631,-1993.98567602685,-1796.22381429591,-2009.75353767613,-2447.48609134927,-1940.82659643655,-1900.58737742268,-2338.07011456948,-2108.48222387705,-2366.44212574223,-1820.24189027538,-2112.00400865562,-1899.47420051374,-2222.53427810015,-1725.11884683783,-2374.68181931338
-3405.10986908698,-1225.04664530494,-2636.35277833801,-2656.56005309267,-1919.40508957383,-1182.81757090389,-1997.16636668179,120.044165640768,-2684.02011795389,-2981.55630100662,-4202.48258802784,-3883.56037388765,-4598.72426212186,-4955.46934727619,-3340.61648250471,-5268.00449416373,21698.8703626665,-943.633538000826,-1648.31987716748,-1601.17306348485,-897.308968255176,-1049.7752548804,-234.951151406982,-967.716501490876,126.42907803194,-1494.68727638285,-3982.14321721746,-809.162173396221,-2793.31596896215,-1441.00243893816,-2231.29123176286,-2749.06702565181,-2391.76592033132,0,-1991.37949169796,-2042.37301088378,-1188.17564958249,-2226.34285823747,-2384.08481261172,-2368.27374744248,-1937.07243616403,-1207.505902403,-1599.85725093794,-953.034803640649,-2155.35855575862,-2723.5641564078,-2439.9518789941,-2640.6748930108,-2532.80619210272,-2433.22959133388,-2090.90498253737,-2385.67944165096,-2702.28536280219,-2256.66594586236,-2258.55546417675,-2770.62023931218,-2385.04336042823,-2755.20328353749,-2100.00186340327,-2438.3640185871,-2252.59413050939,-2669.8838349464,-2046.02737483455,-2796.37674847381
-2718.84345388655,-1368.15557769974,-2194.22674981933,-2192.55322246446,-1887.18441810982,-1222.63276111511,-1766.97845813644,-659.08449595855,-2532.38317209605,-2752.63855720317,-3592.54457011769,-2967.41435855414,-3519.41362727585,-3859.1499782137,-2433.88977112534,-3821.93202976101,13773.9200992504,-898.158365514824,-1630.22216892603,-1071.98894978613,-825.29173351339,-348.291844817642,-136.702647053811,-841.167975147047,386.104400309684,-605.961170393446,-1650.40525674897,112.268887008633,-1136.29704176407,-385.978503208056,-624.797572531085,-1414.15990862387,-2722.49653924738,0,-918.331509057223,-1311.3920483816,-1429.82836809525,-3182.09246267485,-1458.07232331629,-1618.80249334651,-1501.90544251455,-2045.92014705248,-1414.89960173215,-1389.95054129103,-2858.23242811685,-2117.28924442262,-2208.74246691478,-2107.92460751418,-2200.15706049255,-2214.39427172588,-1820.61025921764,-2085.39433943611,-2149.67023498433,-1928.442087238,-1988.20742817305,-2411.50606684087,-1978.51309335477,-2340.68413463597,-1804.78891207967,-2050.93381013648,-1965.07294209178,-2377.04958455975,-1804.61092274798,-2399.64756263797
-2311.94806886043,-1420.62520049334,-1932.77125241492,-1906.28468507897,-1842.53717159976,-1232.65732533708,-1605.94041386266,-1079.80302974269,-2461.0796459849,-2597.05458683364,-3180.24021389912,-2459.68193208641,-2896.2626475759,-3205.5432780123,-2005.37446961864,-3036.6848088112,9431.46790106039,-1015.45600853157,-1601.77984387846,-1020.89160099819,-938.965341203959,-290.076226248222,-424.934719473559,-858.391512274122,58.8764794789629,-562.230403823897,-693.463841726294,83.5299611358203,-331.108794161043,-207.809188485125,-85.5245470853322,-395.410330810197,-2300.65615406648,0,-702.966201168834,-905.384871176474,-1314.16514811459,-3042.05087861347,-1265.53811970195,-1361.91027182479,-1045.39970197756,-2188.54886807142,-1339.68560504034,-1560.60056377719,-2943.13833647629,-1805.24174201248,-2035.21772053713,-1823.85569751306,-1962.20479042148,-2010.17719436062,-1698.92263584289,-1844.91777991182,-1880.68586622593,-1715.0660127954,-1787.4811270425,-2125.94862599904,-1768.09154761691,-2032.52647152882,-1660.10683742456,-1783.16826639613,-1721.12903080002,-2126.53020001383,-1640.84974740009,-2075.92706731072
-2253.2160034036,-1402.98694588455,-1900.11916689768,-1836.72396096556,-1841.84044267654,-1228.7026507875,-1547.91697116039,-1131.79422273162,-2532.11258598925,-2584.53637575084,-3084.93851378968,-2413.95844699452,-2806.98009542476,-3094.30641814937,-2019.90542956196,-2955.20047609934,9152.70910034357,-1170.3344862039,-1585.99867888281,-1288.95908765812,-1089.9628703038,-658.565551272995,-761.188424712041,-986.854709085379,-416.011918205997,-930.014016349508,-822.737811399227,-388.833787963202,-498.800987410599,-568.178209282978,-541.108497412271,-214.614181434562,-1660.6111187264,0,-1108.33269201704,-1017.66126436087,-1215.74559158402,-2233.80200515668,-1586.02263008017,-1548.82532734603,-919.623264514334,-1964.86139849312,-1423.64411327986,-1626.75845131234,-2578.48752531578,-1862.22734817135,-2031.73047177374,-1865.34177083675,-1946.42447252033,-1967.41183007375,-1774.84663519704,-1813.6449907003,-1913.16787936546,-1709.4973831798,-1785.51343702092,-2067.01888280093,-1787.46644911315,-1958.82952068449,-1681.09532241028,-1727.34845927722,-1637.48536986905,-2047.86973069026,-1623.75973843838,-1977.48113357214
-1953.8343895556,-1307.28536059352,-1675.86521807735,-1571.98402954326,-1728.39337153437,-1144.44610079401,-1355.46172210477,-1214.01021395575,-2411.12418671171,-2367.69666843828,-2708.70517696263,-2066.90575905751,-2374.56156819179,-2618.53980072784,-1732.70939675946,-2452.27776095722,7248.93712863986,-1174.74152528159,-1458.78102358103,-1328.05985273601,-1082.41138076723,-838.042138383686,-878.738795831643,-1019.03502891852,-687.704799866932,-930.58495399992,-512.85452404071,-511.090686482141,-632.510777137949,-635.808219636212,-922.635026955938,-302.549444244939,-1218.60359279773,0,-1205.0286664826,-1164.67547683399,-1396.25739176419,-1524.91912401319,-1523.36668095662,-1506.27208352852,-1002.73075882212,-1891.24312625212,-1415.38260395032,-1795.24240667274,-2134.07237982577,-1744.29842721641,-1925.27220300934,-1743.51524693527,-1839.34672029854,-1862.99358960549,-1707.60941723874,-1745.25569644345,-1689.38796343689,-1600.33982305422,-1736.34865389778,-1916.22067304465,-1621.72113269445,-1761.16506171728,-1516.21528165683,-1542.34203743732,-1484.67949751359,-1855.7291892688,-1481.03543294273,-1772.52605211176
-1477.79543425653,-1146.12781981566,-1308.56679362998,-1167.96446337181,-1503.13770649603,-1013.90745221811,-1089.42163062175,-1309.68236172343,-2151.56863094927,-2009.21806612925,-2132.54819200362,-1531.88609153147,-1713.75542886674,-1885.81763915912,-1279.08694729203,-1680.86525388895,4115.69808626249,-1103.68343276603,-1247.95292327022,-1238.77597872643,-998.127695198774,-934.163924454397,-978.129256368253,-922.670593959321,-1088.18186293078,-871.587820934733,-176.052965979849,-617.7031213932,-559.552034799176,-655.387695318465,-1130.89028587854,-367.858257075461,-941.478642606492,0,-1051.76401729473,-1171.38992854321,-1663.80076261946,-1015.74076311523,-1193.41859311641,-1220.12475966048,-1121.2237350438,-1862.68211797723,-1243.22926608753,-1909.71546161632,-1670.58639681303,-1385.03246277803,-1634.05704917952,-1391.04902257596,-1547.33394552011,-1610.95020338694,-1440.49662329855,-1539.46131667,-1220.54723150898,-1336.58646708111,-1546.53051684379,-1597.71230848576,-1275.13101035048,-1393.54700661815,-1195.78036425397,-1227.52368335677,-1234.18591719425,-1512.32277677497,-1209.77469215775,-1427.47155742265
-1008.12205547349,-837.613330197667,-926.191871615079,-728.150392524257,-1139.17267289273,-813.895140936465,-790.698069172343,-1156.37342159037,-1843.93649125862,-1594.45824498124,-1546.16918241407,-1108.90592108224,-1155.25582780258,-1230.14837584075,-956.130725168356,-1078.47116777364,2256.47564633246,-1000.08205979189,-935.619931699975,-1249.72737310951,-868.937636308009,-1238.68101814823,-1184.24607805263,-694.218998652914,-1857.14976604153,-1104.0596958675,-603.0094581725,-1117.64492877168,-342.655741899808,-1004.27823102559,-1314.20922200735,-302.558077449229,-543.53924302232,0,-940.406473999955,-933.803874521343,-1596.52769066565,-347.862552166598,-982.607796145976,-831.884509000536,-1017.68523010787,-1495.03337463713,-864.181961880521,-1637.94517649459,-937.556551122197,-894.056867811119,-1101.36841125283,-872.696359103174,-1009.55891402243,-1105.79336018012,-1001.67462088662,-1067.55436862546,-698.935583560374,-905.287821087004,-1099.33041589479,-1048.31231038303,-850.021993047584,-861.504778701819,-825.117301111283,-827.532240902842,-828.555715338442,-984.058791434233,-841.405403793612,-941.404904408358
-421.78425987058,-337.377144940601,-436.283384504254,-146.70485122638,-585.796457252177,-482.480788335424,-352.724966650807,-767.016397665745,-1361.15486661731,-1007.87392702833,-807.220961950341,-617.021225731068,-514.013439343544,-478.522628918574,-582.219766042659,-424.619459708387,946.190375844518,-791.340247208927,-478.578230687783,-1237.58102475268,-647.658206223995,-1625.31463626685,-1355.16693633074,-388.859017998374,-2637.19552825077,-1439.31092271172,-1336.03646489483,-1797.22167203253,78.4163288487615,-1445.08282536298,-1395.24558410995,46.0971726250572,145.851378580927,0,-807.767718789167,-342.692462572129,-989.53835392079,607.617247066167,-815.514912713221,-285.739947840803,-542.972907941725,-702.646472092076,-288.825646749366,-998.765971062758,104.580653802116,-280.545278627639,-326.770338115449,-192.723391968127,-216.491915773743,-308.365447652782,-401.662798548116,-281.71109059006,-120.249543501108,-275.470836936887,-345.895686031614,-221.831427305303,-320.447481866515,-117.056216246346,-364.823991581986,-269.320288659681,-186.959460298212,-227.458385422667,-309.094778848384,-244.537838208248
222.755431606611,181.663638428605,115.803221412796,489.521747348945,-3.3441199830928,-115.144913143833,147.321561641371,-386.740206406448,-747.659271249377,-331.300744005955,21.1658464728892,15.3553845451702,255.797950064568,374.232760742215,-59.5502578761407,355.656395881809,-808.780908294041,-519.818761205531,-25.767622459287,-1058.25188233989,-449.578408930503,-1763.91746742431,-1402.73192058796,-241.819478714107,-2906.58201038387,-1705.16638021307,-1527.12825781805,-2287.52017424946,305.024146393986,-1638.1261207149,-1457.01861249245,476.658387643412,953.081299767606,0,-705.562750758853,289.871154995386,-96.8431979052008,1580.32716787951,-587.746425685491,249.792040630938,39.1481059484904,229.713637154796,217.968227347461,-382.364645305253,1078.26575229516,316.62495019527,427.18114778292,454.187022630197,554.453212950363,492.242076811112,177.212686369883,507.103815548331,406.056702817488,348.376428685208,419.047946096172,586.755438613884,186.820020798205,625.281636816376,83.3908039964917,308.923748274921,488.661002515376,490.045896915882,251.309166397009,466.435013069365
660.970124379828,504.631700874326,519.497058723315,916.007890361267,370.302288086927,145.285917521905,490.261241758603,-167.546334477133,-242.64133538529,177.102591921703,633.248886381645,553.917071729316,863.493752208814,999.385993113099,419.419794519482,936.05565384364,-2274.88298245719,-306.511247789842,217.292941429159,-729.829045152452,-409.874610394871,-1452.86880901146,-1324.16921539641,-402.618620798061,-2462.09685284374,-1753.81450423945,-884.259338131642,-2243.18999284898,-5.90938583033676,-1406.95799890055,-1422.38353063712,569.177626873055,1478.32855845449,0,-725.224036884324,543.621519653821,565.081810954803,2173.75737031763,-336.512137008887,521.462203718491,337.989728595183,881.562988581231,403.390146296921,-68.8965668721295,1576.3448278135,702.262047333623,868.765055151389,822.478351624894,990.19793796342,943.948207012713,509.372282339746,935.595983964908,668.335262278691,685.731969901218,833.529319783642,988.174428466611,445.126389928182,1017.81575033033,308.957209450918,617.266036918296,863.489236018501,818.90964435507,550.955708291909,865.279426936105
885.432385197185,623.136595587013,743.09076410388,1101.04068315775,522.341118774129,313.540176117,645.384326181162,-99.1570892474253,104.634874360812,482.086222903251,990.482156804362,940.33728104258,1239.89727537548,1339.74460393392,799.311907447607,1274.43298858308,-3210.14321233323,-141.040661885854,268.394272735748,-268.821965671771,-424.043100727795,-742.852638369435,-1051.37957004905,-668.600621605563,-1497.56456921473,-1305.38357115543,374.886913061512,-1469.44785702494,-375.815186399887,-686.050909235032,-927.724521771295,245.486798104134,1382.77502474637,0,-620.421996115315,443.558984321398,677.043359024221,2082.61064804502,3.48507892447725,636.651239119907,266.51468493725,964.97629499194,338.817727374032,-28.7181524257846,1531.03208522706,869.795881011208,990.53202438518,898.69761013913,1084.72773497665,1034.69040123159,553.250727977277,983.680711520852,674.79677899929,681.44463926346,848.578469051245,966.101202040358,423.86853166823,1008.45018388947,296.305882575118,592.964660330465,855.047116574259,799.920103515152,544.931183526254,934.971182396821
1074.74929933396,661.196066784153,914.744176841449,1214.1455279567,602.882668764245,454.213876583481,738.834674572824,-119.57873105495,424.415161522161,740.093935499977,1294.66776031305,1308.54118232436,1572.10013187867,1626.46269815458,1179.57308660596,1637.59821429138,-4307.94225824709,70.0361508961842,321.685380528418,275.118038457462,-276.523311783449,40.7316250036404,-564.468848674073,-669.30469813449,-477.346935651119,-378.100983568101,1726.69184645506,-340.166286157466,-125.611571817391,229.285709306639,44.101475963675,-137.56123649487,732.560155578576,0,-142.780056854801,262.348154342021,435.036476405963,1303.00209822648,479.919466831342,853.279861543571,60.9935221921887,602.192028080933,266.823969698826,-86.2841655348368,1173.84312070998,916.870657920965,959.109795349441,797.878550422698,998.31271349862,969.142197596249,401.015236840095,804.870914038225,585.164980059766,451.457836065061,603.742106521429,768.564383263816,274.365899675308,819.386479378913,208.526983487392,424.563419343334,636.714380857144,751.235422179382,456.454530556035,922.997480920396
1287.06715735499,728.836826762173,1105.52809978212,1351.02911750926,719.7554575274,585.35655549441,856.161365005007,-120.594181420777,774.607602508359,1025.20411044377,1629.71561805408,1673.61724853936,1930.59124566069,1956.70085000719,1550.35966012178,2097.89141734826,-5476.18735982578,371.094505477227,538.286509184687,760.294792508469,123.265627082572,521.690464384185,39.8509259507056,-209.268337147874,175.033958187523,676.774530433911,2533.94755503041,550.233987834551,792.987099049622,758.634024568497,1154.25597822147,-88.5709652907682,187.775100536248,0,598.265971212464,232.305201890246,404.128934771382,332.618128239494,968.21912577442,1215.40060423607,79.2649125264682,344.333301600927,382.537972732624,5.66084220421314,831.120611144654,924.450461210703,916.596102934292,660.362459030114,861.176278481712,898.002754979778,243.128382126329,529.527859625864,537.030330757525,216.915020248343,281.02769500361,602.055948086465,213.538921115088,655.055536215248,234.684339636951,370.347521725577,439.39943437328,845.975372084497,512.400905704475,996.272708139273
1548.50254984325,915.881954925678,1356.77072748861,1550.54736508481,939.131316694752,767.119704626706,1064.62094469452,32.4443230103045,1132.60505802697,1335.34887257873,1978.33414382471,1985.51413626597,2285.7568520703,2310.43932653627,1857.33138763565,2553.39749538692,-6116.20972410137,743.017149718905,942.429804681691,1096.15558958948,680.49657706836,607.025840925018,636.827399826502,544.946398997075,386.700302242029,1590.16767508167,2481.41660205127,1109.42330525725,1877.45567139767,673.578506981964,2151.11629836155,573.725419592315,397.930626317606,0,1331.88501588926,506.503118593206,884.343990172233,-136.434384770535,1343.51840773008,1583.69741870209,487.418868973154,627.048249282198,725.07732005347,430.800710058688,787.634644364437,1033.76892483002,1000.4532791407,722.304030060528,863.453440768435,962.704799149383,363.30982999926,427.281284135468,703.597004538207,305.779271957609,204.915214538604,674.820811351372,467.401903041645,675.548108693897,538.78794686833,647.530403609924,485.636236535129,1079.65138041375,827.981528462706,1190.38700607244
1908.29308482502,1214.34258605332,1687.57360878484,1834.64492731474,1268.59608673484,1033.39489409843,1388.40131389014,327.764044073242,1463.24409780795,1672.88515476149,2351.52724391476,2265.61500984857,2645.67555140545,2698.27961368907,2108.77318294083,2958.80932687645,-6514.37607306049,1074.06871050041,1378.55248258543,1294.18116647287,1139.32307871559,527.75814496698,1054.88140193558,1134.85753124833,425.556228986584,2165.23651131866,1948.97408777205,1541.84765595103,2515.7281362353,415.979673688534,2759.29653963465,1450.75647730838,1125.06917039866,0,1836.76085078413,961.442531595782,1499.07605569367,64.1725931018526,1591.44714542774,1767.5956037186,1031.23927087669,1226.41843856434,1067.85923965544,1029.21762558485,1095.23096350177,1346.58423230453,1256.18057204062,1097.29229052776,1135.08149986746,1245.22337190128,837.892545080036,751.428001294165,1165.21354545831,814.103777504187,594.104741565228,1129.32367661978,1045.68064360608,988.243273881256,1103.88346642129,1223.47383939039,851.221323957564,1447.38968877669,1339.71395378859,1511.71184270603
2261.0808924608,1462.53045107096,1988.09154680995,2098.29500221738,1573.30772797986,1274.10540553192,1675.84738668751,582.818073416223,1718.73373376833,1980.70077768394,2693.62192404393,2505.3950000999,2951.70468844453,3039.01189510105,2285.11954958476,3246.23754364261,-7216.97693220822,1218.59294109077,1613.81384947697,1400.23584434432,1258.48323447103,583.011413701874,1145.79510446644,1219.56668103875,602.028113058355,2239.08108706442,1705.1530238644,1837.46762482076,2431.65303907396,587.226113847373,2706.40940495203,1917.98360943809,1553.55050224184,0,1981.32882600948,1233.05779230578,1678.36738957815,373.173732400617,1735.7864567907,1652.37748339649,1289.46130955648,1535.10267982105,1111.47102238501,1413.29558380426,1428.98393054804,1720.23979910854,1489.10728884947,1532.81661987871,1466.01899533387,1565.07770722211,1367.90954417455,1298.12711047175,1699.80769408829,1389.31639034514,1182.88423630484,1744.73013649134,1640.28753926871,1461.55047276122,1655.60153183615,1772.85494207414,1317.64589066383,1884.82237512978,1811.06139503239,1884.17858162423
2418.48073543003,1527.53928270334,2119.91496944118,2180.80200727705,1699.91153824162,1373.99759830787,1747.07112577824,676.956760348896,1869.34393524843,2153.93061404423,2867.40078622254,2615.79942505575,3067.26227302262,3166.8856297857,2328.84113207833,3298.34057034122,-7856.82770081957,1169.67307790363,1581.92240374531,1454.34966289004,1044.4172599617,846.826631985566,961.589890533403,915.208902106215,922.243374814909,1906.38035749732,2063.08713516344,1834.80468796931,1915.8168879752,1160.96934371146,2157.2793878161,1741.48941374655,1342.65485625651,0,1790.27439751151,1148.99244113749,1362.24321202307,211.599867187282,1779.55452763447,1320.79679981962,1157.84052347387,1297.0945843156,860.678041825092,1437.93607655009,1399.90881952631,1924.81079218721,1509.33337747675,1724.96031783494,1560.80455173505,1688.80368487065,1659.3406061855,1635.3948314369,2008.62516942536,1675.6793988004,1544.28210207267,2115.34498548118,1959.23208621805,1810.62268495099,1936.40258086133,2041.18661256096,1606.86879161577,2195.18114883687,2054.40785201793,2147.3352084258
2360.39710250013,1433.98400630048,2083.26756783493,2061.51417990091,1647.20607923817,1344.78031030288,1644.8369198261,643.239636241824,1913.41586998998,2162.03559184369,2830.39615792675,2559.83065061958,2972.71426557876,3064.42600019302,2246.01315495233,3135.17723342976,-7960.57552097474,1045.45528622163,1418.73350416968,1458.07634619442,720.035380797823,1113.17763123599,695.800809204168,579.628671942978,1114.82946325532,1467.86634936486,2620.64344116016,1489.30517191046,1514.57225466847,1547.83512765758,1599.59510338535,1257.11518388174,810.124443045515,0,1471.2839132735,894.767359973191,923.2958220866,-213.070519733311,1723.957309615,989.195980527836,928.823618831196,804.097879019281,587.138216972458,1291.65573526691,1066.14246695219,1926.03976574549,1425.19043869164,1697.46431952813,1477.49972545322,1654.70534440307,1718.79515831471,1680.33107090484,2039.25431989746,1701.52513593277,1623.50239722451,2126.86337671928,2000.49316639471,1912.83892894515,1940.83505723664,2062.05344959164,1688.27275639179,2209.7526003165,2069.14652409487,2200.25822238612
2210.94657092401,1249.82712276163,1961.08822391759,1839.32919856132,1503.50254027144,1232.44435316812,1529.7210866086,522.740048957234,1856.35010836448,2066.05599801966,2682.95618946766,2417.1838904655,2799.36991142873,2884.17750802507,2109.91220142,2933.43297549481,-7977.70742166016,926.470614300107,1253.10816715809,1398.15782681448,493.963268179127,1173.93092192814,493.268661014992,380.13281980421,1054.98572677563,1148.18288686158,2900.90565020972,968.180481410623,1445.80539320866,1476.17459140036,1266.10713539509,959.23696520619,333.348710545683,0,1265.14332178776,733.709040808643,551.933662049515,-178.390888738452,1622.67209444328,804.216339741894,885.147314242363,437.505848320484,473.261785139894,1155.16068066682,847.245120599756,1842.83344668087,1433.39800060854,1639.81157152896,1452.2415980752,1607.64285914608,1657.95448767344,1616.07272650224,1915.66102848735,1642.92773790514,1592.29971761524,1944.84296098103,1901.6075469288,1823.08196669029,1800.13830612434,1954.26856623431,1655.65344358688,1951.07646549366,1936.124211876,2055.76278161204
2059.76474039554,1032.63382806047,1819.26655090427,1604.72618223556,1349.50048868973,1073.65625088008,1464.42942214781,356.291215363913,1736.77859585781,1941.69291647635,2531.54851330938,2274.7557764374,2641.97873086787,2739.00367053112,1972.73064697825,2803.6293469419,-8353.39318125197,829.65423251192,1112.89268967776,1298.00668555882,423.59814394928,1049.68517727563,391.841990348592,239.942197578332,890.25011750965,971.057149027677,2807.92423844465,497.029720138285,1353.17440048127,1196.78406464459,1030.29215510092,940.818018782493,130.012571215907,0,1211.9119763205,736.562086485076,134.289036228039,485.612514951487,1538.04523896121,749.838126814482,1000.00646390808,331.165875089149,511.188224304604,1070.82471935056,977.875101182465,1765.69773484369,1539.45555387067,1620.82280572583,1526.69813954676,1580.02468435916,1536.74973855886,1537.09001101827,1756.08241668844,1565.98829160736,1514.96295235962,1747.02070165746,1758.513167962,1627.8294983459,1630.77373771923,1784.28862019013,1534.92204470035,1631.47878992666,1747.47668070952,1806.62355493481
1938.42730751036,881.558740615218,1709.34200456931,1427.52879565806,1269.83621580057,954.38005802006,1433.66736316008,283.863541528345,1628.80542044317,1847.66364004223,2414.08207387472,2141.55749977602,2490.93076562719,2629.04459217381,1833.35102562102,2693.61510591152,-8592.05702708961,766.732467394134,1006.04953904683,1184.13598268367,445.63312341648,860.635385049728,364.873839491678,93.6943539505791,740.165608912423,863.902599255254,2420.26724242174,189.911238898245,800.147016391647,869.809545848879,833.942364744509,931.459735372278,435.311225163444,0,1181.4030686497,847.336516143167,-197.011374797474,1213.69589922457,1439.24872721651,770.728229697603,1162.11947336367,514.4641520533,691.721795294529,1112.74041962282,1371.15649177674,1722.45451370817,1661.69505118994,1625.36590100589,1617.81345020972,1589.74334735274,1449.87104405742,1485.73587848016,1654.20822936876,1517.29267366094,1435.8519396582,1665.19493267441,1653.82883750766,1459.44906018883,1529.73291571545,1645.165320939,1389.8739227612,1494.92917366992,1618.56733740681,1601.12680857923
1859.94199072258,843.895639073224,1649.8978590429,1341.99128700261,1295.95478131437,931.372088447209,1417.73841885955,386.956601222145,1572.52213632558,1818.60963789124,2341.02390926406,2011.62967411318,2348.86289054003,2543.59826278897,1695.86425562397,2561.07683552617,-8294.39019773649,747.98841598695,961.511031533709,1069.31489429915,504.042912871115,658.187964956855,391.587424541183,36.7082409097197,615.898082040904,860.115669273968,1847.8255983827,158.564870625432,75.2608790282391,518.378800170732,866.687942943475,897.400930184981,1267.47635701043,0,1181.70965273455,1102.69990133634,41.501152679192,1641.53814034651,1298.79857846149,913.835567722047,1434.17041984441,1002.22194464333,1048.16749493107,1361.85604417497,1873.71156167105,1714.17639467627,1761.81187236605,1664.5135853899,1690.99913705596,1654.51905708836,1476.50235726813,1519.08559240245,1650.12486384927,1554.9809779156,1450.16020929717,1733.99318463244,1643.51226010826,1445.99703354132,1526.91004356326,1611.86821801115,1343.61655426818,1584.6297975879,1593.91599129777,1534.99696224192
1811.06244615578,830.19989375727,1611.42376892504,1301.02341246342,1348.8306837758,946.371786271986,1389.4022523923,527.381400377647,1557.37006517918,1843.3141545033,2317.69219319183,1927.25154783283,2263.28845146164,2499.91814139963,1604.20929845041,2478.70540293916,-8041.52077632082,769.131234428354,986.999493680619,996.124861357925,610.725557154376,498.627582438762,473.95194228753,198.639694376207,582.042786717756,1062.42405179239,1361.22164464184,507.547483993536,-12.7725224936135,405.853315293982,1209.70527250988,1111.35680650901,2160.34975792705,0,1378.17853860461,1570.43669678726,956.188116940795,1963.41786955877,1254.82800636708,1251.118093611,1847.43623056029,1634.04665317024,1501.00245670662,1716.25334201248,2310.9567296877,1723.19256593584,1798.67847121133,1731.34699972421,1721.18188717186,1699.06980872976,1551.01653446188,1601.51495027899,1687.54530285252,1635.72343734604,1542.5377315829,1837.95564530835,1684.76575823331,1558.62087875512,1549.81998216702,1634.12668445779,1396.24362453446,1716.86159304569,1593.56045721968,1550.1139183789
1736.30386144263,732.640827271831,1544.66392942892,1211.59693545517,1325.09618286803,913.250325477377,1299.49089454998,547.820980571762,1550.61373949414,1847.99133531437,2278.92342046888,1885.65215498313,2196.58556570082,2440.74164777074,1548.56419816717,2433.33740850686,-8224.21710095028,775.695133965006,1003.86417649808,971.716942238836,707.674514706303,467.258857605496,537.891622464999,460.237472586686,684.933764785747,1318.22995121714,1209.83797909238,1010.8118658432,546.625170745514,715.388461211178,1541.04743884621,1422.49362163165,2594.97106341543,0,1673.46649092929,2003.90951782435,1888.99011584411,2240.91872429804,1411.69440985032,1637.03033533089,2112.50799763158,2074.08769472764,1811.57310986726,1917.6107293431,2408.09552548775,1689.15284044454,1712.70050190824,1735.39549946731,1645.99931100133,1620.16927982598,1541.01504198394,1607.58122123333,1670.45655468519,1636.11397426735,1570.9778886102,1821.3235377953,1672.06828510681,1620.53547314156,1510.40989939693,1596.82837819525,1405.15118770619,1694.55785799903,1522.89700363006,1497.29314995396
1548.28103812648,520.41135760717,1384.87976888489,994.309986757601,1174.05098979197,794.362864718584,1083.41234813778,455.552508699864,1479.33994038565,1724.03047906038,2071.18943875817,1766.5673090819,1996.14755517091,2210.76861436271,1420.36344240253,2227.24929843865,-8173.45389742291,679.855051331825,870.496120180505,927.793590772895,630.017772878873,559.954571378282,457.870358432394,476.5814432069,822.800833181513,1266.64797404314,1304.0681300247,1209.51862325246,745.668265647782,1133.04255003118,1414.31247396961,1141.53116707487,2367.83310358764,0,1650.39163857209,1852.85037434703,2008.40892210246,2096.34414127315,1579.44250791578,1675.46508197664,1795.74711978136,2003.65839799052,1717.65573554057,1740.78466511427,1971.82728826565,1514.46740414705,1462.22383139229,1559.40793176996,1406.77952469939,1368.24983386899,1376.46826993388,1433.59221309572,1520.53180223104,1468.69912169365,1418.18304527352,1596.81470434182,1518.19322439425,1467.12867148782,1356.19902328509,1414.58711387838,1242.57833701406,1445.75522434333,1335.35874491219,1261.78665572043
1252.43727080192,238.582488601098,1132.25825782091,673.533376792189,932.680286061775,614.495865979433,757.280978337816,324.470758701808,1311.37629640158,1467.47080520421,1672.95080782617,1531.55788227243,1643.09276305241,1807.38642674782,1210.67948603472,1832.49889954791,-7524.54574101721,511.017019179341,583.88162723349,882.336612430212,388.925021345455,734.25368509138,288.758867941411,184.921500804525,911.343025190614,913.260263200305,1447.22377640855,1037.3533543363,180.937145533342,1316.88346405702,863.372782263387,157.828316684932,1501.3244158999,0,1214.56669935738,1002.61913199562,1154.64197720594,1361.47688474375,1561.97918718644,1200.44565869825,900.313317807385,1370.37447471835,1205.63233872315,1205.29578193518,1166.64501409721,1208.86430564624,1088.5159775302,1229.49542632193,1046.13326065785,990.182098715181,1100.45662043487,1112.00141096255,1250.3379390169,1174.77587447178,1117.46277916777,1214.97149934003,1245.92493859535,1127.80535260554,1107.0476307191,1110.50152174372,938.488471321289,1055.2314765391,1052.51209210798,887.744067876681
998.532278795233,-19.7392309888201,908.520490306367,395.422883010916,716.573629739698,451.427095768234,459.418037799022,190.458684395965,1155.93225460476,1228.7803297799,1311.39715798981,1341.95900474453,1355.75139579312,1479.17969204018,1078.99481633596,1541.09589660826,-7118.01150490864,407.050831586327,339.182826797679,936.447148967837,229.892292431204,976.670128920055,237.568955781159,-35.4164682653256,1002.81123071721,703.361814777621,1665.2392473674,887.607725361091,-298.979739844357,1359.98988767745,452.022385819119,-647.001642597939,367.29499526628,0,806.804426278814,147.721435593956,-62.6368426385394,471.904016642352,1461.12536742697,607.233783330938,13.2746385639861,519.295982834887,611.850509278565,611.782445619138,401.000696651491,933.452318020175,730.544257412811,924.726357212925,714.243329067236,635.422663854312,837.392438429638,804.574931322727,988.476892408152,894.304339917751,825.190049957092,854.419560241415,988.419179169738,810.994025529797,871.716167243615,823.968176454652,654.852782737197,712.970961627206,776.684316773873,564.640417233199
849.381590217111,-207.037517281972,773.365749320457,221.696354032993,584.92135365477,342.334860028074,265.812306710816,81.6599511638739,1105.10579258627,1094.09144236907,1127.12078755558,1263.28060815844,1233.70302017911,1332.39270142354,1053.94053665782,1467.57031893434,-7316.09958807143,390.70833023883,254.860732262027,1031.85799843678,271.705224275056,1152.4445676429,356.775114445617,82.6428635291915,1099.57418141931,861.889472153532,1901.50034660299,975.492431689173,-87.2954622338799,1409.73966760753,507.812167102935,-728.752858132273,-431.55270638481,0,687.527600867358,-130.598612907242,-1043.95039181119,-120.854473841745,1371.44468366837,293.911012670664,-425.359785529407,-154.171214234756,231.659287772539,204.817895354426,-104.490618998275,749.774799615184,477.531478226901,722.703269636177,484.405669440389,395.462163873296,637.678820368846,595.028390244491,794.298577338823,682.188828164639,620.980674010003,610.233267986417,797.666256066242,619.166219138993,699.268269140846,622.272581061795,467.17751510585,498.927407802152,564.949805055737,373.04890723918
692.371615974358,-328.651316090815,639.458809144342,65.6341037365983,505.634811393228,259.015278247848,106.134906909902,72.2886299134503,1097.26299399939,992.460207050518,990.328035366104,1130.09728589986,1088.09629925232,1163.2773005614,949.331162315828,1338.80507153543,-6984.0631991437,370.353954293394,252.313434583196,983.937264874734,402.113180092987,1039.44472766679,517.440343824438,405.524308034637,1074.08256076465,1156.81938659785,1787.95726426695,1134.69779890231,376.17888224736,1364.34711371905,744.471227506856,-572.567230605566,-815.14662743167,0,636.453645060416,-62.0826554209614,-1694.34672140863,-516.669430839328,1185.33980556102,184.513293450039,-573.426023954348,-652.420047900347,43.6960794259493,-66.0659471678237,-442.564724124248,548.486851026002,308.248050899526,538.613725716603,307.807444025936,229.705276701026,455.320233551206,433.251974623297,592.554371122673,490.127366010566,467.14417540965,420.73596987544,602.788200734909,469.434038047066,533.380280762832,440.842973449241,316.637954704335,336.606830190855,377.431358367048,218.366175078022
546.179802912575,-344.284916223516,517.471157344676,-44.5799854477338,507.104976665348,211.879649395811,-20.9200174576821,199.959052617724,1101.18047313978,934.35019366636,879.243320347823,933.592122051995,886.778101821727,956.725170505874,758.185865978032,1099.72037032208,-5854.36648873736,344.404968433477,281.201973014782,802.682345298811,531.697633726343,707.67970775123,617.562143453539,728.111130264891,901.360742180738,1362.88949798197,1291.93520628786,1239.39443992401,672.550073253953,1218.42538962412,896.716356557875,-559.935823908751,-1247.17894596329,0,548.93724928815,28.7334340763036,-1953.97734995565,-973.643792572064,943.122250208121,188.336411557611,-607.411906876162,-1146.81093742211,21.8507418363568,-284.553389331928,-702.112851720137,366.284502047415,255.490013693057,408.526349672415,227.074562589675,164.319246210034,347.200886859495,360.185548600929,435.544292695004,377.984941471959,413.620976001343,321.345776554274,455.245564051745,386.622386840102,418.715779484809,319.026978811174,240.178779884984,259.741369206978,251.716230399157,125.253011855051
716.9624399799,-182.022712167084,642.337711433406,131.051116595851,714.773200481942,280.046487534902,68.038354091864,356.494065512897,1285.67533016009,1132.5614655194,1118.38846232407,1050.64897331702,1053.45288661757,1171.82558910939,853.691821950251,1280.73056630376,-6295.88912004664,427.925559959759,441.804802535151,790.916100800903,697.596228628591,623.228585595435,673.847107881509,1013.03098450844,801.665078878583,1559.87177099002,1184.25621227572,1401.80353726539,1081.55032393314,1254.94742729014,1175.78677521638,-362.092223395991,-1721.29321611959,0,701.221098539643,295.668318003994,-1564.04788419495,-1260.8007161689,971.572865905163,531.378242923111,-371.020741741889,-1486.1373569631,296.906749262888,-355.157564254576,-728.712277621068,509.076906456957,484.079869923292,595.221887979506,444.305173362637,384.973633649756,516.77520022188,573.747715118918,604.300725772417,555.209137041827,646.268795239776,543.574040106536,603.762600318134,614.748503149518,561.824814254801,484.887788770656,438.032115913676,493.098195761371,375.202115460408,342.307470841633
1410.87462015726,162.476430416792,1173.26051859304,731.547690062597,1186.5478784436,514.14826174177,501.189968775278,434.943913243148,1828.6205121493,1734.43741104765,1953.45778549627,1765.65596148475,1925.09191004621,2144.87731563864,1508.25207567341,2300.02028714531,-10216.3586962214,692.357309409323,831.433436004539,1173.21991289212,963.440552350472,1054.23191148055,778.736728794307,1326.74173973112,951.587627554178,1904.14960625486,2050.4811117959,1694.55198281067,1864.5872662154,1630.36158916498,1773.84915940087,222.259871683172,-1594.48910216594,0,1241.4203394496,849.359769325752,-673.966393984488,-856.30777522803,1448.21259221831,1283.15572408673,147.59813220099,-1341.95016331281,836.641666771356,-207.902507643513,-301.395171697145,1157.01855023564,1088.91868545333,1244.64977588073,1067.7632306604,994.00619841403,1060.83228168814,1174.46961696118,1247.81586051046,1120.46762737453,1250.80119832681,1202.11609076361,1176.83549929684,1288.03217623769,1065.4691386852,1062.5707833689,1008.51714121234,1139.32684999191,851.213623127365,1005.56342172031
2305.91480800671,595.150846498605,1868.00109595029,1501.97166549653,1783.26927562539,847.339546577654,1094.71831250751,545.282629585284,2600.22731980179,2530.51025981168,3056.27020264114,2704.1477456586,3071.34649821808,3414.64435973703,2345.80435334727,3634.93831039864,-15193.8827758593,1045.38327903175,1383.25953462361,1687.67585940748,1323.28098761162,1559.92366970882,963.943520326124,1733.38732274233,1164.76386714599,2287.04054236586,3123.42119328641,1900.52652362388,2666.708342355,2012.98770121492,2364.08271973856,877.036296877937,-615.257966379546,0,1822.59845703574,1420.29581908391,138.244346347902,356.580280903281,2035.27412443331,2051.78759986147,684.401289935313,-636.008554126109,1378.3802349026,119.729207843423,561.744956172691,1987.15495348363,1865.87133480728,2061.13727673216,1871.29863279832,1775.76383520669,1756.04764559655,1948.61074242559,2047.58436988671,1836.51992655495,2011.29787943895,2028.16135580011,1902.28835962776,2136.64380184198,1703.55152677904,1803.30406088336,1732.12337413236,1941.02828750814,1471.43674794496,1847.49004878321
2809.08614279012,991.82987575271,2282.25888851018,1989.00961716991,2258.43170022845,1142.91332751625,1507.51578586066,890.664469341507,3226.93293656139,3111.00846385126,3775.48697870815,3152.02229884038,3651.76193703034,4100.6940645721,2685.73767656446,4264.49120906525,-16616.59126637,1318.93245392358,1902.59857458796,1860.06577591921,1686.45981438191,1542.83926886625,1143.9710069469,2205.08117323731,1162.7606773978,2397.22778975675,3103.87895538508,1733.90149663296,2966.7587367152,1952.66562665101,2496.63457126663,1361.44295497476,754.485602336804,0,2026.19390677604,1776.04892636399,721.207147306184,1919.39980833865,2224.02056999805,2455.13754199309,1128.39639134418,456.768923471465,1769.15137637202,645.567568428294,1578.58422703369,2450.26386480504,2433.47942316836,2548.92313507662,2444.36139085396,2353.77928818165,2226.97211570092,2506.07560108629,2492.84625928797,2306.54823305966,2545.11262108098,2592.33604368655,2339.08324166819,2700.69090084442,2111.65856150428,2280.63179313238,2239.78743232476,2495.58927741507,1884.18944173925,2413.83020558949
2727.06985850452,1277.59509562798,2271.35465974012,2024.00651209266,2469.59548883478,1319.19341587103,1613.19602916218,1433.34666634024,3479.60793615749,3287.90520350348,3854.82206915045,2922.29962031586,3427.83548536555,3926.31939948305,2404.68007625291,3907.89539826099,-13528.7073340651,1455.27467460971,2218.91896975508,1654.64829745406,1928.38550400642,1109.03019112317,1240.96025085023,2551.27971088552,1008.83028220448,2114.76506428625,1972.08202581152,1262.63079684302,2681.75487135574,1511.60819153621,2202.11019083531,1743.35667133274,2022.41479507235,0,1952.01397955418,1971.43290478747,1421.78812004609,3191.35055550235,1999.28419655312,2556.17231281378,1565.31253677199,1667.36834419625,2065.71737175925,1339.60041012004,2402.89830972066,2388.71979787356,2604.45600158928,2546.47511481851,2586.9771410542,2548.29698307834,2323.84053294988,2636.87829264195,2448.10700572695,2377.14096660778,2661.43012005604,2722.56338770404,2351.81329100236,2791.51123524331,2164.9025595659,2328.55084974709,2356.74567694973,2636.3915596302,1951.33978148674,2518.07376779755
2410.83093318491,1438.21424547608,2082.45587885863,1847.05575240755,2471.52290318822,1395.75834717947,1561.01270359419,1883.17052639042,3468.75540031451,3218.12888575484,3618.65538383621,2500.93732581307,2948.11317750405,3434.78778350133,2019.85047712589,3259.39914557315,-9561.36399491658,1534.15740768574,2300.84442586747,1470.87929869467,1989.32448498932,856.453564436727,1281.85179903506,2549.70361663658,975.298203612147,1670.79594450147,939.785113690193,882.278635866395,2078.47989454002,1186.61341824692,1818.19258140325,2046.05009146182,2941.54445426197,0,1980.683516582,2144.41256163952,2334.76503771647,3779.42370993822,1819.26949303922,2596.29955272902,1999.68876649095,2679.06767134294,2317.66864275292,1985.41628352455,2839.02561428472,2135.45113952409,2520.48612575751,2329.64984609661,2456.92716391812,2473.52158255955,2224.72943751521,2476.56143243445,2216.18434944382,2234.19287041524,2514.25033495447,2584.28687532888,2176.82362765157,2605.74419944783,2034.287235727,2142.32063369185,2211.74260636668,2510.4022732772,1811.49663955281,2350.95860046601
2222.4658642341,1495.0674963363,1962.62577679534,1725.13659710665,2396.75951136995,1430.57282971962,1512.68890037776,2067.30503722447,3438.27847181339,3126.46816075417,3432.64600425332,2313.59015823484,2708.27044238911,3151.68329195368,1919.22459643357,2941.81382191907,-7726.41520530787,1637.68059347271,2248.7723913812,1548.3775546218,1940.15382179163,1007.84877081834,1350.58048965141,2222.45472752889,1158.29366454734,1353.45172302819,679.039528970261,820.042967449039,1394.82008152727,1231.90148648614,1437.92550381747,2196.26701755633,3371.73666418535,0,2064.82190917413,2355.67996805304,3208.30056578251,3745.31820212309,1894.48315010307,2588.41607958141,2355.04639906672,3290.25105162755,2476.97352310924,2422.68031680477,2928.40541114058,2001.35548751724,2398.81069754697,2185.34694409991,2310.62943537003,2325.93969010212,2151.7253999658,2290.1795660501,2068.66658127421,2102.70916691071,2359.58557214646,2411.95955502775,2047.80088455069,2407.80546515706,1905.54631242166,1964.11022832959,2031.58575676816,2329.82290613262,1646.25752082356,2170.588411998
2092.86755971019,1450.31901592176,1853.99348937878,1609.37592530852,2260.71837237962,1409.74534092525,1439.53388855192,2073.27250576338,3413.61582099952,3006.91309033224,3244.08946201221,2221.83774672524,2564.30369028358,2948.39865766201,1914.3118731269,2765.64247822773,-7082.12218115311,1709.15075593697,2113.9880455677,1698.72142154832,1830.07400467373,1230.18617685931,1424.50260700082,1755.73145337989,1387.97626172005,1115.49567996652,622.577811849963,822.669003519377,678.256727842882,1355.77060422864,896.397413037968,2161.91626892998,3327.40591581671,0,1768.77302501899,2480.17104872809,3799.64199548989,3425.40990895535,1876.7576412346,2356.23117495599,2559.19454593638,3545.45326623461,2445.6778260046,2681.57587794733,2795.30326706451,1890.21256435724,2238.92426621322,2047.62891621969,2163.89100718255,2142.19991646946,2071.39205077928,2127.97042007697,1914.78630070387,1963.31589504862,2223.79881716379,2226.32679761999,1907.8004718566,2206.14249154401,1745.00061474251,1787.62616997652,1860.67823859148,2114.54632339537,1463.47405716563,1989.08482211862
1732.41447431577,1244.03951305285,1546.00642414691,1277.43600237208,1944.1685136443,1239.58439315677,1199.13471020022,1968.29120330889,3193.37879802868,2674.3917751163,2780.50949208734,1879.42885392902,2128.97205565852,2417.28497775881,1645.80164939983,2233.82901785435,-5529.86634679309,1580.49165085389,1782.55127274518,1626.92010851856,1537.2341305448,1233.86379837751,1330.97726520186,1171.39714745209,1471.22934704885,696.144632899017,190.107009274906,554.107698344793,-153.676246693674,1179.21519778363,241.75615422018,1792.8311809629,2883.38350201777,0,1004.33655487729,2171.7145030155,3865.52946631179,2982.8639565565,1432.20876860923,1788.33929821104,2463.62580782933,3541.88933186559,2097.12826236526,2739.05095710963,2444.3547814462,1519.24848549609,1856.25008892502,1656.58607511206,1802.58143942195,1774.14214522985,1768.25433638469,1792.50795338789,1508.21004835517,1626.50690234215,1907.7826666676,1839.04593868946,1550.89654439406,1803.33151476611,1394.58626701465,1433.13021149215,1540.05740771329,1707.89884541819,1122.1801280615,1622.95788624748
1099.16803683214,823.499442328188,1003.53195010306,685.920621601508,1375.05593571348,881.476778424359,756.487796178909,1657.37313900609,2693.36951381481,2063.30698025037,1997.32127865406,1273.85773411602,1382.94315289659,1532.29486535799,1108.64540422815,1335.91472781064,-3281.39490177644,1198.6760522535,1179.4507566507,1323.82966046227,1001.53299519915,1164.09885535591,1042.7035131801,453.880869434664,1488.77573837061,207.1049885505,-225.232148013536,221.619350972247,-1041.74466637006,793.542028148587,-169.148550613084,959.012605607031,2048.35970111376,0,207.324246538053,1260.15385916704,3299.39425478625,2279.03227953933,752.23823839568,930.643722247628,1937.15293556392,3234.71171833928,1380.21135250508,2469.28488407735,1791.55141007551,846.124048612643,1160.05985322318,957.49821993782,1110.27118486618,1104.71365369744,1171.97754447522,1142.48821992893,836.189640651269,1024.1632927038,1285.58875973728,1130.51267229767,946.477450960532,1104.89378443865,837.626516482209,839.147978887157,963.013619405873,1010.56837059981,548.335843546277,982.992201585234
414.269202418316,251.198940970669,385.405279612088,9.47515782994641,646.121757998466,416.872153246631,234.267292933192,1119.67669616519,2056.64783979523,1320.09257793897,1111.8198986366,644.426648638306,598.720386537751,608.118381774248,559.020518007014,455.609804167307,-1767.44298590473,730.701306071462,468.21363206771,1026.38232255459,444.205662857873,1298.28864142575,820.819258655657,-135.799949377905,1684.96012335962,115.618387033033,-25.7617649291171,326.070344698965,-1607.80545979637,613.980610320368,-170.477344568202,32.1566550835549,987.455934487407,0,-275.466617047024,112.654057507977,2444.84843956755,1265.78341930475,232.13896211509,-80.686013453485,1156.36672420992,2586.15686886911,483.146990667009,1935.90678665891,886.066352635464,119.002789998271,315.210824350982,182.448194615866,258.008850572459,253.034928538129,466.136083098866,312.805864813397,134.583635005661,311.807976913776,482.426653843028,243.54954176364,285.268665682744,266.05106842141,236.115352908652,152.416028856231,236.954691994,140.010940717882,-149.547524298205,204.811045125211
-169.197665619099,-307.450048961054,-178.479597274652,-588.029939509855,-59.1563396935366,-35.1803612933428,-241.871881536889,561.519875390762,1431.84462938669,618.972379238521,313.349675128156,86.3334624173308,-89.160226880205,-177.381158863237,101.42755578693,-236.469185490771,-963.338793802739,352.936522932198,-118.436161299482,841.085881578333,98.096712555913,1571.03921805583,812.284440963194,-336.620147894568,1992.93245455043,445.153902304186,502.752119282751,785.322432313516,-1575.19462042328,735.243482441199,-48.6785412246365,-490.720571608133,69.3556449062886,0,-536.046045903255,-778.418937568012,1727.37130924916,207.122477967239,-57.7684937278886,-1071.36016670792,476.818268584323,1731.98203669627,-267.380058233721,1389.8820911233,-39.33727575117,-416.569124365728,-393.000847805766,-419.332675995573,-459.954260998275,-496.922337868478,-119.060493320927,-413.289413473581,-398.832049397089,-302.391473935797,-255.634612885828,-536.992316692748,-245.514752719498,-462.667411557288,-256.756907576089,-439.039999603217,-427.331632224699,-632.25516686386,-784.256630386633,-478.089449651629
-666.112342274927,-724.006716843577,-668.207991116674,-1066.78559305863,-621.39193152209,-409.694536354792,-642.307965374422,182.714466405984,855.000411925028,17.9713807098358,-369.521633165565,-472.27527445176,-733.733896820788,-876.324371299212,-369.896794902168,-873.11707570898,165.760034058888,49.1594182309853,-527.727411594181,592.594404728175,-84.2357076310327,1595.01525510505,790.617295227497,-280.833902054644,1967.96873335452,611.68435064929,551.015583768522,931.128843560381,-1249.54850359846,751.990100751087,-173.062872119151,-777.001899225315,-493.312528232282,0,-810.533685830412,-1340.3685356149,1050.57081321195,-630.636827697664,-335.003502053985,-1861.35200341887,-50.1171693804008,840.752251138153,-754.378977816687,889.792495047835,-812.637497275923,-752.055709423418,-843.878241698076,-812.539519443682,-920.428769426789,-982.28267315063,-508.386452755956,-900.086789899069,-754.139236457323,-734.763198768009,-795.035131748986,-1055.20939602137,-610.29844466573,-963.251702289387,-604.105438659993,-855.21003738443,-902.859376159836,-1110.50601224875,-1245.61550783617,-936.234485152322
-1091.68953076587,-997.165592024954,-1081.34113717858,-1431.97923640535,-1042.16432585516,-706.197231195207,-967.207694987506,-49.9211443292559,326.736111559147,-496.180447189028,-956.961750832758,-1028.01173275888,-1333.45041339422,-1498.61022679603,-894.722219520598,-1501.22323222759,1632.41485390625,-277.130938055587,-827.952686884526,122.961144413097,-253.523717975119,1148.66213173645,526.710067960975,-207.608172071876,1364.18670719791,276.567406370201,-139.195139513507,457.369024311308,-1064.16271332798,325.30721452835,-543.685156183819,-1155.21709095442,-732.771761075743,0,-1118.66259906695,-1666.71920184277,146.878067961525,-1154.44229018162,-720.023212328007,-2288.80196475152,-574.829159410532,18.4222685487192,-1078.81900070034,312.674064820434,-1363.75904408265,-1012.2530860151,-1129.04037478272,-1078.05798307355,-1203.11740882988,-1264.83717271966,-738.299094452874,-1201.95283559528,-991.237286253298,-991.045425461272,-1129.54473111967,-1344.79472113143,-841.664246438492,-1264.2952254684,-824.531971453805,-1098.34685774558,-1176.54169918548,-1330.10897852951,-1532.88189040075,-1204.9326681769
-1388.94729013659,-1168.7212926548,-1379.54550140174,-1661.87628930321,-1345.76955273846,-922.589222089409,-1180.24774557033,-239.094109910828,-122.212728466177,-908.539379044412,-1416.8754042907,-1467.94112369012,-1785.65598650063,-1945.49213196825,-1350.39445614998,-1990.63899689155,2651.50906939209,-605.155039618307,-1041.900747288,-444.846391151023,-434.922556846812,465.940739558089,103.239121153088,-145.045037835769,491.053404240449,-297.099148847621,-1112.86042623794,-242.572536302655,-989.537734549352,-346.187085531891,-865.426873405558,-1292.10510239564,-704.276738950409,0,-1285.46584727792,-1656.6098358805,-712.189606076227,-1288.45337750598,-1091.07678762504,-2270.93778163337,-970.187564267048,-580.98764815634,-1250.67561007651,-273.251662077105,-1542.31745264956,-1205.0613828119,-1314.1020999403,-1199.66274553351,-1354.13658418404,-1426.11713611171,-807.165088827286,-1335.38570510196,-1097.39592387249,-1046.01280023287,-1227.52372543809,-1446.63775655938,-922.287516843451,-1382.62634264217,-918.397418853632,-1174.31349864466,-1254.43387815079,-1434.63456981872,-1682.90830372972,-1358.20523509307
-1558.86338661964,-1255.23755262196,-1567.34710047334,-1768.39055032219,-1539.79286469968,-1046.82033962354,-1287.31488440334,-369.08035135078,-476.027403214149,-1207.13350559371,-1741.3633324488,-1759.59978438671,-2079.5069148468,-2225.36694151465,-1663.21481562245,-2329.84328327163,3239.15069337155,-860.140393986484,-1196.0901620988,-900.248013230017,-634.795037168243,-78.8493308496133,-318.556366595675,-171.4194561019,-200.124160732544,-879.606929858316,-1901.36022283678,-793.065732042735,-955.011170220049,-844.468191132765,-1080.83040425386,-906.467075463974,-545.113069216932,0,-1292.79867568055,-1386.89115997805,-1073.49247674271,-1099.50216506113,-1342.6302931448,-1993.48083952293,-1069.48638987511,-874.36244257335,-1265.74913395463,-699.390276598266,-1323.114878863,-1285.19992002525,-1385.07875386058,-1169.33479948005,-1359.38101471452,-1475.74936739524,-744.237197615249,-1275.19315844553,-1088.24041931809,-941.672111695789,-1099.97324920043,-1392.25851306757,-893.815554268297,-1339.13768275661,-941.462581372813,-1159.01646797379,-1189.27180656305,-1507.44884877882,-1771.89461674429,-1440.90205989186
-1708.06308891554,-1298.50075952062,-1731.43953954933,-1833.41865310694,-1679.33608331692,-1120.33529876195,-1376.0944468609,-419.241160555772,-769.862606454246,-1440.80234949506,-2003.56521874276,-1993.24656334893,-2331.04142816774,-2477.58650534768,-1898.7282262825,-2658.38367003504,4041.17307774823,-1047.68140471351,-1367.43900090752,-1199.56128500208,-893.812615783795,-370.50859167268,-703.428220367348,-446.414850620546,-582.530665115719,-1518.58687721348,-2386.82296885886,-1242.19361090151,-1135.29200101884,-1045.81800582025,-1396.23340769643,-515.727278402608,-512.304226470356,0,-1325.79886873241,-1269.73471237371,-1027.24563341824,-942.912434075203,-1557.40749524601,-1811.61902900441,-1049.23058988765,-1021.2499661263,-1269.03073115368,-987.352926005662,-1019.59599897278,-1349.79085277124,-1400.84264085082,-1156.8778948411,-1315.16134366589,-1472.05755946681,-733.306182836622,-1152.52305407767,-1129.00416234304,-899.821314395587,-951.760625856179,-1333.46770392968,-950.558402954395,-1271.11907030033,-1051.25638897719,-1232.84997104073,-1140.94022113229,-1582.72861312438,-1930.26550067431,-1512.29396077304
-1870.26301739084,-1330.73451159577,-1898.01287379013,-1884.6563865606,-1802.35039021911,-1185.14753404909,-1465.4363727006,-440.496569747743,-1001.5655189649,-1623.07870259702,-2218.64513390039,-2184.80577669322,-2554.15258723633,-2709.24750459837,-2066.95866096306,-2950.24059901787,5013.85064616042,-1161.29097109297,-1523.06217893392,-1354.8215968381,-1108.61807595275,-480.279166761193,-961.431982749481,-804.311791340305,-737.54650253125,-2044.64595740846,-2564.81970156421,-1594.5720661911,-1376.3970819346,-1048.05402105963,-1664.05131360669,-538.844457263453,-633.292027231839,0,-1322.20986499014,-1400.6081047894,-894.990178636956,-1015.40194332537,-1748.50486170106,-1747.62594352334,-1018.91656832109,-1164.08529280147,-1259.20847518639,-1180.03907955621,-874.862471292509,-1503.90869877594,-1431.5874585467,-1295.36076541374,-1337.05499312378,-1486.16853303331,-912.05591997837,-1153.21555016696,-1335.58373705578,-1074.06929490203,-985.387038143398,-1410.18109601699,-1196.81083766481,-1298.94485526227,-1312.14891578236,-1462.24321821285,-1211.40081674296,-1669.1305286598,-2189.92245215511,-1597.41077491855
-1942.77206577353,-1294.46041104208,-1972.03720892629,-1840.24591594144,-1838.5654955877,-1199.94033577118,-1447.75304196397,-433.188634929127,-1109.14384037481,-1687.0610576912,-2289.85667230626,-2237.48848019655,-2617.05767814145,-2765.02143123321,-2075.83988362014,-3013.02959260013,5608.17504350442,-1112.8770531315,-1496.97477412905,-1328.97806730439,-1071.34425969745,-487.335388382181,-924.63360140581,-862.980535102831,-749.006883929103,-2099.68677248104,-2505.13418698194,-1636.17711009019,-1253.17608835816,-944.502566552643,-1491.08238988066,-557.468535689508,-616.974063298227,0,-987.407920522341,-1362.51139447252,-664.86577078956,-984.882753868279,-1749.76977921233,-1478.6569595674,-751.129441161243,-1170.52914679697,-1007.00991646388,-1170.04445367395,-721.591628668308,-1677.03775026948,-1416.85109122354,-1472.95304498103,-1369.2120019714,-1472.39017556864,-1163.1461516814,-1258.65484783835,-1591.1526107547,-1322.06374698326,-1139.20178865537,-1550.46538793887,-1471.97951200285,-1370.62549839717,-1574.67305099962,-1681.76275319005,-1309.16710233322,-1725.34486221391,-2404.77916789427,-1638.23667988495
-1871.76534506481,-1118.73054874475,-1909.94458036615,-1652.63693806,-1714.89960213557,-1120.20880675675,-1263.71377255062,-319.751104311605,-1104.6108529202,-1618.99131537477,-2185.38211769366,-2155.93085524441,-2495.78437252851,-2611.75737259166,-1943.68288445584,-2838.87005187599,5913.23526204761,-886.704913091588,-1231.45555705556,-1175.01929801352,-755.004596925338,-497.993099180733,-619.176043667558,-574.955602693004,-727.562107857974,-1738.1891864982,-2501.78369071512,-1380.31391579943,-850.961319569004,-865.26887430082,-1022.37324156164,-86.4316931485454,-213.265156282455,0,-387.725513875983,-853.864129041222,-211.781551427418,-440.046786960942,-1530.62438745723,-913.8699324639,-140.904388646819,-832.985386079366,-458.386107941564,-891.68051697634,-312.683604431098,-1737.11701002943,-1259.91345455443,-1511.86877278674,-1272.34060466711,-1333.39254016986,-1282.6744240991,-1285.64309591431,-1718.44992760517,-1412.34081590162,-1199.95852081285,-1570.85834388408,-1575.64686867275,-1366.99570375889,-1670.10026300401,-1721.39563786895,-1298.90296991167,-1682.81848982662,-2435.42303236911,-1575.38888696878
-1724.21197948163,-827.950809041836,-1790.45715745884,-1385.86664855392,-1474.68233694894,-985.241429572222,-997.122215118692,-80.0767944758273,-1091.21329415566,-1498.58807333148,-2006.06220295763,-2072.43745482627,-2331.25412883783,-2396.02497250027,-1815.07126752423,-2621.62234231783,6432.58808965014,-597.434133734832,-861.926010758648,-1016.31207421843,-338.364382540313,-554.59875860236,-237.367679326592,-222.222726194756,-703.347143392133,-1325.06025944097,-2755.29306510107,-1040.92040326755,-574.238980404823,-893.348835053113,-734.631805116644,734.862088654775,550.4292614987,0,77.4595360886703,59.3675341332501,380.872493410245,450.224888347935,-1283.24612993299,-288.792063282377,572.606121107223,-173.336496948705,169.172775538478,-444.196167009423,275.332225013067,-1643.30248025059,-986.928989079023,-1380.64391882007,-1028.98330485519,-1068.55269016005,-1212.64332211661,-1131.9869182944,-1672.09730520106,-1299.51682568784,-1074.6434017198,-1389.95344951443,-1488.94743413899,-1241.10922182609,-1583.71279146004,-1591.8482245491,-1163.71661340959,-1493.63568588505,-2287.43971598429,-1406.68473287973
-1553.82174849213,-506.454354115968,-1664.80682673839,-1107.87141475153,-1212.57466232333,-849.444530125602,-752.154223415186,193.172861462727,-1112.68687459973,-1377.37937770982,-1832.07696319526,-2023.66627189161,-2190.90029437268,-2202.29004983707,-1725.93885450094,-2434.12086585685,7046.37774610985,-326.253400312404,-515.611522993298,-854.065162810133,56.23814391741,-533.110030051356,157.102113705748,78.2064763520085,-541.38355953167,-900.688640817226,-3049.8435869408,-572.460436320163,-335.08715874026,-914.950670317613,-571.016597401674,1475.15161753567,1384.88547744305,0,287.255128773403,1208.49610782673,976.11779178594,1025.63973908311,-1111.69556244273,285.059441775243,1140.41263647325,527.616314469549,712.462533077066,17.3808796694846,700.875068157436,-1430.49581619866,-727.531679684786,-1159.74052721973,-767.3221929615,-784.667546630804,-1022.07609660031,-873.555207703741,-1494.05979796766,-1091.79075622836,-847.738743565558,-1083.86051726681,-1302.03919453412,-1016.98460819027,-1388.80722395461,-1386.05021512398,-965.294122475339,-1176.75497375355,-2027.3169690422,-1158.31576913852
-1405.58939331455,-256.838321029007,-1551.13871155591,-877.27530603,-1025.8905311787,-752.578241948975,-597.467313081545,354.215974194609,-1161.39190552117,-1294.37740296451,-1711.73432313418,-1961.12942941848,-2060.74982691541,-2046.79525696989,-1619.06142202754,-2247.58835085551,7287.30911339652,-102.103894550279,-253.380310350674,-650.263138601043,385.945033358446,-369.29301051063,559.548523410403,384.511106381833,-214.270631156487,-345.770667786739,-3109.82307706335,108.097039345882,114.738972661381,-793.538090252009,-221.044950033924,1780.6435610815,1831.27438547732,0,347.668567018308,2277.60878195822,1472.650855973,810.738496570423,-947.69676735929,815.020817292175,1434.87245461951,881.101922169917,1107.41899119939,313.758424852294,603.769705492499,-1212.54003676671,-632.009673462477,-986.472699070654,-662.585902946488,-639.531903058167,-843.318178168268,-698.689166793894,-1290.82226307064,-936.492993550481,-690.472853101056,-853.395410503729,-1130.57450157835,-809.257895448986,-1198.42046732662,-1204.78631737945,-806.038787884965,-894.514708947057,-1750.78614484058,-925.857792036373
-1421.69067566791,-207.43372658121,-1565.64677664524,-830.785771157718,-1048.26929793123,-782.983897639923,-625.535135315356,280.814048808517,-1312.79114133524,-1379.19411485539,-1781.96429399409,-1966.21416806821,-2058.9128815711,-2072.70104866405,-1574.35394081472,-2197.09171434262,7324.06556934246,-25.0710312830857,-192.759623362945,-511.753714205925,519.053739634456,-215.998332714109,807.797362266756,561.925459025791,87.3039348188992,80.339294154314,-2956.52992788855,666.875676261333,453.325540613618,-533.976457640563,60.3261782196016,1461.06269818663,1461.77735278636,0,141.812448946669,2661.27337979202,1601.74775771477,-119.046723055645,-802.913471070505,1078.52329332658,1255.88881002043,589.61740186659,1146.33888420142,220.334616476666,-182.311768709907,-1209.54376760679,-830.322675085797,-1061.03425493143,-855.162458828097,-791.006171100279,-876.338283253275,-804.536915333008,-1276.55846896103,-1003.74199364535,-781.967922886148,-937.374507961903,-1147.26828443657,-835.706811396942,-1193.57027908137,-1211.66045946879,-850.608701065523,-917.990704025827,-1638.3191131412,-913.463204971842
-1668.5586364631,-385.30223268485,-1780.5601367783,-1027.66645597709,-1309.01638736883,-980.097421145226,-845.229534306638,-1.47939251895815,-1618.48089695404,-1691.99160825939,-2105.56687190047,-2137.98694133271,-2286.63077415818,-2373.55624244288,-1693.96655534057,-2402.14900293609,7621.95230295485,-139.95092959804,-379.576823932291,-514.405092245672,388.373797324177,-151.768692693595,803.644698754771,449.320474169387,302.652465042027,103.009628593113,-2608.50963103824,798.139510801601,325.18148076477,-146.5698373336,-110.469754256697,692.163870813151,217.009328237221,0,-323.104741833952,1949.18975031741,1049.24310612616,-1312.21633978168,-755.00823732946,859.701176614175,465.899896444843,-298.349376241152,633.177608286773,-314.843263557542,-1401.25676215601,-1531.49580907265,-1299.47195386214,-1458.06826340011,-1315.73202987232,-1235.43791665689,-1215.41799088299,-1210.46930531434,-1569.35519097355,-1349.14361074742,-1152.19654315351,-1369.0813457869,-1439.94168699359,-1190.50208304675,-1456.19783734739,-1492.07687956966,-1164.59391006086,-1324.47541851008,-1784.42459232022,-1212.34358330031
-1988.63568662249,-656.125583076186,-2068.98898899766,-1314.44201324678,-1652.75261936851,-1250.51765776003,-1117.05212396253,-352.937238416412,-1991.68064529391,-2097.05267198785,-2522.49502363829,-2392.42956933999,-2607.48399296918,-2773.6127136778,-1894.49003455911,-2713.41335393158,7971.47536700334,-338.301135442033,-680.678567727504,-570.725815292954,114.907353287091,-58.4217832743714,662.170650264756,129.300761976261,503.110102786844,-124.765907570939,-1970.39854018408,648.34546308247,-63.2563815456344,249.392038209911,-505.8903317061,-141.479221072666,-1452.48971028933,0,-619.791517721445,503.167033127979,-98.4215398002619,-2346.11149579372,-786.653295443699,301.180013182986,-681.862954877876,-1384.41519882178,-272.088845100691,-1057.84437236346,-2525.56173530012,-1990.64186441861,-1829.05176370198,-1973.89802967669,-1832.71178195936,-1760.4988215676,-1691.28111616555,-1716.05376842168,-1998.65426611976,-1805.344334211,-1627.2853849703,-1905.5017322215,-1857.59855346516,-1695.10211347714,-1829.79368368783,-1893.97591098294,-1594.82879206226,-1860.30896412684,-2044.46063518519,-1639.7937013135
-2254.53257087629,-922.497731892303,-2320.40084581753,-1563.28599959263,-1972.39718151695,-1527.86733201112,-1361.04203691863,-732.080832017948,-2375.74502088821,-2489.06488540895,-2904.98437876963,-2642.54402065131,-2892.00159676613,-3110.57559275766,-2098.96911827543,-2992.52597286269,7906.58439801374,-578.097967531818,-1023.48826446411,-677.890407633325,-235.465020145767,30.3789936517783,428.905857699272,-306.565417990165,498.274512591296,-428.787756156239,-1321.47839784166,335.112619836587,-461.333767246573,224.787400770231,-778.179270200361,-917.633456783323,-2862.95767266254,0,-634.739749667933,-878.622761761136,-1308.76564047452,-3085.94665275398,-947.921372965245,-401.021475977582,-1706.26166969234,-2260.76290339748,-1221.55758811218,-1763.22685871439,-3273.88363344284,-2342.61452225874,-2256.62823300543,-2373.36938122125,-2249.00762985415,-2192.8034114616,-2081.579812917,-2153.32629818401,-2337.29097497632,-2188.19053045103,-2049.96213908934,-2339.51878050141,-2204.76663235562,-2144.89353187507,-2135.38324759381,-2228.26929641294,-1976.31581621946,-2277.32913682716,-2255.44812902129,-1992.76904308887
-2503.57017203073,-1174.30702794651,-2562.00079882783,-1795.44397476966,-2275.01745586047,-1810.4222939359,-1600.34510622082,-1136.58480206755,-2782.61846195663,-2875.86542349768,-3272.65303139102,-2924.98414897706,-3181.34676024384,-3425.11512396384,-2362.19649072108,-3300.44360822923,7707.53033304813,-906.312332871696,-1426.39037690245,-954.173710849728,-666.074749359569,-114.408798832492,61.183442209565,-801.488245583709,68.8723498031251,-827.718377332449,-1208.91283463198,-215.061330349991,-841.446249368484,-425.800835862711,-1007.64842914858,-1614.95201819281,-3487.69007893137,0,-802.029745471348,-1756.43820546523,-2021.46396770942,-3462.37085305969,-1339.6528729191,-1205.32025710745,-2282.54316326617,-2692.89223484856,-1986.62996129255,-2288.08487569843,-3648.2147558744,-2532.67700508966,-2549.16686572254,-2607.44651486835,-2531.11982295949,-2491.91754666085,-2316.59236852662,-2477.12996919385,-2536.60371076716,-2448.24609167989,-2368.03251109073,-2642.17287186915,-2431.34584327961,-2473.80117348571,-2341.65878949377,-2452.54058663417,-2259.93961197783,-2543.47581633988,-2397.61428849822,-2234.12207946919
-2707.05469358436,-1332.11994124979,-2756.37872569817,-1970.77765003815,-2485.39231025405,-2016.15480851975,-1768.13611110328,-1433.56096189627,-3122.70594219461,-3181.1865377655,-3557.95278924573,-3197.74351620218,-3443.12532505714,-3694.8918030871,-2653.69476465576,-3616.69133140423,7876.7403164606,-1246.61001270598,-1777.34483115213,-1371.03774305771,-1062.88555053469,-538.37784070017,-362.65791532775,-1187.20618085661,-573.907896882154,-1253.64253689282,-1668.06342096909,-856.755749597731,-1110.30206518029,-1248.63059284712,-1342.99384690377,-1976.03910368651,-3241.60618394783,0,-1287.77447830982,-2212.12952240252,-2063.75424677598,-3258.39475250644,-1826.05364059521,-1969.0010724455,-2331.95576173062,-2600.83099089067,-2422.87734571801,-2480.81222943598,-3585.91577818233,-2583.53751944542,-2651.79124959088,-2682.8715683482,-2619.87213212187,-2597.02647568475,-2388.63611701187,-2615.88746273532,-2607.26570427061,-2552.59110831271,-2503.96729787435,-2771.81947364177,-2524.13704196491,-2622.88960238332,-2433.6198432851,-2547.80216015651,-2390.42296618927,-2649.8924089182,-2443.80487383878,-2337.74774827284
-2718.62643103933,-1296.68960505911,-2764.9736003016,-1955.58987211966,-2481.41343709739,-2034.71270380571,-1740.84127399653,-1523.03968967291,-3259.01256383996,-3263.22723865566,-3595.56315921808,-3288.77464111662,-3504.110033702,-3745.14516196012,-2806.73501795896,-3745.85658266277,8046.25808397449,-1464.17217758739,-1927.76066142707,-1759.21849417676,-1328.9456361746,-1054.37997250496,-769.588390272503,-1418.68778832426,-1117.69058806892,-1618.80204124546,-2221.82064692422,-1359.66743538894,-1236.55437487142,-1794.67778102218,-1725.07505570173,-1843.62050073494,-2524.17272883493,0,-1786.80805265897,-2429.07606548828,-1689.89082050923,-2479.79733433314,-2171.40564669973,-2466.77134948079,-1999.36971669322,-2133.92853073182,-2462.54830881523,-2309.77320374313,-3059.25683041464,-2481.61524968648,-2515.77661163294,-2575.44970455572,-2466.78340900506,-2451.08684571337,-2286.13054185991,-2506.61808971459,-2508.99302527314,-2453.721244714,-2397.90573554625,-2652.44755541427,-2436.931316485,-2528.17482343862,-2353.31877555887,-2452.7179810891,-2301.75268459339,-2530.20172680374,-2312.6422313487,-2231.56177975787
-2533.94775636793,-1125.12076410911,-2585.58903515938,-1759.84497946617,-2308.72841918454,-1901.22299852917,-1554.36798719039,-1496.84990366303,-3235.68400230016,-3151.36319932354,-3410.43073702402,-3158.70145367921,-3338.16467227326,-3553.5547446833,-2770.10728764273,-3636.90067155881,7660.79555555083,-1561.05615731637,-1917.10348608977,-2034.23833409477,-1528.28611349331,-1518.17358391556,-1203.87370365486,-1665.43969364034,-1581.07032258714,-1994.82150994028,-2635.75701591206,-1752.43027441731,-1385.08576843726,-2178.67849929794,-2064.07890994212,-1481.03966207297,-1867.01814954839,0,-2120.91121248325,-2441.49690709951,-1257.00163714164,-1601.61129518456,-2376.06462641847,-2663.39950580842,-1609.35865542949,-1624.11701428047,-2240.2277348267,-1983.43056994701,-2331.50480695978,-2271.76188223379,-2241.7038016933,-2345.14373170113,-2179.51054346069,-2154.16155627947,-2077.45626008377,-2246.83597525654,-2274.40876234585,-2217.22920312031,-2154.082073803,-2357.40703426085,-2217.41660159756,-2272.38872874814,-2138.68177266304,-2206.85059510556,-2059.29811013497,-2239.62838937048,-2037.28532976372,-1969.38225600906
-2358.66266534182,-976.781693194905,-2400.81597097536,-1574.70578855929,-2146.75277784006,-1756.68100843283,-1381.55199783211,-1466.84737097147,-3248.2498987298,-3052.57453247572,-3262.61837203356,-3005.48501706813,-3173.40560806171,-3368.33208289487,-2696.21527821192,-3517.59848427997,7268.96209208653,-1613.28449827603,-1883.77179458462,-2208.7993592036,-1716.04678393971,-1865.02412727805,-1622.42508038683,-1975.43322829087,-2043.46358368589,-2417.27757271555,-3058.32188984072,-2123.99984498775,-1641.73567997953,-2618.33611131937,-2328.00048788895,-1302.59327580768,-1534.80772551152,0,-2400.01935854465,-2299.51685790946,-1037.99596588282,-1058.90672196656,-2589.68965073701,-2712.33187149033,-1476.29445335369,-1299.40170588984,-2026.67363785763,-1731.2319424332,-1705.71982390983,-2096.60011476616,-2018.18608662479,-2151.89029643463,-1956.00095197064,-1908.9131177386,-1910.91276096009,-2032.57510657971,-2076.70445394672,-2014.52858405128,-1967.10785870658,-2102.64768383886,-2034.75300380247,-2062.22596952186,-1950.11336735567,-1987.20727393824,-1847.34427809237,-1988.80852278048,-1788.39917443804,-1752.18069838822
-2300.44193956069,-901.35197516002,-2299.41185450022,-1490.97248996272,-2063.16891497028,-1644.3537006083,-1279.89284234912,-1427.17692597303,-3343.16143825703,-3058.27585576484,-3276.64346908199,-2945.5679451404,-3142.17847639686,-3332.95482082771,-2657.24628476915,-3508.02021204722,7545.25319565105,-1592.64451779886,-1839.98080330665,-2227.52434279116,-1795.14302335475,-1959.84951864805,-1813.01828400227,-2171.46723349458,-2300.50908424968,-2697.23444323102,-3391.40137824054,-2352.08238417966,-1882.76521333994,-2928.77234173014,-2480.79638871681,-1449.42621482719,-1446.00890097486,0,-2656.67698594491,-2182.48048051468,-1221.6475858338,-814.970590153794,-2792.78507328596,-2750.94372598382,-1694.71727919896,-1154.56615920706,-2023.12290655445,-1600.7150121928,-1222.12011731814,-2047.57903181584,-1930.69861313051,-2090.50296976592,-1874.58860409505,-1803.61816740033,-1870.96106855827,-1948.80450229615,-2033.73787595068,-1941.36607990076,-1912.18289399745,-2004.19221754675,-1979.23155242953,-1995.13954764641,-1879.94198498148,-1900.79179224127,-1763.20668470435,-1897.86447882576,-1658.48439422226,-1682.93785444117
-2173.95162082194,-825.973221958164,-2138.39180120333,-1361.56048215589,-1960.9138924221,-1485.92341425894,-1132.59906507828,-1404.80449906443,-3333.27443870062,-3006.89147792426,-3212.07941030389,-2759.46807326861,-2995.77728528486,-3188.98837382463,-2453.04109681989,-3309.61665112806,7352.71822813748,-1417.79959545022,-1694.06743561633,-1983.54163442593,-1665.36842417005,-1694.12365529869,-1660.66127593593,-2124.47649699643,-2134.29599099893,-2590.27016280416,-3107.80534294176,-2248.29487616759,-1887.21189510712,-2769.98229690255,-2419.20139301459,-1619.11907235893,-1333.68634293516,0,-2724.33485772752,-2140.37644077709,-1727.46637784965,-694.506516357901,-2760.00359084006,-2761.19536252374,-2042.64227195473,-1108.16717671628,-2219.77282216109,-1533.87205065691,-840.203347755154,-2034.44706830275,-1899.24002934386,-2076.77910768255,-1829.74718918651,-1741.09100596471,-1886.83200687877,-1903.045807026,-2023.07692287991,-1918.15983825186,-1895.55212691769,-1947.54649700006,-1937.20869795688,-1947.1846363398,-1832.184555369,-1843.17589620952,-1714.56819692369,-1845.35530817962,-1548.57971342917,-1632.08094790276
-1762.42929442152,-716.31395282969,-1776.07066732384,-1037.97761476402,-1758.95858475391,-1254.00258802225,-858.728982685496,-1516.52490445652,-3067.17324475884,-2717.2940346803,-2780.80916284209,-2186.21286512634,-2413.63210150349,-2606.71720394882,-1897.36001755788,-2588.14163727288,4805.1202467276,-1155.04904885864,-1451.37308414101,-1540.39182726507,-1426.40414988906,-1225.53122881839,-1361.27299234692,-1910.74852630056,-1737.94331136316,-2109.40224336542,-1980.76668915091,-1844.64310016378,-1500.34266783419,-2165.04837998774,-2006.95031683033,-1378.60141337348,-1024.01586601333,0,-2473.50265247062,-1980.42906434416,-2140.73374671227,-713.779455516167,-2350.22564316654,-2590.03417191543,-2122.06659964139,-1090.2447643148,-2369.14571723253,-1461.34699206768,-606.409840837775,-1839.44197123477,-1762.47059787158,-1906.01648066971,-1656.41964700324,-1571.4876921163,-1788.35290829528,-1745.36724475504,-1805.45997167936,-1774.29757234323,-1773.45784944188,-1737.02243370879,-1730.89590628555,-1734.23787799961,-1647.49556640514,-1634.5583461714,-1550.75712659749,-1638.22314549114,-1308.23699232746,-1412.7057178169
-1141.75179207816,-570.511984733059,-1277.45863076305,-582.380654803045,-1467.45901097392,-997.411645502953,-514.77117426679,-1709.21422041128,-2619.18790324105,-2222.82833571202,-2061.53485625731,-1356.48533455534,-1507.44811579791,-1700.26346288892,-1160.72032341244,-1544.37998044114,522.193382816935,-967.501274985469,-1218.52576940491,-1146.31221377205,-1278.90202469869,-875.512720064501,-1208.46946318842,-1698.86247750197,-1507.70555630134,-1577.21487908427,-602.655714441919,-1401.26579486824,-885.116560925867,-1519.93740519006,-1338.19479602207,-770.16401779561,-624.616480980397,0,-1987.28564624387,-1622.52834080453,-2107.99840172327,-833.037698012489,-1717.33678660823,-2156.6109601399,-1773.63478833929,-1003.23024338647,-2194.7752212846,-1294.7204628572,-468.612383752739,-1336.82391667215,-1407.34963300936,-1449.67499926714,-1270.81849725982,-1222.23876696596,-1451.03939342213,-1399.6062667262,-1308.08281608284,-1405.13628224859,-1462.30823299458,-1309.51572548439,-1312.30485696121,-1315.77710626,-1277.81328773837,-1222.45251163542,-1214.52119507944,-1229.7255756464,-893.449495501144,-993.094031618752
-627.78044662518,-363.257640826206,-845.539248022797,-201.192185190332,-1146.86684331303,-744.333587618479,-216.316533502459,-1721.96947455125,-2191.54084202499,-1742.323842078,-1454.49819412664,-712.801654301379,-791.805352886837,-993.660572640561,-638.06284484489,-803.99587849043,-2238.02451749571,-888.953223517177,-1050.84055364255,-970.900216303385,-1270.63997337385,-783.65827191285,-1241.16568972104,-1585.83484603287,-1539.21276206627,-1329.75492466689,148.605261034784,-1173.59722890046,-530.7224375053,-1205.32842697592,-893.449291264685,-395.047375954121,-403.592955991604,0,-1557.34477407184,-1316.18798451954,-1726.40830442377,-834.610467278096,-1201.82403180748,-1661.62182915663,-1320.70510815341,-829.348561908917,-1751.92553978483,-1036.95579772987,-283.038274948907,-711.485576302796,-920.979119304141,-866.878583199955,-776.624750124728,-773.237170313428,-962.841285456566,-953.529866488691,-745.48809578459,-913.471668010208,-1035.20451051331,-816.935679619104,-831.370226683062,-853.179329890919,-840.287404152059,-750.132801289302,-801.004378556418,-761.729244277658,-409.031760998853,-539.184956972401
-461.456059798595,-164.603184410353,-646.392808881233,-68.3793303965756,-912.13330673969,-538.377399158223,-76.7460794088768,-1487.35689976279,-1915.643762666,-1476.19848810771,-1253.57152117761,-525.534663053868,-619.669303095767,-850.547346582625,-528.077896853962,-722.112475934488,-1557.97209463682,-844.353575066556,-951.617491929879,-975.12810590449,-1302.88765139148,-848.968130175538,-1269.18473043878,-1538.88865062179,-1633.4773502632,-1389.9339799374,-3.32977913151938,-1213.06050140358,-737.792278866922,-1264.65329699162,-1067.34960978991,-722.378133941369,-542.402813811595,0,-1477.8418777815,-1341.59924050324,-1448.67693117964,-689.186854545057,-1023.71986527461,-1436.30810835303,-1214.75406442848,-748.18032573157,-1411.52279310936,-877.269240185889,-113.33120078999,-324.477291065212,-561.622122714056,-497.707183881365,-429.540569181889,-439.64829653276,-591.834642771152,-634.144159537131,-422.06495570424,-565.609267869161,-720.660850426718,-511.138535817214,-528.441609768765,-587.115866385213,-533.498852606884,-451.104175808486,-515.502403549212,-457.393793632305,-43.2086989257842,-290.586740473026
-548.819936644634,-89.1411998899789,-636.630767734931,-139.260414300977,-816.661084766416,-421.571067239055,-95.6978233780746,-1233.45278931094,-1724.8812178503,-1379.00424235998,-1313.91757729103,-602.160812014297,-765.631140885664,-1036.37960066871,-628.484728197134,-975.288665017581,772.537308141048,-784.608213564431,-897.302975507695,-998.035590659913,-1276.4552357644,-905.64809863131,-1145.70786122984,-1415.98734652671,-1607.86544907575,-1438.69795015214,-527.521365833094,-1299.72730158902,-1155.48840121956,-1423.63407045148,-1512.18365784066,-1489.47040239321,-1021.30437320042,0,-1652.01532268537,-1623.52568892113,-1606.80677267796,-685.534669550399,-1037.70490845726,-1481.55118504995,-1475.99606511561,-951.30497055948,-1348.87103722053,-955.074251525935,-181.874163072079,-251.159495499002,-433.960513461621,-421.792047519286,-335.568525725299,-329.524947545251,-451.237679785833,-542.43376878252,-367.51812063606,-464.709298717985,-632.571895175675,-456.859417869684,-453.648661579411,-567.233041745031,-411.384870797191,-383.747308601057,-446.122280383341,-388.092198621936,141.189494645152,-300.036977558825
-579.846298913953,-81.1190173568829,-592.103115773979,-174.705134138939,-736.819626105601,-326.677671764741,-113.545547171305,-1105.99027093877,-1461.8641534369,-1217.90086664718,-1262.48755145107,-564.894843498519,-755.627034306061,-1043.42137729323,-606.141545135891,-1019.66955231202,1985.96265727109,-691.72441401224,-811.168061424831,-908.430129277647,-1137.60583217096,-838.157588151095,-896.532666859069,-1086.04473674643,-1441.4188495912,-1190.68643220739,-754.214219839483,-1165.33573936404,-1145.45126007825,-1385.83803333037,-1444.42858175194,-2017.78723728661,-1663.44312985311,0,-1607.80026642198,-1809.38813115844,-2086.07109998619,-1050.32960432855,-919.300227508959,-1423.39196516145,-1736.99848290273,-1401.93498174211,-1347.09750133755,-1166.10445150144,-521.215469326442,-230.268548783688,-384.810695439936,-390.551106373091,-324.066305124097,-304.756730546642,-378.947549937658,-515.690527260147,-334.586932453376,-422.095219215968,-611.882749020546,-461.1932011772,-412.032118351214,-594.649441160073,-319.441551410977,-359.671951574419,-439.634189561247,-388.368228988327,282.768300584355,-359.980365487891
-454.226513844667,-21.2289278256847,-420.599549280351,-75.8759328092358,-570.312518922308,-181.42799509237,-37.871719762046,-1031.16367070483,-1124.87837952836,-922.850907506034,-1010.34608799906,-352.854102036589,-519.374503819824,-784.042433520775,-430.951981553161,-805.225914497223,1853.25594462623,-588.71777925666,-668.691038639745,-748.96575033048,-924.867202779356,-673.434796960221,-665.681696987212,-614.109633865456,-1257.31051427459,-772.867559497932,-603.966393646134,-864.495376647498,-601.08265409896,-1171.32558688248,-733.026544911113,-2005.86499032181,-2230.67002346511,0,-1134.73873475595,-1719.74016809684,-2490.52442027685,-1658.78135792939,-634.492441946275,-1089.11633952836,-1775.84450192896,-1874.72031808295,-1232.24458997292,-1354.82717156455,-922.800866290735,-143.944650919668,-326.654319669151,-288.419952466403,-277.086257201921,-247.997975326727,-279.621267887371,-424.186068600965,-231.941895676033,-311.890870679013,-516.543700238543,-396.507898074808,-310.851186260248,-541.054519447855,-178.473155752717,-257.06733627496,-360.569395972705,-323.817127126315,466.262596764693,-317.953494067322
-326.124752843029,90.5713792599666,-239.233057794348,37.5230627596438,-366.316247425726,-11.3431179520215,62.0907658977125,-896.705439526593,-820.59985695718,-623.968667035339,-750.410181684076,-179.283249100655,-328.339002683646,-545.76484929583,-304.054160146977,-643.45469228881,1979.3481614074,-501.314239585924,-514.287009319659,-641.566905321222,-717.728897558285,-536.677600739123,-518.683568526279,-178.272636028838,-1125.48852738517,-484.827583782979,-416.72022545802,-647.790257189002,14.1756654997473,-964.405744036024,-62.2123137436933,-1640.10243612701,-2450.49935826631,0,-544.287531239976,-1452.67251273964,-2479.09004020685,-2129.41281133946,-404.303209029398,-707.553546667235,-1630.90263149563,-2113.39750896602,-1065.10790920039,-1442.14760282126,-1152.75727516419,-110.751922301798,-322.474838791832,-233.942432067145,-260.358878223327,-213.274175462758,-233.842892902249,-333.50927577601,-200.708171601102,-226.036699993335,-401.360627627845,-329.722630928637,-249.052017460236,-472.397571823032,-73.8599700204446,-147.044376025657,-250.58752948877,-237.379953532849,629.898144716105,-236.03132948811
-233.450097490807,239.692627505136,-88.2351721552645,134.991334339866,-138.810847357353,174.646446566067,161.39500209865,-653.337953207801,-534.050435371669,-349.369358253604,-525.686317442445,-86.5440958975101,-228.171838880013,-387.374727726655,-239.80542921953,-571.069064198536,2852.55324065417,-375.139486625398,-321.824062836344,-561.915491856605,-503.837120100628,-450.256485957309,-346.780660643294,180.216701647802,-932.563583823521,-333.793176453473,-294.041702159991,-524.926780240464,377.488312524995,-745.156644062182,128.023366086448,-1094.88025183064,-2148.30361603275,0,-139.795357873462,-1069.7839489835,-1998.88542521449,-2143.92580590698,-246.109424640906,-406.241190405064,-1316.34979550725,-1992.73920554824,-840.789229736234,-1355.14913158137,-1125.33548848073,-108.872396778777,-328.256836218412,-216.285393727434,-254.448864765083,-204.456459095692,-212.642322431841,-261.701530921711,-232.434502022769,-180.297904628974,-299.076225801339,-268.340959769283,-218.17411931819,-399.530185860303,-1.64837575926428,-46.0484123539542,-131.465331236333,-139.262309786276,779.203087840124,-147.544698818315
-48.0237107028274,463.301251637916,131.254972833635,322.806187197798,185.179747014246,413.714955739601,324.230020489803,-330.915602248008,-185.438525533821,-6.64053200838021,-198.425567743219,76.9940944704292,-26.0459038587173,-112.580912615655,-78.83026789099,-373.00867045738,3494.54245512291,-166.376836580525,-43.467361151111,-406.52480010072,-254.803905477404,-323.653024154475,-99.6697738861014,495.44465220662,-619.262609128475,-181.014214955047,-74.9264465507001,-367.297048349726,549.174964574814,-413.267482109821,155.667672548548,-443.753849064456,-1487.70140847712,0,140.390379329253,-536.981645159905,-1365.91391437049,-1726.07898707697,16.2259762997331,-14.954158306054,-830.806025497151,-1634.78411671613,-457.468276639308,-1090.97847044021,-916.435380173805,26.5069384257373,-202.833031046173,-81.1933472180802,-132.680218448397,-113.516002029059,-80.0728107532956,-113.870409838286,-145.160675130244,-52.1680603646143,-141.043017801498,-111.471029758809,-93.6914381192905,-235.618165399531,146.975921916212,127.114602939803,54.1797263845553,60.457818529504,992.189564125834,25.0558111166804
243.72803330831,745.443816358571,431.894040431636,596.653962529629,595.912539614419,685.972658490332,541.470301725038,-7.25505142363987,183.40294994161,388.658792540884,228.823511027367,330.281800812576,286.020513803778,282.450798648137,180.176926453214,-58.3325224229745,3479.31042008384,52.2172461414683,255.771043489561,-205.454270352185,-33.6512058253116,-146.881606583189,79.7641901624825,730.317161130328,-369.844096175506,-78.6437233326522,195.352715341223,-255.171645669715,631.526677418141,-84.5917406434223,385.976071611863,108.510907829511,-848.689720299524,0,438.008605867706,71.2026002051358,-959.857972295161,-1163.69649045924,366.77428779258,539.121181586183,-314.836900519026,-1250.85987738031,21.914311296217,-758.197411140613,-629.381769302374,273.3507139901,66.7910955026979,165.557855375697,108.975756615807,101.635447013212,144.876354032528,113.606097952656,85.0064857562971,167.540430244468,70.4965602577641,136.90037873843,115.901037433404,-4.99414416398043,369.410753277208,353.547332883853,276.833961266425,362.118188280283,1247.36638906344,267.925998172914
474.030895358726,973.396834423193,673.686224100961,795.011206615143,948.205838218244,893.29779447454,686.790864984509,242.879957177534,436.395761132512,682.068848465645,556.402181732431,508.626963447248,488.023221040141,559.029154758595,364.420210205461,136.593228099255,3481.86467442348,185.116837159409,456.624441837878,-82.5955095603994,108.40289460441,-42.1228170779322,119.111210378354,869.355649961278,-355.916632871169,-91.4198165091167,232.088545104888,-298.283246302727,591.767919620131,46.5535789573616,636.625978677972,368.761401394298,-447.927273948214,0,682.263314158091,562.694096766915,-792.80844743036,-712.28817510048,583.448761808609,1034.07814446996,64.341288217139,-913.009779188425,395.636956464932,-448.845860053232,-347.23046229314,426.785151177318,364.551917775253,348.978457644715,349.290673587533,378.243907777504,304.174172771435,317.875822004208,288.528180574788,344.146672490776,238.388473290358,359.997554178877,278.601407379292,165.931630891507,546.632596945267,517.787627927867,423.110795535206,636.970586429089,1445.61656737265,443.606443893552
524.745476285389,1043.76350347457,755.130570962186,811.956916982202,1117.95441929512,960.299426218688,667.394439701682,364.028217087922,515.665942640371,774.042374401521,651.688845199248,518.761515672732,475.937696460685,596.463989191845,397.947812776594,147.114625168537,3846.74385989847,238.491932512569,529.666311539525,-62.972288216793,213.085484970653,-98.5389660158881,161.490831902858,968.429501866713,-475.9487063314,-93.3981754731405,-56.0505091676763,-378.072313648559,396.740737181516,-25.2606640019374,565.456557558476,427.843522270654,-235.945952998828,0,725.14056627565,799.20608804779,-581.520784730169,-443.0574540213,547.846223242874,1220.57566002909,294.788590764366,-596.361612648758,557.708631110327,-193.664555629385,-176.170867349726,401.770022722491,592.895665481324,385.650136437486,505.553161252965,631.42020620405,335.185773527222,454.864951068863,364.99989706681,421.650128024494,328.999750685128,507.65394077082,348.423977112747,251.86961235786,623.905365658333,596.016486717801,482.070167152782,795.45081176555,1555.33210273573,491.874908792727
483.557316212205,995.479013624888,754.249919885024,733.167093489537,1152.01861808669,932.568786234248,556.925272031017,369.111976058109,507.344930551506,748.118311605621,610.706230534218,462.436288451335,395.700164128532,536.039567158103,385.762478488263,154.130412122722,4076.81118047025,278.745495907486,554.972842067242,-61.8120498014372,327.927815591022,-255.878334742091,303.633557031243,1065.20364032679,-540.89881598361,15.1755009535691,-416.251874713489,-355.855241346637,142.802341672338,-152.592905750524,249.15889219002,483.11262551883,-50.988700726736,0,593.370397474693,807.875762520496,-206.246712514801,-237.4211603675,362.102545253152,1082.83173805461,453.047937922419,-305.427903849143,541.675043191145,-21.6976359323818,-167.044784969978,315.858697280383,715.260854359452,373.095380538717,580.508780271471,796.618325109845,329.780211125473,570.464148281985,389.345376995291,492.804150291306,423.095783709872,629.313655454529,405.099268815941,349.950309168695,672.695406445975,688.345333218524,578.273319049498,867.288142790045,1640.9904035543,504.795471009603
449.837637424285,917.189355380576,760.405827285932,657.074121880395,1142.1769751287,880.864157455545,453.09553708558,319.709230774283,479.926290784663,707.810111975181,550.96132986366,423.942848800725,356.490337900313,493.875021579917,387.207400467471,217.868400020818,3921.85351881778,288.366065408177,564.814487198149,-54.2331348515036,397.701854923352,-389.195606147585,416.27328068786,1111.28585473747,-520.567629384916,136.754859447581,-567.240523508197,-256.546093080856,-87.8537360782831,-185.213488240684,-15.1850613922811,447.971678678201,155.12712879809,0,418.76549934234,702.626453337485,77.9703401864928,42.672030210727,193.709264087246,774.519663854618,507.942011511014,-114.262297787655,402.778538290608,25.7849588640495,-267.253504703936,265.745047664273,712.460070914735,390.052713984128,589.409098205551,835.541492147669,346.35591808726,674.351089189471,424.307850182639,589.510241626095,552.812564106373,729.111155463627,464.921945670224,475.756919206298,723.228472384159,803.045852745762,739.120930976479,879.076314871143,1712.56190995639,529.257928816753
350.202578069928,773.741448546687,701.499409327504,517.530700415437,1046.68272795431,770.087068408703,301.796348336244,217.992719631636,378.805387318621,607.798835056524,415.984061377403,322.586086073824,255.193361162517,379.722623316176,311.693253983862,169.227094012438,3799.76104430583,178.512406035823,469.488924314583,-99.1023746180938,310.717781875699,-418.908027758268,348.183670378753,1001.24037245939,-457.041807172478,117.593967871222,-438.197302527701,-181.343646701457,-390.940933643886,-52.2762598994809,-228.565506371878,74.0659010929421,205.931726807203,0,198.034778173266,524.928951844046,-51.8431081842225,290.606231573895,119.474148101306,429.43925025946,334.76463035619,-145.558778507135,178.826888221541,-80.0233938751616,-408.453804275724,221.046862548814,585.797348400807,376.223509719549,523.725683015456,736.395057586248,316.923443605613,692.893415382623,401.589139548806,590.737672978685,604.352649126504,711.532555943435,419.630507215832,500.7172418619,674.730936025348,778.00441690009,790.937357458006,780.422083956603,1659.11086055246,461.939589444823
153.122662488529,544.405551320822,541.844405646169,282.365820594316,849.137895937008,591.526630266306,66.8194954895777,67.338040718604,211.375870051316,433.368636942477,189.618171385164,141.205541286709,57.8635363668369,165.262492027656,158.271638752411,-8.61903403603277,3905.21394706904,-6.75937788066676,267.484481669017,-166.721721379373,105.583978356024,-327.295601664533,169.645376890187,768.564699167953,-352.800378146492,-36.1592141900865,-112.127886102455,-209.14698255237,-767.012622177919,168.147145440409,-520.298666986362,-523.770768538766,-40.9747209802724,0,-126.489681162804,287.126581246248,-532.937316825954,254.767096018765,125.077602806235,150.811962355563,-52.1271446103816,-411.297011028886,-53.175783807336,-310.9836640807,-539.2305265058,181.57651364119,412.578829500448,308.968593674671,412.223699129264,551.952616359832,228.147722968231,598.957363805317,311.457374278597,468.906650961678,505.789692573841,545.842016371399,263.250842709787,383.187809957348,513.436534280482,574.653117727056,650.193459509955,588.76526720582,1472.9563846455,280.377005721086
22.6710889984202,371.561466362013,437.235394333421,109.177672251335,702.223095206944,467.585059942567,-117.565126679589,-32.8131354345556,125.245348724106,329.398421697707,49.374196335493,43.6680150275444,-50.9539888942118,35.8721771009579,96.5347168580475,-73.9315429106186,3877.78129747851,-85.7205816220821,140.1796281932,-138.441961176653,3.03083190662394,-177.726693558525,89.8873308891961,652.671846845394,-235.749429698002,-126.662576571386,247.044570156603,-294.255637920952,-906.737453868158,289.641057461664,-717.018797295213,-911.0684141049,-403.43353937652,0,-428.024878905302,88.9018754724058,-943.902014701785,-38.4104487278377,171.450146650655,46.1825132408794,-431.225801240871,-677.959315678005,-185.125656893226,-549.166201070797,-591.015100888726,229.847118575731,322.947357505538,302.661878730748,348.982544101047,407.654266984956,198.446904160576,484.812785761582,292.595111240853,392.267839045092,374.267312206806,359.496063876055,164.560145774179,270.234667463819,408.87728114574,409.083682730876,498.189520399703,441.940803633208,1342.68457298458,146.872105556819
52.5299958705196,339.665832499382,485.705181708346,93.1529151939042,693.711955519675,464.325947641394,-157.988878945972,-29.0123770974254,167.015001133642,357.700320928645,79.2439003026965,95.4759816576045,13.4423074648786,81.1905346229027,183.266753296733,62.1650500721553,3582.01740344757,-7.26788808733453,181.060453692887,-13.1091995297263,114.432293738448,-93.1326490615661,186.820923406295,777.32309196546,-149.014384934137,7.11072038052209,443.348271030689,-267.238782889197,-640.927919867519,216.605456248869,-581.415593105087,-967.48688203375,-561.448943802683,0,-530.05505405421,-20.3254654907788,-996.485332821397,-211.917655948605,210.269119786124,101.003768149672,-625.192314571993,-669.59969926337,-189.962535063433,-654.011979905371,-510.144408462086,363.802647944677,358.42782881346,405.963591005522,380.742506698572,368.860871833031,266.08290132393,424.92872112885,388.788554402837,442.451221303803,326.116831995041,259.069671222266,198.83142020972,250.880525965345,443.650099808527,410.173045344702,478.678144584365,392.873148761673,1357.65837178531,133.70189803934
110.12346568376,325.590637713484,571.060371778891,108.657521349669,697.197071630026,498.80476670951,-149.069489003779,-14.3689629495745,207.996654143933,380.75323146176,111.210308938606,160.680625332549,92.1588303301927,134.476405619547,276.848526152767,199.838872123277,3363.62385696285,84.0830944399292,250.827614095198,80.9736000126917,285.999627104541,-120.684555401284,334.681369079948,953.494583838281,-64.4310890477416,277.378032811144,424.676430875956,-67.8030475445585,-309.205467768327,69.6203608942209,-241.113772000558,-1014.21565964749,-465.166390642426,0,-480.561361238904,-196.062424633535,-822.262147582831,-51.219789018228,199.319717573274,135.779488294981,-710.882169506827,-417.72726654536,-171.009451069236,-605.420517139391,-337.953931250332,448.317504115684,395.862825085516,486.592749257137,406.955610529107,340.675982536622,303.702197893878,366.968070902116,455.419491561617,481.980447564805,294.195770231595,191.741228798537,235.369618490954,221.779051884418,490.826566116514,434.53209262886,477.492122012634,339.203782247461,1370.73904524867,108.062022216574
82.4380439107282,219.902523626955,584.545265658352,43.484895902372,601.312703932952,506.354067953309,-198.853938353565,-72.4236767960349,182.239724608576,309.396509035358,20.5476794373148,172.43273496689,77.7860588583749,73.2226064645444,298.206325660106,211.37206353072,3327.18529160076,79.428910554731,209.298141038723,92.5102643902092,323.288615866332,-163.273368628834,373.924978382143,952.852160952677,61.4345532514721,444.302534386327,407.856985129424,145.361560311473,-320.999924229766,59.933633151888,-21.3286022207857,-1269.05359309702,-388.895947028648,0,-443.766880607728,-627.647478292211,-732.299627042597,129.052039595613,164.186812564275,8.07773030700321,-876.358442932563,-236.317655306506,-247.395384919365,-535.441282024996,-194.419524009114,394.627290247906,295.728757687443,425.563878835699,300.044240964616,210.433280047364,222.338188051264,241.045049787213,402.881979483526,398.443361133213,177.520554649811,82.4108003901231,169.917012690195,104.040916046978,445.833395165269,351.887201718054,363.84343846611,229.246133821128,1264.41324640683,-12.4200760765831
35.9373319440145,82.9902345158976,573.329380609184,-37.4484814430208,475.215093081119,514.139059838971,-286.352609409911,-157.387548559817,170.630914066092,232.271693797022,-82.3404776913142,215.367553586582,61.9323445994608,3.62083268670443,321.010012738545,200.791690615428,3142.08465135049,19.8260054726873,96.7912596660689,98.0629796543282,206.062932834629,-100.581608924658,264.668458705026,778.086181415767,200.485326170815,389.212753535577,665.016304907177,219.730304806699,-592.362176133565,248.389123518206,-47.2127241344295,-1554.68831932694,-538.979899451684,0,-450.687297584502,-1258.67807114547,-793.724480379448,-14.8243221100488,168.856394239999,-248.500538728399,-1130.5154993943,-285.284337157307,-429.798699063662,-544.722986629929,-135.065860956996,269.439337069029,90.0210040489702,277.281606838962,97.8421486275975,26.9949472148935,95.9318151913015,94.0064776243629,318.169815233226,264.35936917401,27.1696538330237,-23.6189353950604,71.1798446465536,-7.98837921374155,363.28465487457,240.407323832362,216.00198908421,148.623236359321,1110.1207123536,-125.982426047455
43.8294047261643,1.79616266641016,598.707696036285,-52.3640857858016,416.229459501317,539.031626715697,-344.561696884875,-196.160511240473,220.73102203332,231.787874376729,-74.912722820843,307.874547762529,117.489565510077,31.0714288906541,378.104486197749,250.821022738911,2743.7501184164,-27.5835299337902,18.716743519401,136.162622040881,32.3624797103525,50.8387541508402,77.0500266089626,583.793820083674,289.402712604427,207.979297697867,1151.56086679675,166.567646393412,-683.547957323852,470.959032069551,-213.830322596223,-1600.79022162511,-748.940928024802,0,-443.830834148534,-1773.72450178243,-798.40381103641,-233.062158731012,192.572526637746,-514.256341088061,-1270.76823636503,-356.971318280116,-623.799320629016,-554.610215076387,-69.4274466237547,185.25110153602,-69.4139868720994,170.478735067303,-43.2793166926283,-73.7985755908683,35.5656651290364,30.5479740050698,297.950280337899,196.835458025503,-39.0715240383443,-46.2612746491144,44.1178712752844,-6.3393580286434,326.041854144808,213.000227086502,170.908456324262,156.478006341994,1005.79607726739,-130.640021976623
79.2264437348522,-21.5829099099711,643.668033594792,-24.9031241230308,418.404869529642,563.882322978735,-351.030060669891,-187.275105191497,285.225411377694,277.366496201564,2.07968997424277,372.386295483777,190.080841330941,105.367835357042,413.502604669061,307.382382997856,2475.95479405018,-54.4164110339939,5.17694657528495,157.534996888581,-100.986703989048,166.384105422289,-94.2139148116134,480.755436024692,296.910975028252,59.8025595609716,1536.07049587945,60.5792128045922,-379.368788102823,547.637373029677,-363.628354466084,-1404.03368593926,-766.938373907179,0,-413.309073467403,-1858.88096072415,-691.772292012387,-123.404677760451,185.911563242065,-667.562694359931,-1149.22692008052,-279.7853261659,-691.86572813943,-466.264862690065,96.3148095800755,199.49122742897,-80.0666017390891,179.978756883517,-31.8135381840512,-37.6041912978501,72.5601709743331,85.3535965259081,343.83491777126,221.993668068387,11.8921025327817,16.6760521929675,104.005093269198,85.2875357778587,350.809098394909,269.327225503606,232.603392725475,210.089122846609,960.723310052631,-52.9697604469568
153.285285519677,12.9192101830288,719.63724085388,34.7344310116353,467.118631237426,616.516046107545,-295.0008856045,-130.109880470083,364.379709902721,354.840951521989,102.955130810141,433.705527036733,274.706283454498,198.696831417492,454.416141091951,376.178132158844,2372.74100717304,-43.3373927595744,49.3835705851186,167.565315794926,-122.874550578534,194.561062076239,-177.999051527243,474.302986950199,248.535716277175,20.7387468563398,1639.29087387397,-44.9836859853162,71.7836565890907,503.161774127951,-380.020449284576,-1141.47297756324,-652.24055797036,0,-372.282754981181,-1464.72812446814,-704.667082453641,119.477261292893,228.021866469168,-597.742133197153,-837.705096694777,-261.433352431439,-529.901015495307,-348.044538710175,287.322378792286,341.317669872906,76.4642766979329,323.343922782775,133.404834470647,120.649854603317,203.261786427087,235.458296111886,455.851065235415,324.54538653143,149.893276115183,147.895775418547,234.946093384798,210.200905904124,449.634619253637,383.652113375469,343.681816101057,294.48054590196,978.856293845649,66.2900061994625
333.510360091217,131.079961884593,878.794924016147,177.243154343968,592.082569198102,742.849666856112,-163.946845814164,13.5965084392429,513.989518050461,505.146711887635,278.885104152528,594.450651014779,454.205633764606,382.837084511818,594.837165181225,553.676368087749,1916.48230237394,40.021673354641,155.076466204807,227.780003098498,-29.8059379297593,177.711586375739,-178.419946667814,499.39452485267,195.42355286471,49.9388793213626,1577.18960864293,-129.9311637185,303.818412062392,459.558969751392,-267.581378396366,-839.277652322444,-561.312451487981,0,-332.134585254324,-849.449952963431,-906.754168550078,86.7502256426608,393.751895847476,-317.875280620187,-490.444102444265,-494.120159513755,-179.697108183562,-296.643342876146,384.426579698314,584.599600167526,351.665182872945,551.535052923812,402.646558579871,373.824620841708,406.826178233617,448.044213207037,645.677148804815,489.557107172607,337.078302813069,354.804780412646,428.583927026704,372.290967068118,630.455630388162,556.145650024231,486.194026534482,454.741665751374,1077.77632168755,240.615462485624
587.868836443856,312.097398250813,1089.59639325411,390.394191126777,778.84741316384,916.254463109064,20.5833361005189,239.239813033791,710.28413619046,711.173355006596,538.675104405745,829.956303991528,716.891077908335,655.421343004828,806.260619671421,827.144539755686,715.157193386021,182.669906290481,316.100271786458,331.959087500408,111.069167174031,141.543996935817,-150.069888271961,519.648703775253,191.410786039576,95.6485962742038,1484.27933199364,-156.701339723747,304.43550228858,443.057639505484,-90.7887119023417,-366.21988633154,-407.354557247257,0,-249.066597236487,-289.234946224714,-1025.22556163275,-68.7971528066623,584.046588390161,40.7057049645925,-182.069347988945,-733.424755544692,195.286838382854,-253.845106167449,458.01052679681,805.371533985901,626.494671140951,753.634109915083,662.458374142395,642.997422107474,603.949998362876,658.467504150914,844.96566117408,664.834211754178,519.239801517892,595.272512272359,631.847629546731,565.15176092231,831.366211607519,745.222644442633,642.493127801126,674.691303438032,1215.12366903423,450.348227504527
802.259297725212,500.891378366464,1261.83272727403,588.148728787383,959.219660600596,1069.77225653665,216.808771576226,486.721881780636,871.703003599504,902.7049024963,796.069429925119,1024.06301113799,952.219442669009,907.333249413786,980.456136815692,1083.02891584386,-880.675530114388,357.198644678229,527.347672174787,445.320613145398,281.48381982183,109.066130454634,-63.0269223249821,613.227081821278,295.867922153332,244.199478989818,1394.64582260172,11.9426073901077,424.662581105658,467.341059147916,245.14897284485,269.425141007075,-89.9383864852346,0,59.1142078038066,260.712558597648,-862.52814785352,48.1815615531465,722.780836669194,484.275642821447,85.0204257303206,-685.033537774864,522.692890257953,-135.278139757835,640.934914590435,911.250594596455,798.578927705489,869.904377137161,809.288486013985,822.251862485857,726.561184232632,802.364269217962,967.688703351,795.304065991462,657.525967976763,783.689564380745,776.821272611743,740.407516153967,975.27683247253,889.536849191541,782.073512230656,866.819668499769,1322.79921703339,632.32078560926
935.755575068507,653.356556709851,1367.9502011802,721.731101299659,1084.90671714797,1163.87089397887,383.508513407099,687.840374258592,970.279783239399,1045.55987763468,988.25385363004,1148.35397430193,1118.55686687219,1083.59718938978,1105.18058531309,1286.38566310299,-2266.05482632452,553.280766244917,767.920095650211,582.84401679116,514.17695115461,137.833233873262,155.573326155633,841.466100968934,516.989724507742,595.511105920888,1370.56570298902,455.970351928953,867.808203563616,629.362533798375,852.260174563833,831.261462974526,249.823593478156,0,696.370965873459,953.610095662743,-519.759585706936,334.435233159391,912.447028576234,1119.07029105632,303.573725593086,-467.698912387788,852.286834020557,5.98550847514245,838.996362312535,959.324120279016,885.338976854054,948.778584264648,859.579062355482,891.486460834368,800.267319254986,881.77570890264,1033.14440243472,886.898131784519,762.032846403797,891.458391610508,864.388750365315,874.140926848776,1057.81329120828,984.726385106204,895.133235161273,978.632730855684,1382.12559116386,757.936065045884
1047.31990116091,756.273979833252,1446.46015658147,823.530079054842,1164.63565905588,1205.8837226829,503.398779806009,814.062163090381,1040.66838342808,1160.31015999663,1147.05472159572,1260.2984781606,1269.78759724517,1239.10677359266,1245.43059825626,1491.40458324547,-3426.02179717028,753.919975961698,984.209326007661,769.413596533152,780.079911835474,275.001072766359,462.077417457483,1101.49240602628,805.409665937826,1035.67874954428,1518.47319130568,984.526145026163,1386.84398633809,970.577748371233,1519.32467017051,1122.42524411078,542.620669198565,0,1453.01339633719,1617.32944588603,-76.5676237740822,459.254314184026,1243.82931928655,1828.70978618099,464.451747179773,-253.586900665605,1172.79136580956,125.735991442412,884.712354296699,1068.23310079696,992.563530380152,1067.58162392223,931.885080875406,950.736007104786,903.328132999985,963.083229136283,1131.55818808499,993.000884351949,873.759029362792,983.13771414943,966.380411306367,999.497035526267,1134.27104844257,1080.78949352227,998.881713313823,1052.00419522475,1426.58993592128,861.582998273008
1185.29188559055,840.762146687962,1527.75514059182,945.773554529112,1246.13278719995,1248.84021105496,612.682457925271,929.013180997443,1119.60801968614,1281.08448332544,1322.15639808977,1374.83125150098,1429.5533397997,1415.94833098785,1400.75848814957,1699.56687807515,-4432.27447891466,942.03765383104,1154.83074224068,971.893218657948,1005.55959750006,480.61534605065,726.804409970219,1254.42259806188,1098.63138019342,1323.19339372375,1776.70151160483,1300.16564761968,1649.53334702985,1324.77005129405,1906.23117149437,1235.15084840386,1033.69193254237,0,2052.77680788341,1969.17544117895,593.047244076967,586.971059117972,1625.52413316204,2356.53079139116,637.487315880311,181.370505454905,1427.99485390257,354.431648429709,891.547709448189,1271.87856361248,1184.20385948266,1250.50114687268,1110.25143125533,1103.69507043066,1076.70560039077,1111.27696051393,1300.28138143142,1153.34819594919,1031.90339741062,1137.45879350056,1135.58869574571,1159.23780686443,1248.88630196128,1220.39788075388,1124.71116161184,1168.17733531931,1495.7429069192,995.550567640506
1330.94014996659,936.449645065523,1610.42567651875,1092.51227018317,1361.58272509743,1325.80001758501,761.643581324372,1123.09189821495,1206.93203951478,1416.01829875454,1502.99412680776,1449.72457570892,1560.57227403043,1580.29361925324,1501.04707284787,1845.99542278378,-4864.69987842724,1105.1491694483,1318.38076236591,1103.68679224106,1160.05321270014,605.802476020183,862.144732057574,1291.33710991088,1300.24497148642,1345.77946032696,1865.16228615954,1331.02129993495,1649.40721630602,1452.967086461,1981.55945076158,1477.94269486452,1957.33376688348,0,2489.46241174147,2058.24063648933,1572.64324024666,1185.59843273824,1903.11269804329,2655.20808051593,973.262113161497,1123.53922791178,1677.36155959524,855.967646702755,1119.26562310084,1506.54942090731,1422.01794609686,1463.83672454147,1353.94959445015,1337.24981442899,1291.79189428664,1325.76345087954,1491.90642263403,1353.8193594747,1237.5524207349,1355.79885958628,1340.36439099901,1351.52143370458,1394.16069932676,1394.98093475821,1290.12995923494,1345.55417791137,1590.68072855483,1170.57064119318
1488.75994261886,1045.73096513531,1706.74907774971,1253.58200561708,1507.09657081805,1402.29201570175,960.509823901171,1354.71207214536,1296.43001031489,1567.57588320104,1693.63994083856,1514.98237508623,1703.19665866203,1758.93952449365,1559.96800258423,1982.79370391563,-4964.48800684341,1228.31058679969,1506.19925036227,1130.09774294961,1260.0055408943,546.856628474752,864.0319072503,1282.07608812706,1328.17411352989,1217.21648373384,1676.24348357988,1266.69667882002,1601.3633112729,1398.50403745562,1974.56329625585,2104.06650744943,3187.25634517421,0,2929.78953841142,2130.76148005039,2717.14947404383,2242.32986693585,2079.24829736758,2884.6946219221,1581.00698544591,2400.92859128133,2030.20869378383,1603.04986292316,1574.48368318034,1724.29528870198,1652.16525443294,1678.91501043317,1589.17778924319,1579.70499921461,1504.70150533756,1564.4863786204,1673.66529263735,1559.20648388282,1457.58531797818,1598.2706779816,1533.84060921683,1559.47970983519,1546.0918494528,1580.28854285352,1488.10354210491,1550.30747007074,1692.49854801123,1373.14939300561
1729.82656993147,1168.78757459531,1856.67709164373,1450.45290968118,1663.76585098289,1439.2661953955,1181.82708850386,1459.16590341645,1407.97644223405,1756.01195649954,1972.63707138144,1698.25434123881,1997.21708445054,2091.106424056,1706.93055641804,2304.13538520495,-6080.5191927272,1302.60607194971,1692.68329213256,1119.40553636087,1320.49849364778,365.070959920848,772.660341303671,1258.63211565215,1185.06229099708,1136.63008175538,1445.07163282496,1266.7419521724,1666.39575097224,1449.09716432736,2030.76567644103,3070.62387992203,4286.56455418312,0,3375.79629604138,2364.63226512326,3738.69446719077,3209.72195430791,2263.92466500143,3146.44761235388,2387.31914009883,3499.40744685219,2439.55794251581,2372.67651399918,2026.89772757489,1937.19861202969,1869.48149406611,1899.56092166388,1809.61536702984,1807.13649205509,1689.35647171302,1797.08859155757,1866.4135049777,1748.87781238014,1658.5942845116,1854.94048941093,1716.41476609521,1789.51973395966,1690.66807591891,1771.89212054619,1693.58622924513,1769.17725771796,1786.86674465649,1607.47679269456
2061.94288837142,1289.91306057004,2064.62529491425,1681.73258369295,1805.68274148633,1448.11374249615,1385.14637810342,1384.4080117089,1547.49442004175,1977.5262931048,2365.07695704297,2037.48465159421,2458.79735959019,2602.62482461237,1998.823077347,2847.90627155879,-8616.04511310825,1346.26709262492,1841.80396721031,1154.43280991778,1350.26856297647,188.557377854133,641.993759077309,1206.22758625416,952.816474712676,1155.664355794,1372.02296176591,1255.86455036094,1824.77062277612,1650.466547101,2041.63574544043,3942.94878923171,4881.59794431936,0,3555.73742548005,2797.43717466123,4449.06065678531,3761.4830121718,2415.27785925173,3350.70640513759,3112.8764668818,4138.51404574529,2698.93385635836,2973.73412052185,2372.90893285658,2115.90131967684,2056.33599608638,2088.92159710501,2006.79224836005,2008.51139034733,1798.18068409663,1989.90728317879,2040.46582327792,1886.38462731635,1806.78878125174,2104.69499698055,1868.22983038218,2019.18548589066,1788.60102617501,1938.10420944269,1858.21008261761,1984.0687172603,1836.84252274913,1854.58992584718
2317.9748130101,1361.25964452554,2225.72364035825,1849.65821401279,1880.38828250673,1439.39669852118,1510.26479021425,1284.47357075477,1640.35885643836,2143.714530237,2696.41841069331,2335.47328085339,2830.98763398147,3021.40587827074,2275.80144231133,3293.20663700519,-10875.6408857875,1384.09644565806,1922.01380932778,1240.69510512138,1339.47970601853,131.525806515279,524.204552211458,1053.90371524539,806.791229948943,1107.95526875659,1455.9254920969,1078.23993912377,1760.13172335437,1743.39486696684,1688.79547232503,4062.33867697831,5010.41682886315,0,3183.05240073131,3038.74124783058,4951.95308409579,4076.45257172314,2329.13773895133,3249.322190601,3456.87444487441,4510.96645293683,2632.15059698184,3423.96419745205,2714.75895991838,2126.55377014185,2118.27256763579,2112.62165788254,2074.26085663145,2095.61115024491,1745.91196876366,2056.92900659883,2060.08733463743,1886.48648197317,1836.04785110164,2237.64109543687,1888.22128381629,2131.6621954909,1751.62518964214,1976.07433517702,1900.01872181202,2098.10944838967,1764.17996740934,2004.05559443556
2280.13770736385,1318.4607681679,2172.59133691491,1807.39942011876,1807.0421825087,1365.54729303002,1473.08464164916,1271.07275406288,1553.02435962517,2105.13177688843,2698.60969342684,2321.81108295998,2797.146013311,2996.33692055245,2294.67991822657,3247.46086650802,-11162.2563542047,1387.96895941856,1852.20310825746,1310.35407938021,1240.72417566743,256.504729714165,442.669449042356,711.255864251438,913.403269496295,880.310511062393,1637.88850463712,787.756819037123,1102.9166954831,1616.528681328,840.656176309023,3076.71218054687,4962.6108399046,0,2342.94202310232,2415.22994832193,5398.28873106483,4235.35489724304,1930.04221682205,2635.81986283787,3355.20799615591,4834.74246970029,2247.88999979819,3804.69416384086,3042.38289161191,1856.93171266108,1942.68659546967,1850.43574410073,1879.24972846768,1942.74661299194,1483.4456374084,1890.43254401125,1811.76792156006,1670.17343723853,1667.0195893897,2107.6172927959,1679.59335453237,1988.90622962598,1507.73935532414,1786.99351297651,1739.96693058525,1977.7310195606,1502.90715011237,1911.72704901628
1936.66158712073,1116.482853819,1867.26446873323,1521.27909366746,1549.04168680235,1176.12049914622,1240.6297094994,1237.94819511398,1240.23258523095,1800.58490616917,2310.96916301536,1969.80532359018,2347.89409600285,2513.47041145734,2013.2155347552,2730.47113594123,-9856.28771823639,1315.03727421294,1588.20360945058,1321.41910778736,1079.25941433009,490.525924622071,442.297987266641,292.309195921589,1246.91419590709,737.849341805791,1838.63715977118,708.370181193176,173.13567944643,1473.22112897428,38.6100597550977,1509.65170135118,4741.79319842173,0,1553.22860142915,1057.71592563518,5556.70180930217,3927.57436825071,1439.65086183183,1684.39590619035,3040.93841004182,4918.18333991746,1758.12042844254,4031.78696418796,3092.45614054146,1396.85089817634,1543.18417312191,1383.0805557097,1443.70720398748,1547.47922763309,1093.85741991111,1496.92524914982,1379.42990813704,1283.43725453981,1313.57887504631,1706.57998345655,1304.1789452909,1607.10154973971,1124.07681317351,1415.15380899006,1394.93970364284,1610.22587832965,1098.59336372313,1570.01373781866
1497.42516934947,781.026231632828,1462.10954144602,1119.14246518472,1173.65895204805,894.11432568631,888.787727482601,1045.2624265859,815.947068084788,1343.01010381934,1749.80939257436,1514.43215853433,1781.20709406276,1900.67262247634,1627.87132511558,2144.37002789608,-8424.10417150116,1183.25072258873,1237.29775208725,1304.21427415843,981.583085757072,678.899595056717,574.931204988809,102.149999034556,1602.90767346369,1022.95904182711,1986.53896934973,1041.69343769659,-47.9727151010816,1480.87217105762,80.1433853915942,544.594270404949,4017.99397760823,0,1234.56575064818,198.285313429224,5060.89007145369,3056.29070929147,1125.00133396633,914.192241302546,2833.23791456425,4485.54619534544,1424.39332967992,3976.24881629065,2690.95751990058,985.60843991631,1069.24595604295,950.437491184843,953.448003618708,1057.63832460333,739.299765202578,1029.47540540927,984.801851059436,887.889213511409,910.627663614849,1207.29817359558,947.764667849686,1160.02579730829,776.711964258852,1023.66492981457,985.200637665551,1146.24155597539,688.181104283535,1138.67344193185
1159.31181810363,445.078896576529,1129.26380720708,766.066245492233,823.704335418356,615.796407725393,561.884265107676,766.208678094913,442.952573950013,917.921962514973,1265.82197763218,1164.33211847054,1349.12893441744,1432.67694509261,1324.18558079892,1765.22202565065,-7344.70319931106,1052.92355483183,967.319302449994,1280.7419514448,990.885437768082,752.267456739111,751.853676094597,242.398085603151,1762.73223489159,1570.10421844603,1973.55993136437,1504.42745374356,880.381852759506,1426.87829337196,1025.96582542664,887.441861144415,2856.84655113775,0,1226.98420879812,684.296377020138,4137.01784606037,2143.74189220695,939.281623770701,623.179586416601,2919.17347343376,3777.80734753302,1369.40159882237,3784.74610946987,2122.99710152728,773.372631270397,676.059640658888,714.662832335401,585.236851498934,643.858100810738,519.992284293799,664.580547645244,753.913747260836,620.460924491772,608.975909585856,818.442825246871,723.862832875093,812.241677878097,569.677836599946,736.543711505646,644.116945159266,771.619267480512,374.239380438354,798.410625449551
980.550618439761,281.228268086648,936.487549240649,563.829339376541,631.788252534455,458.94081524422,387.649072366419,627.427466464909,218.114112185227,651.069555998556,966.609002402583,955.044165577816,1085.89204909999,1149.5681595146,1141.05650179756,1549.64665127155,-6051.92244078039,998.327589523357,872.702102758527,1257.55061226593,1057.61631796829,764.338310999897,862.317726720069,515.765443263215,1706.50197604699,1976.79589209679,1627.0391439278,1772.98282137956,2272.94766116666,990.444056509725,2192.0995818643,2005.28468540459,1959.37851851075,0,1125.85799354783,1902.48075073071,3504.05320220893,1706.67500291582,661.099833317172,610.968631862163,3313.8412576038,3333.59819602986,1553.42349651739,3765.2832198391,1856.3686136426,729.781693977607,469.128232390391,664.228634259278,420.040162415147,434.881319297347,449.141595409996,508.097298760978,657.670039715431,525.398772975866,489.86905236421,649.749205069299,625.509621462133,638.401482810365,489.111675304075,593.235782122054,459.893566669347,586.796230275178,194.33283540787,636.22491364195
889.151585165361,282.52635218145,831.256107066386,481.090121862165,569.417702462039,427.166084855299,341.528225816228,672.064021478117,108.828273005301,511.975351164498,788.199049477145,815.669753259296,897.105373935017,954.226334911482,1025.22957764899,1361.2715184585,-4382.15293778758,1031.76174328531,891.730505803765,1259.83873843534,1147.26618466988,773.029773127903,964.622905274017,686.091190510353,1663.48511591789,2197.42614577872,998.31237236557,1983.63479949115,3130.05729154872,330.197162304162,2967.54542803123,2746.91186889368,1667.87683200142,0,843.225353101515,2726.62062736329,3352.20320704895,1516.46863245808,303.323859568095,543.668303466999,3782.98453884926,3133.32236222661,1792.35818542098,3832.81619452001,1850.32489622287,721.245824130887,445.832924458327,665.982747541582,409.752844483154,430.213660239972,454.553507368655,508.701966612958,598.814400350761,529.350250348955,491.810660219189,617.556730941871,586.791415772243,581.314370569075,461.126785165935,550.591243495372,400.318700677326,521.223836555508,113.693206307824,581.759972134414
