34.798290201261,43.0628841240605,31.100971867377,37.9881334697099,45.3102736995586,28.0561214747667,36.9731833388398,43.4978627515762,35.1607723908575,43.425366313657,49.8050528505548,33.565850756633,41.5404589277553,48.5001169680075,34.0733258220681,42.6279054965447,32.333411312005,39.5105586660151,47.3401739612988,39.2205729143379,44.5128128824464,43.6428556274148,42.5554090586254,45.890245202913,66.0442549444766,36.3207153975662,49.5875635367969,29.7960359848297,31.3184611811349,35.7407438942118,-9.35204049158889,36.1032260838083,83.0084214175913,24.1413138271248,0.507475065435056,-0.652467941273644,31.6809433707314,95.9127873672256,34.3633115737452,9.13455117783101,-5.7997150335435,68.0016587682975,1.44992875838588,-1.23243944462799,80.0360674629003,40.0180337314502,46.6877060200252,39.4380622280958,37.3356655284363,45.0202879478814,33.058375691198,22.5463921929004,28.4186036643632,36.9731833388398,27.5486464093316,31.3909576190542,34.5083044495838,41.6129553656746,31.6809433707314,38.4231120972257,41.3954660519167,46.6152095821059,34.9432830770996,45.0927843858007
169.684368749085,208.609692622948,151.053231032028,185.110088040445,219.635987079139,137.330449759706,179.424215568242,211.616109980401,171.041856279907,210.329662343367,241.108604488166,163.03901088255,201.240826921352,235.134202808418,167.041890125361,208.068154154751,157.481099584805,195.306314820893,232.457660781931,193.422863979123,220.999300786489,212.739076496085,214.611321813001,230.870021868366,314.393433191109,195.539826120101,230.942071478084,145.658800855634,155.710034760244,175.243736590963,-27.2660594378423,177.761167128493,385.970954242619,114.33249406611,5.23531868743827,23.0752685921119,166.782044972251,452.85659844722,151.743685180258,46.170598033397,7.85874617792038,334.410742493424,35.9509504873105,47.6544741350161,379.914307144229,192.422032461371,228.709247343905,192.642434863392,186.726411008446,222.82728689172,163.820896542413,119.668993245903,140.717837552268,182.396569522933,142.317128818888,163.01368674458,169.033357351944,205.789614264755,154.747636277648,187.754023208301,202.872725046603,227.785281896466,170.082370885576,219.546458939839
337.53497489584,411.655928964658,300.252279099599,367.430717186678,433.391931170698,276.056893470234,354.864310172078,418.781174570644,340.998462740863,415.679443523389,473.749501840512,324.058396096796,398.563959080815,465.009099726085,339.144090634762,417.966391967579,317.626633844907,401.333087557553,471.131842677195,398.026204315399,459.548249107648,429.921677164326,460.715579431677,489.138900662372,613.061401720986,462.269225034391,440.534039910769,313.91036321397,333.712904681608,364.320473349369,25.6585228427328,367.560645704106,707.795646338377,222.493771334725,36.0128506746023,139.630872677234,377.036887372785,852.635531871824,252.152340140847,109.661083607022,143.293356190831,671.127700040744,182.09175128725,265.706327381666,726.2530028893,378.882096066976,457.603727706276,386.693217356276,386.390308556124,452.279716628501,337.04103827438,269.936036970846,289.877176128792,370.345494199976,308.411212901318,355.434121092866,340.873449520222,418.232864180626,310.944334352901,375.51836127526,407.237395088808,454.844534058972,338.493369322192,435.884722336063
351.582245128887,424.144721298538,316.224837764964,379.500754859933,443.878140156056,296.005278416579,367.329566727647,429.704903039406,360.901105589031,431.258228832879,481.204589204012,341.669047806845,418.046008887483,482.83455607032,375.012925253148,452.387882267067,352.190265203815,454.172659825288,516.709839768354,456.104129201765,535.730439026552,479.842054242415,575.603716406437,587.696967431027,653.294873139889,660.376488802693,475.217896737155,444.193475926222,435.855468122377,451.869652942613,235.336366670023,437.10121928898,630.540511682096,246.26790349637,135.248748036833,346.28796203828,492.900039201298,793.199967285168,181.631589545158,180.710504111682,416.331601199886,695.69832036213,440.260216290987,575.283865964001,707.953477026052,400.564050162126,476.815197996388,414.816140767903,426.866818975603,480.218108421049,378.119045409757,338.938121022753,327.018470009215,400.406088072017,365.719116973965,421.631902352372,367.570264807769,449.309643609373,335.223194892384,396.447566176179,429.60904787559,473.898749587174,355.446236753589,451.990144276821
206.459792941152,243.849016144697,195.189466648935,215.091680887494,244.498759542333,189.579612596597,215.452195576314,239.683764719605,225.427871129169,254.992848158741,265.469296495633,215.536434786548,260.889881179682,288.836324225365,262.370051697078,305.72170776265,256.656790281995,334.789726746931,355.133621460082,348.922723447885,422.422071942853,358.344839116214,518.611013447661,490.556533263557,485.706161145437,689.177193899825,412.353706568923,547.996174223272,454.101661412484,449.141669709209,496.785101241983,384.922060051341,270.093905262871,223.385640628266,292.28759491384,489.239098460363,435.621531695068,346.907308144209,52.9381072718953,241.505545408182,601.570232983368,371.167998383773,616.344314886119,616.989159851426,364.793861935864,262.357051929006,264.721365104477,264.181363818673,264.944788747072,270.648919373353,261.386805953731,253.712122255682,230.117515046142,251.279704303631,255.867187433506,285.381589777549,234.562874399373,269.699683070629,219.630802868339,241.312451377346,251.921648420274,266.844054101713,216.912489345846,260.012830877999
61.1113237817148,65.3773528701425,70.4659324643283,51.8693830027543,43.6185243851842,78.324392852089,67.9046855933802,55.6197577058832,88.6067145706667,82.2795827105599,62.25004892684,95.0743659870256,110.838549890726,104.959230169575,140.622004652189,157.606923346338,152.080414596531,196.317614332188,186.301435434058,216.438737385427,278.356053135001,225.794765303823,403.093600677458,359.850069736451,364.154795020236,597.968492998575,409.619507084898,605.898704806383,450.263668866643,436.49262981295,594.695341547557,326.229739013621,68.4894109953311,240.112905912131,390.793008290037,449.862776905591,288.999689402763,19.2669626512239,54.060224247908,250.770538324013,505.686439830781,43.0426528887027,519.010186462944,275.089313475996,79.6577986453538,111.345253933253,33.5598797172836,94.2644253596583,56.9448767009197,29.4309325036176,110.966903215158,81.9600698660781,105.118352953834,82.8163702668857,81.3322953426868,68.525003673533,87.0327088525144,61.99898990063,94.9685062723697,80.7292753073807,61.4539677786392,47.2506584643006,78.7670361264502,64.8056125186634
-34.1520320252068,-50.699509740369,-16.4354366836483,-50.3875375762809,-82.3720058203647,2.98267035469698,-24.8774628091546,-53.5560961960982,1.12041019239651,-23.112872091483,-58.8692880282864,20.5491436527337,17.2247201157971,-5.08714809419938,56.5274988354933,54.617863314694,68.5701342640394,84.2681124316989,69.9785007434822,97.6958644219893,145.926847693262,112.583718316668,245.104424367323,231.029360965956,254.159338615821,416.105916718091,362.67358075206,485.699292204526,382.581020745837,339.443026199905,478.480414495165,247.566989369675,41.5897382646499,237.973322548393,328.955036968699,287.198975409312,135.452779647958,-79.5967169778739,93.7559042733758,178.538691993238,239.799521431602,-107.610929943991,223.967666891332,-94.9153059721947,-42.568871740273,-35.9685316199309,-129.607505801414,-46.9197441984515,-106.577604234149,-139.488558294378,-23.1518780625308,-87.1404435300771,-5.30768190015128,-42.7841787453454,-73.5913772291885,-113.456145076754,-22.5795282204982,-89.5583925741251,-1.23030940557289,-31.5003649265924,-66.0418797959278,-98.3117783398244,-14.2537871145711,-65.6761825083085
-104.564323762417,-133.436662291873,-80.5666975842656,-121.38533673303,-162.016355740301,-51.2599449149283,-91.9852737580814,-127.675968302187,-58.6399434685449,-92.3457646805846,-144.646396390446,-37.1053058125948,-57.0556400149702,-89.0166469261224,-9.36320726833982,-37.0820467168379,1.16840953902618,-20.1197446383102,-34.8827239077447,-11.9356773948944,0.54116139014004,14.4370494300741,44.8671991387413,58.0866791398382,70.773762763558,152.463414342568,186.469147043855,202.233514629166,200.733901485941,116.297103592887,242.20618675827,91.9198095474112,-20.2636062144602,148.521941166106,135.756111554913,90.0628279033507,1.69237494818049,-125.427309147662,22.2686268230814,52.6553144159908,10.5993270334815,-142.045637846476,-50.364166145983,-209.218918997704,-91.3126195693035,-189.079055264513,-245.74768925374,-173.140843768485,-215.812960115585,-249.091703457892,-139.429704745938,-197.887069927786,-100.381718341998,-143.498253997732,-177.618507155825,-221.991451414542,-110.930157968405,-191.798413034017,-84.2486029433506,-121.320643496434,-153.759052252152,-194.357509996756,-90.2297281071373,-159.0019408758
-127.775493346506,-157.201046906097,-101.376131848673,-143.074662279962,-183.414943765153,-67.5855347719526,-113.052242003354,-154.571545856728,-76.5273698473263,-114.110992244884,-174.516893198414,-59.7555477899081,-93.6572522742793,-128.65713819918,-40.5936385369521,-89.780772541989,-20.0801259797556,-82.8060797294222,-108.056120364399,-67.2036746706205,-111.413899486977,-9.76114313583409,-108.229169757193,-110.272037871708,-65.169955343423,-112.527278360623,9.83841172954597,-63.2346799263112,-44.8317385352134,-101.37761160971,-57.4596212341686,-101.533797095557,-117.33956477298,30.9975102502606,-94.4862834440685,-131.414355247619,-125.968210029261,-154.772515115856,-97.8741601254407,-93.5005395920468,-147.944781104795,-139.157998204565,-229.984000864618,-179.080443247452,-95.9016097390851,-264.097190004758,-281.308934192215,-231.810591735088,-240.779977134235,-278.912628843046,-192.373744692466,-219.021804761962,-143.296269617462,-187.857546878124,-201.167370034512,-239.410801642498,-149.199898928379,-217.928001691993,-119.492377912871,-157.008341646104,-182.943802332167,-220.592465573388,-121.421660651905,-186.342655888836
-104.820636832768,-126.360552270631,-85.8979486608389,-116.774846374514,-155.633737779886,-56.1356371195942,-93.6186104944896,-135.639506809762,-66.8529687289969,-100.889188601956,-149.383338142677,-55.6047001052028,-94.1528291650015,-119.738914075621,-49.6639624117638,-103.14818193712,-23.6541004726128,-107.129182604152,-140.997608751772,-83.3284932950101,-163.734152962959,-0.706145940832614,-178.926936979044,-209.610336053876,-114.994001177586,-279.801216180516,-84.4354323162321,-231.649589002043,-257.236547607689,-217.188196389749,-356.04376793811,-251.918698637407,-177.908362614507,-45.4773737303891,-280.846240462759,-334.810735137534,-262.073572778332,-150.659810428538,-150.270926492085,-225.766403158786,-280.940749943959,-140.609974475153,-350.073433879341,-179.918342536853,-85.2212129752724,-214.026160524562,-217.629012374746,-191.418117353933,-179.978812149263,-216.654489141855,-160.202754156335,-165.008473809547,-121.965846032366,-156.642234091168,-154.07942718415,-183.283562004121,-123.594688039535,-171.489141790998,-99.6600670237824,-128.684044953008,-149.664639010242,-177.067472919685,-99.499663303638,-149.315869175504
-91.9752480757234,-107.938667215613,-82.0058974849055,-99.3899881357114,-134.993395814766,-66.713262515019,-93.0647889141757,-125.814183784011,-82.3047568610076,-106.779207711289,-135.367340844998,-79.3591838770027,-109.596317619391,-120.815391955684,-90.3679439824926,-132.04025718389,-74.2042300920229,-148.428293266327,-174.876776802418,-131.198460764704,-200.91138827221,-65.192978552145,-229.859809801575,-252.768418520463,-211.055846210944,-337.151972774458,-153.962305163269,-349.728038561208,-366.710405997011,-272.731537023009,-515.406213759231,-312.413165431379,-220.443225647279,-85.8462193866638,-369.148186310901,-416.155256594723,-346.616534341338,-163.643250312125,-138.184077524403,-279.317310292969,-345.192569916897,-159.16783807364,-386.307134711423,-192.234363896398,-103.382113143702,-97.9494467839306,-120.476994690588,-106.503192010448,-96.2336183222001,-122.812646680461,-90.5039275237572,-89.9457163987638,-79.4143572492193,-100.367499929383,-93.9704199705285,-113.378462153491,-83.6437131951135,-116.363428315229,-77.9321448079492,-94.1788390545697,-107.897409613124,-125.047401949874,-79.8572205345057,-112.466788621562
-110.189924206834,-126.051733117907,-102.42191166064,-115.393875666702,-145.58110500338,-105.232581503404,-124.33157875826,-147.384909216297,-124.737751848702,-139.663550344465,-157.839706171419,-129.961997575921,-149.106016962985,-156.208799888477,-158.261825645577,-182.940681989543,-151.726669612111,-205.313680236275,-218.072354847966,-204.572299717184,-248.368299132807,-176.591281038553,-294.274609310518,-280.749181620268,-373.350320893934,-358.241812230591,-229.426958093274,-432.402251248326,-370.41190080076,-322.039360959467,-480.469825063093,-299.381089188203,-269.195467980317,-110.660319302953,-363.519662581071,-366.086919699959,-322.487740626327,-228.144255569271,-119.104455005735,-243.043550597184,-307.414931788353,-197.766220344544,-329.05970190069,-175.783086588183,-169.534425753444,-9.41379749578406,-67.5595427911228,-49.7533537985694,-54.2768104485201,-75.2858961410702,-43.6128615715813,-47.3360195208069,-52.0575842204768,-72.2415966014921,-65.3255061668644,-80.4151331490038,-72.8394197247243,-97.5799975084144,-81.4860474029558,-88.9154375327891,-96.4161952610958,-106.494618861215,-90.0647091153595,-106.541348657914
-127.427482682003,-143.93915014973,-118.321096998504,-133.992693688093,-163.396130346409,-129.585697824924,-144.271351187509,-168.133958180198,-151.027491903149,-161.245247822485,-181.344367959914,-153.271622766946,-172.373144949146,-188.280814602903,-193.974539813886,-211.42921365352,-186.200948703336,-230.803572632542,-241.834306703202,-242.995347049776,-281.044231644889,-239.594814801574,-345.985971252096,-304.046558226965,-488.365278090795,-392.795537063715,-293.34075616564,-456.569840038743,-319.839873334989,-388.235751209001,-360.705122213008,-270.7780333099,-301.409425846012,-139.491257361912,-327.551461879273,-290.93502950988,-252.867196476464,-312.515344525383,-122.837195725473,-200.216061431764,-255.280543481407,-261.212474776624,-270.941714904413,-190.868201898602,-280.463109103694,-2.69944099922356,-79.4941978136166,-47.9671807300952,-69.5558320701415,-91.8031121916895,-43.1561669227598,-56.7008731964756,-44.6314084063286,-75.7419902983058,-73.0748848254669,-90.8693362803241,-83.2601737742912,-110.147745382181,-89.1877155615084,-97.4906631410365,-107.057973064667,-115.859014478213,-103.56628540696,-116.758222680432
-133.085404084817,-149.271767384662,-122.978234770988,-140.73682749991,-174.12838285064,-130.632305706799,-144.880357144385,-172.507823709465,-156.523184345386,-166.252930806976,-188.799205366126,-147.393352705581,-173.918763441651,-197.589368441188,-192.019364007719,-210.880109441943,-180.761759055848,-227.051577616273,-245.849101897181,-250.05623962026,-289.466035628611,-267.61190885076,-376.980556297341,-314.761005316131,-533.996526990394,-422.240741985454,-368.437982279309,-443.577689436862,-271.731781448826,-501.751258375049,-273.801609737801,-270.890848409431,-299.345457152454,-208.912793433678,-322.207807646663,-254.791891576568,-219.933399108123,-367.255882518639,-163.494593850926,-210.127760604099,-264.658721460557,-322.578769613386,-279.396004763904,-252.247251741705,-396.211062497602,-60.4575689287667,-127.414967819108,-83.9724600733682,-113.596191761772,-133.123370640337,-77.1369286677995,-94.8685120543855,-59.6778825942735,-95.149527661787,-101.394918352387,-119.727213037157,-97.8571887904556,-132.730598551365,-94.9726544962098,-111.855528777522,-125.59390163625,-138.929336592637,-111.250035891572,-136.374541680663
-142.718857356699,-158.392670537787,-131.992277528707,-149.306276938478,-182.249875034153,-133.659927347453,-151.566810585823,-175.905129272615,-164.639788198451,-175.789793719254,-191.809695269252,-153.634217339367,-181.234629459169,-200.97244198999,-195.699006683397,-210.490394843551,-188.543028648279,-229.409761543071,-247.422485323184,-266.048224685857,-293.324224643346,-313.816183058509,-398.646471573025,-314.721878186607,-558.297779307439,-433.593635294435,-455.68790845578,-435.882648578343,-256.950276155956,-628.024334870572,-231.020159085465,-299.048821380033,-275.677146013251,-304.166374276382,-343.690142037787,-236.310476088382,-208.368057305776,-370.681662319448,-224.64901946901,-230.523315335402,-291.44448719001,-333.095959338048,-304.400330537166,-282.276091056115,-447.775455262951,-109.453546737639,-156.075255502818,-114.39573772145,-136.761713072004,-149.441551659128,-107.458875798619,-114.550651816517,-89.2819760112925,-114.691915181749,-118.690689049403,-131.511721231874,-112.777952042557,-141.174605172033,-108.379817052556,-131.058855284921,-139.27812929942,-155.958330739829,-124.553284690403,-154.180073986069
-140.642487697053,-152.352422840623,-130.465771565124,-145.137161269985,-171.110946739878,-132.611318625472,-149.660551731916,-168.623290885028,-160.652815183998,-173.748181755517,-180.496675696774,-163.369335745321,-182.592277001045,-192.980078269153,-198.954344001813,-207.244231403423,-204.901448511397,-232.711333573502,-234.98702205579,-275.546827249806,-288.547968749755,-347.596924727286,-392.803091696364,-306.607608511249,-538.74051387872,-440.087861617737,-480.943284807406,-423.989594019128,-266.763532956516,-646.049150008665,-191.694151813572,-313.912722656737,-250.294824908079,-334.253011279694,-327.926132451295,-208.110946252603,-189.892151781479,-338.921282913217,-237.597628599548,-196.071425279131,-273.306830361775,-289.883066533401,-273.868358569331,-246.325009591322,-408.183314296191,-92.2311688196134,-119.476511265794,-99.192994382787,-104.327909031208,-111.138428731286,-95.4265130252895,-81.5660007254256,-96.6085420378925,-106.289187989086,-91.2881054639319,-98.4530919430305,-111.3378679313,-112.642553593618,-110.044460527983,-127.978650475185,-122.382619087805,-135.145306953883,-127.339064015248,-137.813949472674
-113.654339332655,-118.530826544052,-106.796453347739,-115.084807418907,-135.276460228626,-112.253868425888,-122.157355827553,-139.479244058011,-131.481804100263,-145.66599601878,-151.102579121074,-147.844831163812,-159.823319743273,-166.674180216268,-176.428075717287,-189.993453127917,-196.270178449559,-219.909015080682,-207.292657987713,-256.923840873944,-266.023382996901,-343.158305776174,-355.181709052065,-297.2641893317,-465.03352989022,-443.935131309096,-433.375389358864,-384.996818805853,-279.248931436929,-525.279764744779,-147.342910090435,-291.896129555709,-251.499941853113,-268.274403676395,-239.796412819748,-174.942651373971,-197.66475379287,-327.953223568198,-176.600868494824,-123.336261544241,-227.841313532293,-255.497466125962,-205.560219085132,-201.505840464283,-346.858788960086,-44.1683139776489,-52.7044316199734,-60.8455450052404,-50.3545263785627,-50.8234026279556,-61.7037089436147,-26.2647635412532,-76.0028436391772,-75.4534720986855,-43.5834901093458,-47.5292672274151,-91.8297509246217,-70.7883497365342,-92.955095086729,-100.859570786187,-84.9611132346801,-89.6086925203243,-111.877614890556,-98.5158801997077
-100.969474918014,-105.351650088541,-97.2244244456491,-101.477190411042,-120.27891135017,-97.7014342683816,-107.015298073581,-126.415637357559,-116.029059577446,-130.949327495714,-142.283287431121,-129.374704322829,-144.155817881349,-155.207103798258,-158.202128115169,-184.274811106766,-182.255754314791,-211.013990373044,-199.56643879719,-244.667631336191,-248.61202603366,-351.222599489187,-327.251793177716,-297.065987757882,-417.290590317885,-428.827661740762,-409.171910735953,-330.426994928323,-281.272464891213,-372.212002958306,-111.50023700275,-256.083589448224,-299.590695992632,-185.922182189421,-105.807704464541,-145.778175714687,-239.602138762368,-374.219888727367,-106.94515842916,-72.9788361460982,-191.686828282875,-273.309290166424,-160.650125443273,-191.310243196715,-343.239533802665,-50.997123336561,-44.55900772014,-65.6007814052418,-49.1019107184193,-44.0462485241781,-70.1328338366179,-21.8415247897236,-80.0055319017448,-78.352622329274,-43.7472018131119,-44.6955547973881,-92.8975659633024,-73.5912045101361,-96.5638433372182,-98.5357163410729,-83.6057986334386,-81.9265095611178,-111.349781362551,-97.6447278372115
-113.711372908115,-126.107002019794,-106.726946099428,-117.955680978146,-136.828127677763,-98.0008470383076,-114.545543118876,-139.698498382186,-123.104719591079,-141.317699865897,-157.418929961953,-120.778346047954,-144.560155928611,-161.053814171936,-157.751987483361,-186.737294143005,-178.812880444987,-205.624757907754,-203.644091595967,-246.007073661929,-232.392067759982,-384.731837196203,-309.258965836349,-276.621675470817,-425.095988087408,-360.482825204537,-442.118963380472,-259.07154570009,-233.438305552942,-239.732525047445,-52.2432521486608,-196.563846991669,-336.397471579245,-132.795581698718,58.1535676461084,-89.8805981534805,-238.251461444885,-408.050492983897,-52.4336041121726,-26.0413881470903,-135.060066070393,-286.396792959942,-120.962028664542,-172.057871683109,-354.434790562721,-110.99297309823,-91.5211713753809,-109.96761066402,-95.1543693932586,-88.7442192826607,-116.398752121504,-65.9226964530919,-119.326255670534,-119.795915927885,-85.2336036436967,-82.7317449191638,-119.32296899178,-109.092400676542,-124.214014559556,-123.627269493785,-117.57289066137,-113.373678007135,-128.414576984966,-132.48979141273
-100.924659051103,-118.64766470014,-84.9797928375733,-105.373160971401,-126.836004993022,-73.3601937873582,-93.8324914224323,-123.338285709515,-100.426564908785,-124.229183010751,-139.108639060255,-87.6581358670776,-118.291082723084,-134.890083849523,-127.736286034308,-149.107923048404,-147.676809402001,-163.661831314227,-164.719102679173,-211.137696092961,-177.664009974135,-378.336303235428,-251.621067960859,-199.268957515647,-406.3485533952,-236.761892744261,-466.954163974754,-180.623724553423,-113.031569110571,-90.7795724185509,61.1517502847419,-71.594003865488,-266.249710756886,-94.6509081177235,240.305826922561,24.3725783955673,-136.582658952006,-332.359164550936,28.1372436307422,75.9609058108294,-23.2274527884266,-218.316703193382,-29.6076882487131,-99.8517224628454,-291.542858335237,-143.421119873984,-106.608107613641,-127.204880246461,-110.761361782264,-104.711492388187,-134.12734958587,-81.3176537332235,-136.618660166434,-136.182591281504,-97.3943652518494,-90.3362458511297,-123.989761783396,-110.233336227414,-122.345623595142,-119.447792455398,-121.390664525947,-117.534965541936,-119.022793904963,-132.674924342395
-56.1310771365949,-70.9256409504363,-32.5670278712306,-52.0195428618398,-78.9924333944592,-18.749564430892,-42.3278675747541,-67.736819803368,-43.0734498238114,-70.497663708466,-80.6179349567185,-32.7663645182302,-64.9376993914797,-77.2734833240093,-63.5948087744649,-78.1132415502493,-81.9916788008554,-92.049319642049,-90.3936405702494,-137.134401382749,-100.388162843955,-302.188162528495,-166.142046986775,-107.833974692296,-306.184598932029,-143.189797321524,-446.341494152772,-156.212206079876,-15.5124871158257,52.6859379585888,154.66879207408,66.0675616639121,-114.276993135029,-104.124597273216,368.182809440958,142.096512910625,-1.29279961502583,-186.279628874892,101.779570364923,187.68590038411,88.6202426853512,-106.335955193293,80.8637704846189,-26.0538962361634,-188.554946703129,-137.649868425255,-80.5999125446167,-113.021336518229,-86.6742951602399,-78.314401131634,-118.47070117038,-57.5429804728773,-118.268633594385,-116.086907237194,-77.533235211626,-63.9664487180179,-101.011321342905,-81.1878048826518,-84.7265028450887,-85.2124838443417,-89.8748165381333,-85.3340982488684,-81.8771178020108,-91.5056016776152
-33.0166908360392,-45.4244444754271,-8.5954032076538,-22.0381035906538,-50.9191685140665,11.2377069681543,-18.2772949233889,-34.5682662665843,-11.0265036708206,-36.846845233984,-45.8832454007545,-7.65302500012452,-36.5914508647282,-47.8232944790727,-27.0627266640018,-37.3779814781093,-35.0148219325118,-49.9445166499554,-48.267933396549,-79.1234437422713,-64.4879607745985,-195.782467431562,-113.886724213154,-82.666398408263,-158.901379770979,-162.919235897915,-372.981325216169,-179.467319854025,-71.6373901561967,116.718584665856,137.549383575704,94.4831402669477,-16.6608309513778,-166.211386852341,376.706396965219,174.11227227431,57.2598875938703,-107.227016804919,111.277230619967,215.512122838033,126.023753966251,-56.5998512281548,140.917443093533,-17.9058999423694,-148.524945815287,-153.524747779111,-77.1144996815053,-121.079271843804,-82.5010959837371,-68.4761230400497,-120.500068599538,-54.1558708952705,-109.949608637845,-109.957597996034,-75.5785203543847,-58.2416842873444,-92.3155211535916,-77.5307759213687,-65.1859349629039,-75.3023697584574,-77.6213285771994,-69.9038147955785,-63.7747791094833,-70.214290055295
-37.8131270743227,-52.4029169957147,-21.286416970109,-28.8357888696164,-52.0853873457446,0.174009156210578,-26.6770340720383,-37.0245227848713,-18.7655526558239,-36.4482126110824,-48.7537054902885,-17.9177470448217,-40.7922559163019,-54.560153929322,-32.7898728491159,-37.4524999698589,-25.0456055511337,-45.8395749648374,-50.3177343112307,-47.3442554152987,-67.7595601522808,-87.5389350077363,-83.6646450489612,-113.830238110071,-2.50873582051485,-229.329856019704,-214.861929304052,-123.896827055772,-226.113556195408,129.709370414505,69.4383101462943,9.6532430281784,-21.2365835060757,-164.831549107821,315.000718172118,148.33675668453,29.8066370025957,-123.492449808067,121.567245519646,183.384465730773,109.547749622665,-85.5607974079107,170.726595819042,-39.5479073006811,-165.639849030779,-175.47171302313,-86.8277409900171,-139.848803006958,-91.9571407031936,-71.9627331134612,-131.006160966364,-64.69932003926,-112.113650165505,-115.467547087176,-77.9591727899357,-62.5725615963561,-95.8339181017257,-85.4281801583247,-72.1309704254471,-85.4227129512979,-82.2737128142839,-73.3429329342212,-66.0937476970636,-74.2228634036017
-19.960609534572,-32.8638632283303,-16.1169662770475,-15.7028794214462,-28.7864117343371,-3.245889189632,-15.0588494644765,-22.0407348473693,-16.7756906901281,-22.2520136934349,-31.5199467536656,-16.2776948776425,-32.1172985377983,-41.8982362904345,-29.5804700143211,-27.9050055313533,-15.0735776061497,-26.8137336198415,-40.0818710437256,-4.27784316888864,-45.0066223551145,20.1107758876655,-16.5203536079529,-108.976442994255,148.538044503635,-194.608031623723,5.82058189991134,61.0643011041679,-265.674741881349,198.231046165901,70.4398916878467,-68.825536388428,-46.7285926279455,-42.0628969926633,253.002128723601,172.461786146187,-15.3115553477336,-111.923734722613,192.961752042568,181.263969735732,93.6932301104899,-110.885714670952,219.745612156185,-18.1104937415504,-144.353757281888,-117.507238870784,-37.3079414122717,-92.6424144306255,-46.8372095565362,-23.9823448866721,-86.6638357506154,-20.1897351988416,-72.8712883312314,-72.8553117345108,-30.1707374242842,-15.9671581844827,-62.4621774537039,-42.5489054856246,-53.2592048374906,-56.5991360903633,-49.0741480250686,-40.3154465491764,-40.1969664013964,-45.1822618951739
28.4144086324668,22.6406963710696,25.1217060027931,29.4387694752188,24.7986186584703,20.2952847476096,21.1021875787728,19.8437068671518,11.269639207181,13.692379415563,17.1515947282807,7.53653639190239,-1.54347460065517,-1.26903898790184,-3.33003948789577,0.724455016592012,3.70177847450564,13.0248109322737,-4.27986227329109,40.4505804441591,2.71163479133141,95.2118114537932,60.8710574057207,-52.79143641781,245.661461669443,-72.9938401838308,171.727506843711,222.235564833491,-144.66080676745,299.593403137262,107.810571224068,-103.230166640797,-64.2718377324269,81.2172362151972,143.988077563161,227.746946931738,-66.8995418288667,-15.5706630323884,224.172320895906,195.620121124843,58.8629911020265,-105.392097586747,242.404964148132,18.1422563743593,-82.3211317484837,20.2019677897601,63.4836015487816,27.1294988803231,49.8881314979094,69.04718668609,14.2896293166214,74.2377309314148,14.1419521636642,21.2962724065721,56.0541442485728,68.2234230788665,13.0133883630395,42.4656669321976,6.96996894464384,15.6987188997648,22.8390393629052,34.7471289816023,19.5279412557254,22.7308967478205
55.1995330276254,50.9943938073066,55.0184416018935,51.8223473872792,48.6805209978476,31.5560720229042,31.1231508781115,36.1865235682734,21.9294370556888,22.6490195192487,33.7541272366961,11.9823467185329,6.24601179857335,8.49405084888446,2.0151684539087,-0.394126316883817,-1.55724870002011,14.4149685822296,-2.91579267284806,35.1671287718694,-1.71988166093143,98.1371982739725,58.4088235209278,-45.4101215584251,232.435309250447,-41.7518635543122,211.349325772926,193.560454105442,-60.0721962198264,291.451979730013,57.9818460796131,-161.521913775123,-129.130851717448,102.522247669169,-41.4079388453754,180.388512432103,-156.6089696986,58.0314229626353,127.552434721636,152.990668994307,-24.8615732300633,-129.646458395032,172.940512070688,-10.3100746000957,-76.6393614857731,134.552768842976,124.322701638641,124.026178208826,116.643384471434,122.059092236199,96.8548464264924,132.285071638439,89.4783846327487,92.9405875166187,111.298623345902,109.963256647177,71.2878718645651,93.2279256391672,57.4866997494489,67.8912343787435,71.9769729782235,84.9377522493931,58.9432562707816,64.5864468955241
32.8004462042153,22.6846219217118,39.28555547643,25.3752748048649,19.6152541434208,9.44716893162848,0.331626776648186,5.96662982802731,-6.67226050662345,-12.6757564882472,-8.33454874877809,-19.7358676216983,-28.6686675710379,-32.7441606795462,-31.1584942328702,-46.6425089044712,-33.7318651886051,-36.9277895422377,-61.3975320379839,-18.2879095268629,-77.5671921802852,55.4540230548853,-30.1897069353075,-134.734808218932,137.390744338201,-165.832209927572,188.626925775842,10.8327177038203,-124.156353546235,146.991706971964,-84.2762000196661,-234.778386636476,-199.970831275265,68.059379422038,-177.321210661114,3.56979491126832,-241.890106615647,41.6482841886297,-3.14136463379913,65.8999784191304,-110.813016717622,-184.135113132855,56.6875848742704,-92.2495605963969,-132.469733380585,152.207303714995,103.615110295621,124.977612237982,108.81879563834,97.5660824979639,105.495479559191,112.215906910305,102.250699788313,90.5003435632385,100.265453123674,83.4305811676661,68.4708600668029,75.8556168287411,56.9059839766183,60.0277612280187,64.7196006000608,70.0679727370478,46.0986692347758,47.2590107280196
-1.888875677916,-12.1087923773433,8.86421213858248,-6.11909753906458,-12.2555588153226,-11.4046554442785,-24.7803446775667,-25.5957359615689,-33.2895838882816,-45.1693354044715,-49.3024194836733,-44.1621061700291,-61.744961604309,-68.6675880441471,-57.2371880256878,-82.3292641057627,-46.349669990139,-74.3682157151544,-117.140201038634,-49.1495948625748,-145.515178277566,51.2936433510354,-105.876963675229,-234.464935644242,69.8141524817351,-312.925793142695,197.819597704084,-156.593244797862,-223.558023486178,-8.6036183247423,-216.30804592967,-234.476258817685,-147.189742482894,51.0383244055889,-169.820556643681,-182.349782658575,-227.409941013893,28.459625465287,-51.8766685655368,4.6212992682769,-136.331732843822,-163.790257188811,-12.9249926211421,-133.472215447402,-131.358933159631,90.6502534279586,47.8646494863297,60.1093178904051,58.5293282089218,46.5884889161142,57.4810379944867,59.4279047570355,60.7667604283971,42.8337864567571,53.6484020680853,39.1488178513669,30.3146233641937,32.0093979371151,26.6715616471791,22.3313464573304,31.8985091346464,29.3055048558638,13.0054362524149,11.2365771294412
-5.50842351090639,-7.1717184412138,6.76417756166512,-1.75560729081764,-5.42368722137476,-0.331831687194142,-11.1441049230193,-17.6321307235965,-21.3727276232199,-36.2006177754898,-37.5652715268023,-23.4786001282202,-48.4626977916908,-56.4910855187724,-35.0626596482477,-62.6901166649391,-11.7998054678341,-51.1863529441189,-111.370195103302,-12.6441439497155,-139.337813977105,122.107282046042,-98.5514673862334,-251.712188741991,90.6189949487477,-354.958543468897,239.082538904758,-214.778496916443,-241.067448284491,-87.4183272245794,-283.17687022433,-143.308289700995,18.378603991957,55.8585256257059,-114.428337829243,-272.044042833576,-82.0733545527731,102.600550060815,-44.2899252369156,-13.0896052588488,-93.9605850503965,-12.5630591324213,-15.6439529425184,-68.1034151777272,-12.2813206668516,12.2435877450064,12.3675459567859,3.4026528488931,16.7918078934049,23.5516757438085,5.78934338847724,29.158043447603,12.674111350627,8.20143653517881,21.3384117096571,21.5581249288345,6.44510198527282,10.4508551281261,9.8373413311442,1.71735257339831,13.1608370034077,12.545144658358,1.28092259982466,2.58501747699202
16.946791441349,17.1352564749569,25.6124615022855,22.3416970923912,22.5189208909197,21.9326469132712,18.136304341048,14.259978926792,8.05215399290364,-4.70406119948051,1.97294660917267,16.0566300554949,-6.58641026509248,-20.302473535463,13.0977687010103,-15.9310191680626,38.7793726462101,0.720499241302882,-62.2591351166199,50.0715840423773,-81.2139984142328,199.671736069596,-43.0255002808728,-186.395241484063,122.088712055464,-288.268973278643,238.92180405167,-217.850185985781,-182.967156287261,-130.608511306968,-315.730129176689,-20.4645279332773,127.755864488862,52.739216671335,-135.797384994632,-285.124688636525,109.371572388227,199.350816056665,-59.7261314864186,-31.6236414342202,-26.6461972078394,173.674570599719,5.33258361584658,70.5692342731776,148.666446234431,-32.7912844026591,8.87368126247597,-13.4755329181967,8.04778275023855,28.4420046447128,-15.9830950870701,29.6049511088544,-5.93565809249208,5.4041266504027,20.1333715349812,29.4713500405869,5.45086276849656,18.2555709903735,13.0532511864057,5.05579921025007,12.3126836999428,20.818291335004,9.792259756434,18.1110727547652
37.0042447835209,30.3355760692057,35.9622814002845,38.625371302799,45.4897923872224,27.3678693152508,34.8833708326363,37.7146169996195,23.4429669418603,19.0443747745307,28.3532652923405,34.0191563946058,23.4566908033964,7.62255798332972,43.4644395165165,16.7682622442015,66.1393760030964,37.4169778938459,-13.7333832942975,82.6624368357032,-22.0456260109148,210.224525109197,3.33852602912426,-85.0216483287907,67.8264657018285,-155.07830333161,170.345143703024,-230.256984008918,-87.1476307049547,-193.903496702778,-336.686475137347,78.5338437233201,90.2272801917915,37.1088721529024,-208.29296322149,-308.963715984239,204.140259444691,192.794468219395,-97.388122093982,-83.1640959046513,2.62625991127088,262.420106789196,7.14712092723265,172.612380858105,247.194271473755,-26.4778386124391,26.1171743521548,-1.38778131098443,28.340938887702,41.2145299635403,-6.72423617862762,44.020091475049,5.83236120299082,18.1957376534968,35.0524366187494,46.8960363744726,9.42534951288076,37.6125440961802,19.0647202023074,16.7207422609561,20.6751559946323,36.8382613151682,18.4919838042168,34.083604332969
38.422586237655,36.1867826580688,28.4989310030035,41.5625492778517,59.9239767440309,16.0988323563596,35.859737548877,44.3033248459766,20.94745226287,28.198530696615,38.4369950458813,26.8089040402761,30.9998777398026,24.6544110670412,42.7183413114121,30.354573151526,61.243991206674,49.7761313956369,17.5374672253226,82.3972328523029,21.9183164642339,161.824773433444,32.4948502607884,10.5047728173379,-23.7226847475783,10.6623012311602,81.9406735044039,-197.963980907024,24.7659701250414,-228.835452447943,-302.416267627907,123.053210527101,-13.7999425942211,31.0766078081383,-214.789847411993,-334.940880437114,153.01576027704,27.0752798585843,-97.2953866591815,-132.096039711212,-27.0193019556692,231.767278577737,-25.6067040094484,173.130638675222,252.035325748331,16.849521673819,54.6484575006137,24.4100413041932,53.7067978561118,56.1472763402149,14.3199421444114,57.5414639622534,25.0725332279049,32.8619801441544,46.8312632664712,62.1997634669294,14.393625135692,51.4060807909273,19.286909166271,26.7772840385089,35.3354924422558,52.2245506413699,19.8764825368544,41.6046622400267
26.1157105593419,39.6854741369755,14.0838283669542,34.2531895808034,63.068579393923,2.05111602384917,26.046306083961,43.4214693651038,11.8320569842926,26.8672641962201,44.2879751374395,12.0271688808514,28.3273913320667,33.3751804152576,26.9680833193784,32.2529693656871,38.1785871982893,47.8955527274613,36.8308492567584,74.3670746083581,56.8712653547564,96.4098217398143,60.9628087033005,78.5793670175231,-34.1420673990421,165.798852363119,3.78472635463287,-46.4095996776228,133.080819313738,-145.040055568759,-145.862137794039,133.16350667476,-81.2429840266821,36.1043110259677,-91.0950343891096,-239.576843435058,73.093024077243,-224.961975695937,-30.4637782407605,-105.72880180898,-48.5600642919022,154.208138305906,-71.4882507193472,146.729739980427,197.774957425734,54.294639471844,79.1695561026909,45.2331149127434,63.2680095849461,70.38498582104,26.2001497532937,62.8685271400999,31.9303799510137,43.5533771573165,48.1104316691897,69.1729397695546,23.4071456248073,54.1280509850902,17.2630265589009,29.2464567580336,46.669460739647,58.5197695114852,18.2549503954564,41.6533795953972
19.6830256434467,32.4380138292027,11.1622967017004,24.4373515049738,51.6970023790919,3.12173712886122,18.4815620219075,42.7234840161866,10.5002226266271,21.4659099037448,44.6529451825718,8.69107631067439,26.3220436525269,31.5788536237725,22.8647023153958,33.4779573762487,24.3004581750035,50.8074180212769,55.9672200246552,73.2073771846373,89.2933760731763,37.137306954796,97.9187892590203,133.293989425732,35.2647399543097,287.658428148032,-85.1807151703531,170.782108466255,248.897394049732,52.4868710919165,147.500605848968,180.007463899488,-96.0041617639508,25.9261474965977,132.191448016005,13.5225540663419,92.7733404649258,-381.89869926819,72.75857905265,18.4860816126624,13.5795005511455,90.9380768498094,-94.0381385532638,206.464600390758,125.255105785581,41.1218439409591,69.1801289551153,33.8609677286755,52.5289865239659,64.7539298066668,20.2206270257855,61.2901243799613,23.9206725510742,37.9869987488917,41.7114182354614,64.943857334132,25.4580203932949,44.3856504987029,17.1752418200391,19.4518582593022,37.6707552355927,44.0802583430197,18.2626182050164,28.7614599630475
12.9854838769225,1.40054978992212,13.0131394581178,6.75571341330607,20.7707799802682,14.0608244935222,12.0425902903276,25.0280687341925,9.15855625452392,1.84537646387528,17.4475047558264,10.925229838772,12.7777959211904,6.06266254487158,28.3147942682906,31.9490406795368,22.1765462221022,55.9974393835579,62.6190695744759,63.0551068272359,108.223345384637,-22.389030013786,127.445757954271,181.852540323776,68.2491206969464,381.51262422285,-175.067585733404,334.042313858254,380.542543639901,244.980679275242,474.700988473183,280.087571282131,-82.4139961732423,-10.4635719782483,351.680387461283,278.389439082588,182.09763945759,-337.730859763113,152.176877077344,163.086966657917,127.311851158333,39.8290902224966,-94.7878153838785,325.591121866354,52.185670508792,-33.2921454074613,-2.40600344022518,-26.4364993602185,6.09568021967422,5.04055126931685,-12.9741668862844,41.0585619121358,-1.95108214065908,-3.60742780760148,15.7110038266579,28.4090427169361,-2.81999067185172,0.776317190704334,2.70679569315834,-12.4771106332592,-9.04168867498027,-9.52405178956487,2.69846063695592,-16.9939082205658
-18.201383437526,-53.3689165904298,-5.90042600168407,-29.1183686929286,-31.247535848583,5.88089509533859,-13.9505983341828,-23.6218824281335,-14.429557266359,-43.1696812135443,-42.281756054393,-6.47150561626552,-24.8830486313363,-48.1668487344283,13.9978627084819,8.21971649268191,3.83019643599356,36.8823017116438,34.2022647806244,21.8506887498598,93.7138666018195,-93.9387987111261,127.823873927335,195.919138285705,20.4723298967925,438.227108805351,-180.688912331654,415.5119371641,466.188393182515,328.938905036651,644.90176770992,348.569664360413,-36.9034515041285,-27.144115401785,454.405150604021,383.431130954528,225.433394278802,-194.242220961363,180.992890285364,206.146627368863,197.600090665975,-6.78662718481402,-102.697131421126,375.841917418541,6.46416497127829,-129.755219800626,-111.514450504214,-112.009551310467,-81.9927931099594,-101.703246919547,-74.3590012788398,-15.8015678697454,-46.6237843922717,-75.2778336933362,-42.9038617814829,-52.5180663459235,-62.6405192556142,-83.6903668236846,-41.5296200845266,-66.3114262742257,-83.4245542611435,-97.2325283919532,-44.0507995455785,-92.0155017006155
-51.0147851475992,-91.9659341800705,-32.776999463287,-55.2822474025719,-69.1370876641607,-18.3234472829084,-44.6133183988298,-61.6241299174348,-42.633532256815,-77.3603423938005,-80.8576954055293,-32.4265048561829,-54.9929585618048,-84.1157457998821,-12.3118720299479,-22.3425718448688,-26.0132720974033,4.0769081027818,1.96933763137989,-20.8774969769282,64.9299441063668,-130.55968555151,115.358635054648,179.239502363848,-23.3535639598328,448.061155104929,-43.9462178588541,449.388523505894,448.52027011763,312.533745025072,552.70838720873,322.984537226462,59.7034591515356,43.263666097506,404.236225708183,292.915445210574,195.564802388968,-75.570146199065,184.710895539498,100.552604365198,195.421663505163,0.811577914347712,-118.38927093551,328.82702184797,34.184596373067,-181.901649604598,-176.744735642661,-160.89145299902,-151.762682628071,-171.628161611772,-125.31438382154,-82.6436334766755,-84.7195702613781,-126.721168982764,-99.41107228554,-125.087411870948,-107.635745588127,-145.632283449805,-84.8004847039184,-104.949356097299,-128.190697726166,-153.119148913762,-85.0877854520075,-137.08616501926
-37.598610229397,-69.4269729890415,-26.6980008396776,-31.7560631837858,-44.856998703412,-21.2628349130733,-33.6618104546468,-35.5528703743431,-30.8877472469126,-50.6875987086772,-44.4061972695174,-25.0832425619908,-35.5410182673761,-48.9198754718429,-5.67745624193993,-13.3704020295144,-21.6303612764165,4.69292821790283,20.0541198502659,-9.16614281833604,67.9486833238589,-57.53658805296,119.780725997283,177.557785021641,2.74169428195613,421.685508934357,158.369713605952,407.518955094102,360.457530370768,258.341986941162,301.011070969955,242.586214579573,175.966981327313,180.53169075801,253.572053460411,115.446430291889,162.232247593767,35.4980213781954,174.668399368511,-76.6874467599157,165.7710651268,99.5714532432794,-126.519210795687,296.04941003701,128.152168450948,-159.916508577737,-143.907717579709,-137.59462452679,-133.926898774716,-138.082476821017,-121.946179393128,-99.8865786921721,-87.3973252941113,-114.534377713228,-98.8828793936364,-120.922050804636,-92.3494820960404,-117.492502635483,-82.1883917209925,-88.0070457831842,-97.182499652987,-115.613255687146,-70.4357811693204,-104.036974814872
15.0351656946801,-0.698222999442558,12.8954465824454,27.5062031720902,27.9769329159117,5.29908646246057,17.5840718762749,34.3389274161702,17.3409806510764,19.3875583764243,35.6837403401576,15.9671990485029,17.1215058969632,27.0113777296461,39.5593068876305,33.7114481356867,28.85077907705,43.5346863906697,68.5382783539567,53.6187449084124,97.0192413249298,97.0448524398804,133.746800754331,184.050136700693,73.1565297943535,359.876514903541,295.297062950066,279.609616845807,255.189913458735,235.951273004694,93.4082114471469,168.973232906645,229.156867430622,290.72530082244,119.382422845154,-1.52420947967274,170.611228966677,167.028696304389,153.61665844724,-191.106036239204,150.182964016054,233.294566279954,-118.645416224092,354.998120812277,206.111476306577,-94.7553001228839,-46.190752108935,-72.0109433372008,-46.7767354794866,-37.1223473623128,-69.4362863513388,-48.3826452237052,-56.8508359471405,-52.4874866721026,-39.00131944673,-44.0654548295348,-32.2660118914268,-27.0306234343526,-38.8085878248019,-27.7827036995557,-18.5268205255782,-16.5523551458286,-13.3308254743916,-23.9849846327202
48.6964134998214,49.8801045769564,35.7288632302476,61.4738474013344,77.4330484756955,19.9328376397002,45.8563710647369,71.3781144619411,40.4860737455233,54.5797321538544,73.728944692692,33.7595808199523,39.0086190446462,56.8994494401814,64.4098296799219,55.5879742847862,67.5202194019059,63.4790628805115,70.9125310564124,98.2934278917964,92.0484817418305,203.704684426236,127.908771824088,136.115980061654,144.133693303914,250.702235626345,324.303116710513,178.837914800688,134.33975395651,307.976385408194,26.6702773455216,112.170809449742,172.674530845919,329.593257533762,123.153838170236,-13.207072289631,180.224294336432,257.558521773812,170.433101992228,-175.106669609117,138.800478020628,304.322947589488,-89.7084380153133,408.606741910307,203.546466361853,-22.3380758883006,46.2039006622337,-8.35933109857719,36.4010589130343,51.6599292238808,-6.63290028428287,26.6569574176437,-16.754584223419,9.73377153013917,26.9433968628742,40.851673658742,19.1555463738587,43.8495801510456,-2.06625964180969,22.1608629643018,40.5441716146636,58.2926011504311,26.771868022301,35.2141547447989
37.4040124082588,49.355515465855,16.1406884857189,43.4925391505255,70.2368840993475,-3.70341547340051,21.1244090439267,49.6686666518905,9.49560802339567,24.4954673096334,45.9490282478243,1.38058594252137,9.37864504337826,19.6103002592967,30.1279215976945,24.5055625847817,47.3707447259124,35.3732623055622,19.3283528203088,86.6222564126981,44.4350966866683,198.460852711235,107.211297195571,44.9115962297461,195.040823325742,133.061018612801,297.955107692077,192.927681538557,11.3833073704767,442.38035209045,48.2208044015272,63.8466503318777,52.5225081132604,320.191040314685,257.92084864899,10.9415586406301,133.257822596439,270.208951738926,254.86818868969,-89.5088378307652,87.5003715373827,270.81667942664,-64.0289526300784,293.978322147718,153.511389906948,48.785499548001,96.9315809770028,43.2569175018255,78.9865114610136,92.730707283139,40.5926696142612,69.2012440412066,17.1447657038233,45.2790040893717,57.265515692176,82.5342400119444,39.1121974199232,66.0107675644605,6.93660872379486,36.2928727315502,56.2211904621494,76.8416231064839,28.3544063635984,51.2171402762503
20.4322534776621,32.1410603234347,-3.82480844514797,16.4640320152414,48.3738060189989,-28.0509584370465,-4.66989171954644,23.5932548921428,-21.3847076613475,-7.77519180540036,14.4299290279605,-27.0061658467255,-15.3110881581102,-12.8004863616533,-11.1499246048841,-1.80026158239891,10.9340536298474,11.0915556207351,-6.37620536566259,64.493019426518,24.430048438162,146.578002556875,110.721822585515,11.473777039339,212.892865899471,95.3320388553272,274.070706353329,256.814534701828,-40.1674738557834,513.748036968058,97.0848122056356,47.879476215626,-32.064157444187,291.98880069275,383.504089419787,32.2937892211637,47.5177844862453,251.402111337893,349.021855153543,-24.8446608345503,-15.2909023510018,177.239804445673,-73.6995919050896,20.0796389339821,123.012795161876,94.8471441584087,102.916250606229,78.2232746542458,85.6789847315658,93.1693289896225,65.7042534638497,65.3694979502759,42.1522622653392,61.7104930890252,58.2081464432792,77.5135449787026,47.3356303336733,65.2365404128342,15.8667924229808,39.3465649138977,54.9975838267915,71.3820690839614,26.8070429296208,50.358966086731
24.7584776680705,30.3690292347195,6.39249259306157,13.2023870483483,42.2170392654751,-17.2324288670168,4.2881666032423,27.0474843102908,-8.80442897030447,2.15041912220565,14.6366219079369,-10.7537643490535,2.36005777224767,0.859707127347478,-1.60765751851957,16.623725840485,16.0566671461203,31.3294729927597,23.6377550296357,71.9573670261824,57.1245444096076,111.028313559258,137.348866606471,61.7162345213279,194.340218184239,143.93389860497,229.6667569344,276.318185777669,10.6527351833769,446.728673440426,164.383581582994,78.8846227527289,-26.888426529282,238.133252080056,388.279931140937,79.5272191658742,-13.4143777905926,224.99817851183,364.187676775563,-4.47751838669103,-120.944950892655,90.8300569580552,-102.864649052013,-230.417145853439,88.1255231026268,70.5852826563975,65.0605783254923,68.0312332512979,56.6232520319637,60.186900529564,55.5983769913089,31.0737234822066,46.2649953712526,55.4690227995185,40.6068238838608,44.1675447002055,51.0265128407967,48.7225451702846,33.6746040327607,42.9903634356459,48.0262515806501,58.1624429340179,36.1692851948923,42.6696298553377
27.3267984582603,31.4774089159167,18.7313206123633,14.8359843538256,37.3408607860318,7.49984762947067,17.6437540510022,34.8097463126536,16.4496666296791,21.8880258837059,19.2886234884394,19.5060803566225,30.5626917688311,22.4788145693396,34.8178914252371,45.0550445599541,47.4830932922969,63.8672430488507,54.5914646985573,82.2530740377391,87.1475039707071,78.7697938163254,146.030727962247,110.538090425674,165.203970980697,183.032065861728,96.7171249475294,250.240224041698,84.5330257148326,280.308753252704,213.510226731344,105.0045758839,46.7045254227441,121.869341839412,259.098437832388,140.999525521031,-21.6889379021475,181.938565510041,267.802665787897,-34.2963220239276,-160.763197820075,41.0602059217735,-127.033883682959,-325.664715366866,-14.2869124990169,-9.81049087385644,6.47288688762652,13.4080122211716,3.51584484579527,9.44032253515904,9.49330075949374,-10.4518550056498,21.6582163376923,20.8488760965034,6.38302928727463,4.67697904541529,36.7662346942815,14.5503012381173,31.6114115009381,30.9082086282099,26.7306978174269,30.4306563451743,31.0989801891892,21.3703248567732
20.0470439104364,29.5391326732436,16.2865086044854,13.4845209725997,36.1737286113875,21.766247574064,20.7041333261782,36.6685122353623,27.3014429678588,31.2217836192887,24.7189697834253,38.4755614580423,43.6638811841886,34.0130918187546,55.8004120644085,57.5006789582727,64.5391777697091,74.5895806761408,64.5031207269284,72.0480945588989,90.5730800796511,34.9925249365666,133.997023955003,115.462159066648,159.890854418001,169.694161570237,-92.9179178400667,211.341312799797,98.472178706749,88.7142316135577,183.959911957296,59.2941494743493,157.871053473681,-52.3078301432218,19.8574787155593,161.627267130196,6.86027799266458,167.109447794002,90.9279382731899,-133.34593584644,-101.805078427684,34.633432823978,-158.735428791381,-284.872986117643,-134.990758322599,-72.2048063519003,-27.7014759827414,-33.1054169560923,-32.6306731803836,-20.6271661492889,-34.4494545034058,-32.8829123498143,-9.09012611494532,-10.5300316630814,-19.1605834608896,-13.616766094239,15.0131851346183,-3.74543640268243,10.5346803782506,13.1351561571123,7.71573020432524,9.93653979956058,15.6026462882814,10.3279880082041
21.2309360587853,39.831219134587,15.9338723015112,23.4445903603046,54.5184323743181,29.1656423788003,32.4382360367737,51.6108550532408,36.352550137192,49.0108670837226,55.2697533302904,49.632551347041,53.2005971993983,60.358556131485,56.2106074014651,64.9323350490607,52.2790728190207,66.9653748110923,81.9579676315579,50.1188675273657,96.2787663055228,-13.9446411055164,122.167221524961,115.772657162121,158.013974089625,149.548207567777,-217.736113217619,140.92975538928,68.2112945870045,-79.8949954050988,98.8448828067585,-37.2727583328684,288.39723153885,-203.958060511272,-258.036268517887,143.786928274931,37.5295907839557,218.281642973739,-117.047971165537,-249.264962368885,24.2614912518915,62.0066244606843,-167.04056135077,-197.519305550794,-141.141226928973,-88.8737606727823,-24.9243431241834,-43.2697216851816,-32.5642104780519,-10.8768801635609,-47.196083851221,-29.2070086787337,-26.6926467353243,-12.6725961116644,-15.870889115073,-1.11385187801698,5.40088950999151,15.4194033086934,-1.16271545993714,12.1640325956693,13.6151098454061,20.4299281832038,13.7667553677915,31.4300138983779
22.7427494241687,56.0868793510198,13.7191487427982,33.1119371519491,77.2623337908786,22.0216951820472,43.5248836002334,73.0722125608976,40.1209943582894,69.8732482915797,95.3038789150912,37.4426453204945,59.0082271068149,94.779586800349,32.1333080090519,63.3866004397829,2.32065289366636,42.8946273360223,104.672761019367,8.49091482557133,104.208817343775,-83.9451117518673,89.4495356197438,127.553728480705,89.2366171691795,127.509067344569,-249.490470842295,-6.09289072704749,60.8457219424254,-191.957303593368,49.7722978863633,-90.055361766995,384.797871746507,-268.956124789549,-404.691885020399,131.435437692687,31.9804517503634,258.737527803484,-297.74149017043,-259.107305514834,110.641209939127,63.3054264998653,-63.220225567895,-156.65747413485,7.67025859448277,-80.0368947823313,-4.92412424723011,-34.100002737956,-14.7072808433237,19.2925478185542,-40.7275979022069,-13.0627797671387,-38.7011721577526,-2.84653020707858,-1.03655361281246,24.1758965809935,0.334334641569658,42.8313593234778,-6.18775365190662,17.4641532186888,34.9112118109041,47.4548799328529,13.639129066446,59.5560039914624
1.49256260525829,53.7936869628299,-13.3252190543226,18.7408590078538,79.6893969084244,-15.5677070519321,27.0176477920662,72.6621942712918,17.7976894193622,65.7276017055757,105.655347351937,-9.80219670088021,42.3925918519982,102.005319720088,-23.5616652016586,36.478912622156,-80.0474181502287,-5.74471629403124,99.2152289150996,-64.5536163395122,78.0435227838056,-181.356418769048,2.1829304163531,112.779455381768,-67.644800209885,36.9865107509005,-277.970822619716,-224.626109575567,84.1006979749121,-257.162420043,40.8515078711528,-81.7056446721539,344.024667760541,-303.092894528091,-307.431460879269,87.4452891311785,-57.4163407042775,162.001132755183,-397.667404946407,-150.159772623879,13.6782691148495,-50.8029374940116,122.53887351759,-227.199525639728,170.1710939783,-40.8216784474145,25.4967684180036,-11.3873526049432,9.6518648070955,48.8556970176323,-27.5990511785997,6.61511203411775,-48.0102868768347,1.87991887703393,7.98166913561207,43.5561065048615,-8.70415556162338,52.0369004619652,-21.0814999089591,11.3817929732176,48.0943493619908,68.5671760301747,-3.5118715374358,65.8614842081852
-15.7087346669699,47.3364659087085,-38.6942881811844,6.55497419752051,80.9302479226401,-48.8991193030547,8.56603667082291,68.0333525451695,-6.26537021056241,54.9298672608005,102.577469646902,-44.4246915347944,24.261377844394,96.9731357352589,-67.3816398999961,13.3948986570855,-134.568988251166,-44.9799854631461,78.4708630917252,-118.000984139707,34.7412846275306,-240.110796258112,-88.1892539454116,73.9456805404924,-214.522771273223,-97.0294170518012,-323.292187632465,-396.917625379217,103.795710734325,-304.293099264816,4.60401914209423,-68.055824861121,122.622381086549,-387.824258704639,-92.9673980923044,-27.1680981749672,-227.366889611419,-69.6322712899592,-397.511079911498,-31.9051145401209,-227.248959188964,-260.989062670863,254.860841809615,-344.32832798052,183.355703438556,48.3581807730231,84.2098331625554,47.9148494318597,61.2318013881049,90.8902817233662,10.9075993928054,40.7608612082037,-28.9664224647953,25.4684333010557,34.316465548225,69.2964076924145,5.98238190629913,68.6674762718816,-19.8802899203131,18.6489420785002,61.8739801781358,93.6646690653482,-5.83318986079046,74.7487021050223
26.1320023591323,83.0659385390856,0.3311180733034,50.2169836501792,124.148095950971,-14.0423571246101,44.872633601796,111.492392040108,24.8340938474236,93.095518981405,144.719524210631,-3.63008140511187,61.8832848153779,136.926288708364,-28.4996969409188,57.8367955056884,-87.7370046094475,-2.67517128890688,107.632277041862,-71.2017065157546,60.9865800224958,-176.520288050722,-61.0268657866242,93.6144320161032,-209.02861986584,-102.050811424055,-283.425363300355,-351.914063656317,139.220651274745,-273.626935144139,-19.5135738836428,-16.751396877343,-138.428071738439,-487.906829809585,25.6116772913854,-73.6710816845192,-318.443154259265,-255.214662707069,-313.356812124533,102.641965748266,-303.508343251005,-385.541677894095,326.83795775702,-326.650735540292,87.4523116685356,160.150360585366,173.886256758022,142.470588692542,148.632046494611,162.540927119482,85.6758127532631,101.735074083021,36.8292719080831,92.9911339341035,100.866466871158,125.65658111352,67.2842829262117,122.979037945989,32.5517887871359,72.0667362965166,105.379412778774,140.8001497354,46.9165777990745,123.357507435202
108.585651084717,151.623386234018,91.2384891200698,131.33744953288,191.776209943484,75.5583050907806,122.805668638938,186.443738540357,106.02857282168,171.160241855806,223.038121192848,89.3002280137305,147.873563094865,215.058058810927,78.7008641759029,160.763326408589,34.6581248153734,116.68748495376,195.555558625328,60.7405135761696,171.596295560408,-11.5456225533504,92.7757877632807,193.851788595997,-37.1080327526345,75.3683468448043,-115.670054518652,-89.8044053174816,203.11624213572,-110.743055310389,48.9712000022562,108.726942986839,-236.390572179433,-536.84194688406,-2.88570532730619,81.5653497457214,-179.860423060578,-228.929475792657,-219.355108645695,343.784214136596,-48.441423157806,-288.93560567866,409.343412226625,-129.373493636675,54.1783282156662,216.978622875913,236.917512941271,207.230966601458,214.971540600843,221.902084777495,150.268188179326,158.406784965144,109.827738686667,164.722716204923,163.668798122969,185.052241200164,135.012148127433,179.009222037503,105.184459002894,138.746484535215,160.757636631489,184.805904016608,122.682588462589,184.483930670686
162.031387719432,196.880018575948,156.001264626455,182.148826798077,226.24333925032,144.157748389212,178.368676270056,225.795658303893,173.052763543653,221.827892946989,265.560537974357,154.118675340177,209.568956110747,262.420874253095,163.361464648804,235.161188459145,132.677080446867,214.008826610886,266.053853456933,176.463957072984,259.346094287138,156.834541316855,229.733209576152,266.514055954029,172.276062496821,233.305488150116,104.220701734562,183.566727255884,230.323703953684,87.895626929129,149.35971530213,194.814767820307,-149.553300098138,-514.198871136637,-64.3101212380459,310.276812793429,61.1951680248023,-24.9332628290313,-199.982544486964,598.653272307887,302.841792882329,-45.411468254051,478.43719646113,95.6395411015847,126.106623411019,208.348639419605,229.404792964237,209.530288238647,217.792115902073,223.270592465083,172.502859805113,172.710058838941,150.584271859561,193.701233469489,177.304596409462,199.462548909641,166.880644218947,191.455358483303,150.057113863359,170.994371159039,187.04715217748,195.777649478859,167.36915764979,211.134912147157
174.477680771853,206.119798683227,170.295159332918,190.370977015357,224.485570430252,165.229478624448,194.585807123065,223.646316153029,193.411121882591,227.306026178686,255.095946664137,167.544015817898,221.145594037388,257.966956098144,186.92820927921,243.094912798369,170.368969051877,236.581780622793,273.792009056899,228.869884523558,260.054325030039,280.381304371038,267.896128637472,245.876773214858,328.255210701582,231.791463225563,318.7540141805,345.988248311532,191.122184308968,205.025509982361,180.93634479355,140.609192148679,-5.82332500154075,-385.674772729878,-26.9610733939568,412.527935651574,171.602545529516,206.666718745872,-220.803345977619,675.221241148504,480.274716563402,185.63251359537,506.22073877719,241.612752498507,195.037669951352,233.111387454998,200.597826892027,219.334197771195,208.238140491676,198.673661407364,203.798587015302,168.162824435792,190.924611958753,211.525649499824,178.947039244397,184.378116865001,188.282259968733,185.786782972707,179.898773630517,186.389543250367,194.74207531358,194.302236893623,188.34817385302,212.930978990487
178.277994969801,203.039883006356,166.413008943325,185.992106914479,218.830306354208,163.865592281645,193.410405818581,217.04614235103,184.764250112996,220.538683401025,234.931186616931,164.083748595286,215.203911171497,239.916434161621,187.808172223598,228.334261828608,187.252557254572,232.638485171639,258.899283772671,256.588846342578,241.814188017345,368.864495639139,284.558090184152,214.5428871241,450.256029548713,210.83123982942,521.52292162682,467.501750493617,150.611028385716,241.928845058417,159.582432192009,18.6141987811308,148.23766093275,-155.901210410218,120.149006875278,385.384602007702,163.669702754115,394.176978873645,-171.084964243106,582.517158831617,493.485540273234,337.831281970655,528.579787033898,327.32685551496,235.665295255663,328.094832061296,196.983057693927,278.227627895742,226.07252972099,186.134278595183,277.428142059159,174.949076228885,258.978483700886,255.64879148858,203.412950005023,176.114662696415,227.396128133137,195.011034387009,213.834993725113,210.270173084382,206.794226983533,199.655514778225,209.640797539746,214.074575608685
175.24266313592,188.57035016973,157.288815659946,173.635667343895,205.817724574808,154.051343869455,181.095417303903,203.498370031531,170.872171531866,208.942491404863,217.988581628288,162.478243041253,208.371319673255,226.982656048494,196.148719011059,225.303412871301,204.211785642188,246.675045862877,261.416303910202,287.989800672094,266.879792535563,423.524029321769,340.619455340679,245.293315259533,543.975365015067,305.820054063984,683.060875022473,570.785916156006,131.27013361611,252.196104211001,119.357646097917,-67.2746579400201,347.210118709783,86.7852478291824,238.387245363495,326.562426093087,200.760141488583,548.570137122612,-47.2971403688328,493.860805684599,467.640698224977,436.011664588156,543.994264216076,374.697326842321,326.960212629618,394.665262159986,181.229038212604,315.569733446484,222.596155670187,158.588243168628,331.217217086935,163.972003072476,310.105062573062,288.271861676984,205.686821372282,156.426704603354,252.277384956671,188.095184245088,226.323057573681,216.548226616476,198.552278981231,182.95185205708,215.786672294253,198.925994629994
134.733050640711,137.848813116441,121.385747964055,128.310538832271,151.126415974597,121.239368865262,140.436419671467,149.467472728204,142.34417459234,162.00416128655,168.455932940717,141.800351536158,176.215331194343,187.65501702226,185.582742785975,204.47760822931,192.105159046507,239.526315408673,244.113327590086,283.856383733368,273.913130049825,417.501870626226,358.639983715633,265.024984946961,539.048660754208,392.289789493269,753.23596756908,543.880058165865,56.687380489426,277.757537481,27.1609510446882,-109.16276345697,509.56571923287,286.183727655884,204.399969126326,257.910054466193,290.55747415891,639.930231567222,50.3348019111874,475.117821025847,431.173021349231,488.331771763544,509.493785990137,369.97743476354,434.060383547567,356.463904413025,116.176811598702,264.818887640097,154.212911202641,85.7491710361663,296.883921871773,98.2578181965585,285.713506371201,253.528449187486,137.24136051495,88.2349104130247,214.431710027735,121.010753203366,187.978703478255,170.928587434275,136.592740392097,113.117450050752,175.568674039201,138.179750663554
51.922352867113,46.6954570106745,49.9455673310749,43.898567498268,52.1795602110842,56.4223318567589,64.1488149663905,57.3608866552054,78.9482276253275,73.7168399759476,76.4680006976247,85.3997804651378,103.393351976133,103.580281182603,128.708525227154,135.544062079263,138.152640902112,168.117063734692,165.522232218667,212.75518194802,197.759005540696,341.12657860174,270.859488434591,199.209851370244,417.177597120606,331.67278004725,727.67977331393,375.824424394732,-53.5013154722621,341.163405954557,-66.6449414028446,-82.2574918232032,507.936078907472,458.00649925453,115.67195830621,186.129192123236,333.088756270355,609.899767044807,109.721882920406,461.574845655979,378.780198046471,478.593290442401,432.4535494866,328.108083798061,454.549695030076,245.64040485136,33.0863075669667,154.425619453831,54.3699098194712,-5.7298183254608,187.388616610443,-3.43367728983479,183.913943295503,153.649613804415,22.9600483338501,-15.3444843535471,115.708714384672,11.3083520360946,104.254339142418,81.5519255738807,34.868618498787,9.48728812818292,86.8631069827247,40.4332545708228
-26.0703641517339,-43.144879379791,-20.4906473020125,-35.8989900335405,-38.6271722400736,-5.14259229039526,-10.7309104118134,-22.3550282963023,11.4959521853964,-6.1910288910882,-8.6560111019704,29.4030612365193,31.0272603642501,22.2876682683723,67.6434734575291,63.6026489376004,95.943944266289,88.4383864820168,78.7242515067255,134.236306208898,107.021201967749,249.237913325605,160.157732049511,123.489361445081,283.182040131354,229.118263096734,656.841150515843,238.983221537784,-22.3816256925077,409.355511008532,-3.21983894104582,96.1657788047409,401.478032803643,595.94315824128,177.581935494147,187.662987876977,336.777794724157,464.648925055022,215.485209986853,422.613928899879,360.889875576356,427.454456458401,354.935830285068,299.761579410839,403.523198514058,111.944016856895,-37.2522536559186,40.1371228508218,-32.4968865838637,-81.372347080487,62.0887198136077,-97.4505483408617,57.194796138732,38.0816291713479,-80.0144196441419,-106.837332054262,8.80283081003144,-85.5154796897472,14.5080986697767,-11.3766055126941,-60.4814558978789,-81.5143859580845,-8.31740115118114,-49.5032604180439
-64.7767479728094,-94.851280987901,-56.1956482559501,-74.2835555123878,-85.7995158562614,-26.4699799698012,-45.8598561544664,-63.8353882298452,-14.6628385675151,-40.7010086725975,-53.3142479172782,16.781657594342,2.91134095151007,-15.5307854146054,56.8125857530252,43.0564236567248,105.494696090605,69.0597162312353,47.1128824196496,112.29402517889,84.2464474504949,198.688421191447,122.063419482706,117.974609629095,211.885866687694,220.829592356148,563.321713550964,237.232876895967,178.578462297006,411.065529097479,214.956236830257,365.106726894319,337.241031513859,639.311601327771,363.74683868966,287.278603804341,360.618320772657,271.37128230055,344.109454720541,357.703686984585,379.177387911357,359.828806277006,272.181185856345,287.938816533314,326.139015643449,-36.0870791590378,-118.684040583717,-73.9816688479598,-118.02244385147,-155.581426450234,-47.1709431779102,-174.639201323743,-43.3569785390424,-56.9572275887156,-156.439415245945,-172.806324422493,-66.8326371775082,-152.356439091374,-46.0941217612581,-80.9077612041741,-126.985555118675,-146.929658445405,-66.5692862532649,-109.618753707438
-89.0001746696087,-119.045560995483,-75.0470628069644,-93.3761989298708,-114.256665647543,-33.0306892211492,-61.8836977606628,-95.1221154289971,-19.6995762861004,-54.1749782014559,-80.6435990379274,22.0580114839333,-3.7317249789898,-38.227143520412,66.2227345584687,41.3414866985316,115.311890844702,68.9687357818666,37.8431460806165,106.057290880326,85.9317569535673,156.343727831014,112.535709374807,129.836578601994,141.122174354387,248.788438090335,400.85465515483,266.45000107366,326.899324252625,314.028123046551,366.735758476863,494.117540995541,304.507949860054,544.316007667871,422.89216806918,374.019040678794,357.630333304788,101.011286306392,356.533695757281,231.867861602813,338.336451403565,257.774232399952,156.527174413123,233.23322321144,198.668562064394,-173.111113393166,-206.912650101316,-186.898899446158,-207.04827680483,-233.057749509381,-133.837462424723,-236.379667894911,-107.023771924237,-125.275408584774,-214.741469105081,-224.78526754632,-116.468696930188,-200.562456107196,-81.7562474462283,-125.616099076238,-172.401584792449,-197.248442399021,-89.5800956526202,-152.232462567453
-120.799833259,-132.420102339043,-102.806644483602,-117.400858765988,-142.01267401112,-64.7000251086807,-91.3147587280993,-126.646284421782,-46.0773210126447,-74.5254799273843,-105.935061072251,-2.25592945853912,-28.3438448828623,-70.587239485567,34.2880876171429,4.61595579046004,65.2462777164676,22.5146696566833,1.7439857444861,47.3112473152771,45.6071775178084,50.8053412127637,52.9881526896927,100.790067781544,-10.093757872302,217.939852212888,129.43190986006,185.868413071579,294.098674842296,130.257567855309,320.832725421777,385.959564271991,199.659813962587,344.082939509869,242.877501533825,342.788562174886,244.289189897704,-12.7102462043408,217.402772266982,46.9623357891468,193.883060841327,106.114303400059,28.2962967918753,106.147247912955,35.8461912759232,-231.25104926774,-224.212866153418,-239.897872102038,-238.697600280097,-254.670916962387,-172.209610081495,-249.415854848734,-136.733290259616,-154.535450091342,-229.946982959108,-239.845465906442,-142.518881418118,-210.000770626954,-104.340591555145,-139.995205581494,-187.756863003984,-211.942805274644,-96.1563045445163,-170.897004208246
-135.905262037018,-127.158277264903,-127.710228396229,-127.46726765458,-146.079227928265,-104.369174217106,-117.45830282938,-132.357639850912,-81.71282888531,-90.325967973882,-110.45402507732,-46.3064247054101,-61.8174847369185,-90.6422350516118,-32.6515553930637,-51.5868705779742,-25.9295332969476,-51.8360350258817,-45.9282173093808,-54.9129885297284,-21.0117109182981,-121.847307706483,-49.1637601441676,50.1909544865272,-230.035898598785,136.959918094516,-229.421115759202,-22.4436387209617,182.271714786972,-124.686255263753,158.276591858488,184.621548711516,31.0818509242896,119.029836428597,-32.7563202785655,185.609785264479,43.9636767771998,-84.5965529812794,38.2608050376104,-134.256915696601,11.3882317695822,-65.9408116185689,-79.1864547747633,-61.4195741377748,-85.6267939617117,-182.824364098984,-139.904640200755,-189.618453160537,-176.464805290738,-184.761265236164,-136.673804655926,-191.821549031991,-121.411830132858,-125.508715616573,-179.362078353656,-190.229255269484,-122.248344673006,-159.153985082868,-99.047431365563,-110.61867882874,-150.180124365662,-166.2635449829,-80.7813972178051,-143.143985472041
-120.22474676993,-104.878249040598,-131.165592540233,-112.827696801611,-122.745957106736,-117.021734389491,-117.597711293229,-116.320958466956,-94.4211833193056,-91.327286301665,-97.1447080019478,-75.5775839323819,-82.7594336469215,-92.2709780850801,-92.6164427616395,-93.2574818644821,-109.401777125099,-114.418999626376,-85.0027884570635,-155.073785439175,-88.6377717172858,-298.7701143614,-159.553574148381,-19.064627534546,-443.022452172947,7.21558041240153,-597.194327295367,-280.102994689404,63.3945252778935,-393.365476009685,-36.5319732976766,25.7641949903464,-106.725584062481,-70.2043945984055,-255.188584247999,-75.283405474216,-142.643185931235,-151.901894934439,-100.418849061924,-291.275204134687,-156.424245445929,-218.910861597196,-180.90588973522,-230.745502158647,-169.865833925373,-90.6556621808513,-42.9750504773987,-88.8892463184365,-85.7403671951216,-88.0561535968118,-54.1643290647523,-107.900814941347,-69.2549247367196,-58.343010102073,-102.013864777101,-108.980711018723,-61.8740664515875,-84.4172781399684,-61.475358386293,-52.0784849327961,-80.4592906303236,-93.4837931393263,-41.1575241250904,-86.6426156872598
-95.5244998711692,-81.7445179922564,-111.188531962908,-92.5561808126574,-101.836883939527,-101.052310869974,-101.247997921326,-105.116845399255,-83.8577559293142,-86.8051888038967,-92.5701590327396,-80.5210275236849,-90.2189824796165,-94.9123077360733,-126.587260911994,-119.051800495038,-159.037133213796,-159.661090189346,-123.713639850094,-224.211464629468,-160.887777495438,-405.448554552111,-260.449538994416,-128.968194258762,-552.475213892637,-207.46769324401,-825.87883471928,-494.97671850709,-121.506720478722,-539.626364381686,-275.124080962766,-99.5978711092949,-171.84446844012,-194.817111420237,-423.67650198547,-388.312763726989,-249.081073799647,-221.223527173018,-214.750868874201,-465.23303886127,-329.240995261145,-333.428848534384,-308.784798624624,-374.325104962854,-306.610227024971,-28.3633565558717,-22.7493609780202,-20.298937475633,-46.9004303445226,-48.2043347180383,14.2645422520004,-58.5686727906664,-25.7291591442319,-8.28990409304038,-51.9059294886729,-57.347873007961,-7.93293278686275,-37.2574071139815,-18.8900881529536,-4.33644878238178,-28.5095320745481,-47.1145157351051,-1.29608190156842,-42.9819860906044
-69.1575820122217,-56.1617452149623,-67.6497597836753,-70.9849285909094,-89.2728176503526,-65.5787339335542,-74.7146289216353,-91.7604360502163,-60.6919933561861,-73.1725374583908,-90.7469373225782,-62.4781911779443,-78.2695004910848,-90.5251354956651,-124.394622728025,-123.919270978299,-159.699030404723,-175.031848706799,-153.231748998676,-238.015748272969,-213.209505022231,-394.114782296747,-314.666632723217,-242.065474005784,-496.344175684325,-454.165965701113,-778.807158585544,-609.47485028801,-393.617869382344,-495.060693441669,-540.429359856069,-216.064503951427,-189.730407943714,-239.26161197957,-563.764113197496,-636.476823976111,-286.925792102516,-249.16748278191,-312.569017727095,-649.768373049582,-516.034434366188,-393.22348853627,-459.029008991279,-478.195555628225,-481.553569012863,-2.25358402680811,-59.3761240529365,1.14268233994226,-53.430875964692,-62.9038410188252,39.2480081164417,-47.8770757229396,-24.6506558018283,-4.32510234778259,-29.7475540151295,-47.5857075655054,13.1521433568068,-15.2755057449062,10.6896497122826,17.5542885712769,-0.991116122386314,-26.0984915855161,24.4764223141697,-15.5180068245789
-43.6006024991618,-33.7283189827968,-23.5957948139912,-50.3649583670755,-78.4077480747467,-29.4924496541063,-46.7513681814799,-76.6099723606908,-39.363204933834,-52.3996896509065,-82.245824853885,-37.9343171063666,-54.940970994767,-74.3499237148623,-95.7496642975894,-107.512219889176,-122.514030774217,-156.237741188187,-163.210800935315,-202.878976728024,-222.719402735981,-289.701890436141,-307.999164274305,-303.631457184567,-351.021928439659,-610.618964108085,-520.596778549379,-623.635693430781,-645.417643139887,-419.694486110084,-727.64377651906,-284.508846580891,-231.152303046973,-216.536606112188,-625.972333838416,-712.20598451125,-324.162679485296,-250.045903687452,-358.707809429594,-752.390007126973,-651.930058197763,-413.165041838814,-576.077567778914,-557.682241486987,-586.432897444575,1.289852434276,-94.4265929900936,-3.89494310062962,-61.8006542031817,-82.8469539580634,21.4356725747322,-50.7134589279275,-61.7586552749076,-44.5058248991282,-18.4838773212441,-52.8202110104661,-0.622859284267703,-0.283649024623583,19.9774850957016,18.4167476833379,17.5669604987497,-11.017866220885,31.8848466370231,5.55196980736488
-69.9196102373386,-66.7216981778955,-43.624721689615,-79.4856618927619,-114.946975373559,-48.8293391960584,-71.4660346715333,-118.341679550587,-66.6664288264709,-80.4752165478318,-124.752203128464,-61.9495995584313,-82.3180032508899,-108.823603527137,-104.111506452911,-128.821405091492,-113.465760311026,-165.589370918867,-204.165478466104,-192.743046638752,-247.758308725099,-202.200578897507,-312.744941576934,-350.62116672653,-302.512038962565,-655.496449203398,-301.341447606131,-604.73564097829,-738.614595022998,-538.6302632216,-771.029374738603,-305.646131242179,-385.94376254493,-181.857662537495,-586.203497730788,-635.091127407381,-406.464429482613,-369.695766236332,-358.568850728686,-718.552578540882,-664.390051520475,-475.106776818011,-583.80004710955,-607.107771925517,-657.021547459987,-42.9301600716406,-139.830506900104,-53.1300983882804,-91.6433422099782,-118.34143688023,-58.6057775517628,-82.0132273140732,-129.619650812866,-141.309856039909,-43.3387609748833,-82.3045155685717,-69.8227719992922,-28.7268961854007,-24.9219254092248,-28.2069067834413,-10.4214147783315,-41.8664634831098,-15.3116635141045,-22.3389699669067
-188.127610173866,-194.891566151385,-158.571353150637,-200.672011591345,-248.078151624663,-158.674187406279,-193.123736360641,-256.980419620029,-181.631904041846,-209.582489257569,-273.123405561852,-175.707138761934,-211.695557572385,-252.462610735392,-205.957388570938,-253.524309400787,-191.515371560522,-272.71576681428,-339.119306577225,-276.993912296114,-366.340529291654,-228.771438547589,-411.993523278516,-470.002389227779,-432.584096653379,-699.618756498344,-272.435916614017,-648.489610616546,-689.802892592928,-815.34237735346,-763.774566577355,-393.555136708012,-625.268028613359,-187.502772387256,-537.127188545696,-569.092863615938,-503.333248417126,-663.213416232738,-371.255023878097,-632.612714069408,-586.086520057397,-610.507239851725,-489.411068560199,-589.060107611409,-808.972327271145,-149.470116403464,-238.144159059203,-167.664600502837,-188.432348498632,-218.811030211615,-204.113848374252,-169.706505663872,-223.292073683269,-289.638558952904,-133.342049997039,-174.883788599068,-198.017664738086,-142.75985336329,-142.862037222608,-148.824212988865,-130.758668909065,-166.205850972588,-146.807656921584,-146.419315170777
-333.008394490665,-359.26365537713,-295.710712591521,-354.849593651516,-418.127120201995,-292.575282076097,-350.328542582392,-423.508491756582,-330.547168943413,-380.75326311144,-456.947023694978,-319.721617698667,-382.047697932631,-438.93944570786,-351.274096454974,-432.49491684418,-311.790342152583,-433.860034952029,-524.38116801445,-414.930119661064,-545.588478730133,-337.130110735693,-580.681077028423,-655.753043302743,-613.594093020185,-827.819323702401,-349.948231832768,-779.939323616933,-691.125926848541,-974.490871519288,-841.103407224428,-628.923868050385,-757.263253873249,-225.260446894535,-569.931865462266,-639.650659400294,-573.678956758036,-900.258668352073,-403.420730106524,-596.843893712154,-535.062252012265,-705.937723299148,-418.649863077991,-552.567849039324,-967.198739173031,-278.110411156058,-365.525319426555,-306.703719238064,-323.715077422839,-358.718537689226,-343.699756798348,-286.635942216701,-309.216537430579,-414.44624751138,-257.291062998682,-311.622062356332,-320.137356101164,-297.494622999348,-274.482256797467,-295.803136304804,-294.762736533284,-333.725599493829,-306.286853598629,-317.308998005019
-397.706510320777,-446.763476850257,-354.140792966486,-428.340298626566,-498.88609299478,-345.437244213999,-425.277339650406,-499.910364768183,-404.079249129926,-470.258643755995,-540.804133292817,-380.865015197928,-468.224016340223,-533.062762915664,-425.400681243951,-531.630142061995,-369.000062113728,-526.070121938181,-634.580398361072,-495.386086066817,-667.112753241706,-412.01087689283,-708.995726507393,-800.266410592673,-672.283448328164,-983.288042278681,-402.088732601252,-904.50883157457,-835.5765448086,-877.427697074412,-948.442338987933,-882.694291232008,-677.155801913923,-249.307144438891,-625.789625518447,-740.669584973469,-609.982756983704,-851.459205854332,-377.153013506003,-562.394694347902,-552.084416674471,-658.905524744799,-452.65153349072,-601.680266837888,-963.745740539996,-382.888350175796,-450.263352925464,-406.250410410932,-421.464778672235,-443.926865194508,-408.166107534509,-374.827463413143,-351.813929026469,-446.631631670779,-353.44900208896,-412.360939908583,-369.147005924328,-398.135868825747,-341.623619455535,-383.02912581446,-397.075458058699,-435.036092835673,-395.72054787379,-422.733761828414
-358.692845006107,-416.07021384156,-319.532617901751,-390.014458320116,-448.023777333032,-301.983437442302,-383.788327358093,-448.673303230384,-371.015608471678,-438.089856408494,-484.89405610149,-336.297061013643,-430.095459428642,-493.743311887509,-389.504884275743,-497.194161844505,-332.75059424106,-497.164188277895,-610.687011753857,-471.36501706963,-666.276578294251,-404.708779662091,-721.863185854675,-821.267280730117,-579.942521722946,-1032.16205860291,-408.498464161055,-899.927553074451,-946.427569154469,-665.129856441004,-881.359411313749,-938.653914232262,-534.345241060025,-246.384435697719,-578.302899062647,-673.339437358998,-580.291381621288,-624.338722305745,-253.322067181103,-416.908253696122,-533.250355250684,-514.790686268124,-490.560736225792,-679.968361782572,-797.271817945296,-446.098958689906,-449.925587105452,-441.097966097243,-442.590218667934,-422.839613870308,-412.176217844393,-401.316712006274,-355.036108871804,-408.163982784247,-387.797430931701,-420.963481011897,-355.121731038026,-402.149857073813,-336.886687935979,-381.933569530609,-397.117359120418,-424.644304544384,-392.180683039329,-414.27170704399
-265.18431611229,-318.691065747587,-246.030631954509,-296.08324824241,-325.23656966753,-227.782713495522,-288.561839224656,-326.325641529079,-290.108274526044,-341.800022998405,-356.740110053518,-256.867337643818,-332.457089026128,-385.110488740491,-301.063071123216,-391.603483554307,-254.54392845957,-393.750418275308,-495.388142036155,-381.398785418047,-565.287545026002,-352.548095740935,-620.931023124194,-713.868836229089,-429.647289515713,-894.521541416157,-390.059063944844,-734.44063735119,-814.037455969235,-493.584499461975,-578.779859352666,-753.203946013847,-494.35037129048,-232.299747569086,-414.902053364693,-429.599608535314,-446.048563774992,-472.097440501559,-103.847329121003,-184.160762620658,-381.119976129335,-364.79766843504,-378.132590036475,-608.195664179614,-591.666573496955,-448.864483618809,-363.975174491077,-407.820975900309,-384.672579745509,-313.093123611327,-386.920749107126,-353.093287409214,-329.683755643927,-347.726485688468,-349.980581844503,-338.217314250782,-317.04886170066,-328.896798718338,-295.418711648716,-324.352025422751,-329.556214464377,-335.983397924287,-344.981547763413,-331.705869951821
-158.379972512451,-208.221273156783,-168.883193061349,-185.235463120795,-186.694303283884,-164.619909115242,-194.639588564123,-193.120892791828,-206.940235511193,-231.599617010023,-217.986848936081,-188.875904174133,-232.329768592526,-261.6409591535,-214.361370338884,-275.53448916478,-174.870666101487,-270.219498584814,-344.694658094341,-268.592773092477,-403.085626381164,-286.064689927645,-444.050705317087,-509.07338655218,-298.881234250705,-598.146904436923,-349.015851036882,-466.069798091867,-469.112561093936,-364.333412570693,-199.573480422932,-457.901720053311,-507.04572790329,-201.422943195464,-231.006829099352,-169.950625678055,-252.813051059665,-445.784297766236,-11.2016194047226,9.74235030874945,-146.429028170387,-258.332310572077,-118.462050895456,-368.783331128622,-421.937990186523,-356.901469134538,-206.009787325152,-296.48160085255,-249.679368160373,-149.133517427292,-310.003486746597,-226.683646580804,-263.599742257228,-260.255361061892,-239.219012060557,-192.885045078611,-252.907011089137,-207.215065174423,-230.436169385287,-238.543494587668,-227.138326346836,-208.239319020767,-280.825562820688,-221.820937943464
-52.4068041993315,-92.0860785835398,-88.4885015344561,-60.7705464695893,-46.1816660778269,-103.549383182581,-105.081513675524,-66.4812288143097,-125.333420017205,-118.603710867017,-79.9484199312804,-127.285660753412,-134.201552063708,-135.58747502365,-137.836493202904,-160.617907979282,-107.79458825664,-151.936518134897,-190.579079361067,-159.071081458522,-218.637427766948,-215.770592782296,-246.541320045989,-265.33915173847,-207.591527157094,-253.323858281894,-324.344417065359,-183.240334355774,-113.455450911498,-257.656319627365,91.0700931711622,-200.233830502667,-450.413614570853,-148.456462578949,-106.120104774555,-25.6311931287784,-97.7323526807708,-424.109678253825,15.2821750813101,95.4679743671495,37.2026064398417,-246.270520588197,122.751018630649,-148.917094996607,-283.729796815013,-150.552248924852,-7.67907631022716,-108.683272271578,-58.0029519276946,31.14145097788,-152.254094450351,-49.3004079165023,-146.80709855049,-120.506699567648,-79.2384540398201,-25.3379737732477,-141.423445248741,-57.9464071126991,-136.018241085639,-127.53470596291,-98.3577631146308,-61.4004815489035,-185.168568900294,-95.7766823492729
53.8787309921543,32.8301010341964,-0.386539829091316,64.1801956343163,90.204610379247,-30.7217282946353,-9.73863039095545,55.1865948851338,-44.7207458618414,-11.6058857717263,56.2553052874966,-64.6717098779357,-36.5130705195095,-15.3429562528283,-69.4757498399931,-54.6711740980033,-67.6323172653535,-55.6828301873222,-57.3608637012231,-79.7355667624253,-65.4617591232521,-169.750815959807,-89.3348492218376,-58.478353648686,-159.180754813412,18.6596033432071,-372.070999995892,31.0903974739302,110.801535902486,-227.317771716578,232.483219291195,-71.9040498046967,-303.307364639465,-128.510509622821,-70.1577752283133,-50.0008110314883,-13.7162955171932,-303.454872782897,-19.5672701895438,70.6237198275385,88.6613203257139,-317.291541691316,199.324694581287,-80.0167817553743,-130.023393610346,130.358852653261,171.833498743088,118.605908214745,137.342287534922,183.065305511984,61.1934276949327,125.291017028044,12.6588541150508,60.3845959083624,88.2598917303174,126.251203534556,9.38864761651475,95.0212440363209,-16.3277394359229,6.99917333002439,44.5009050820992,84.9797469580525,-56.3115902299551,45.270930541902
170.816540633941,157.443258359012,102.887170262802,179.569697666163,221.706862518686,57.9414609326417,96.1956458793469,176.773876582906,41.7977705045522,91.1330717857672,188.489879862645,5.11645036284958,58.5792933211756,99.5537113892663,-6.4073384404436,38.0350446746591,-45.143181634806,21.6379216692065,58.1548657841622,-28.8368166358071,39.5133879839542,-156.239918193784,9.86073551593544,85.972654364691,-137.878556255305,167.62310243877,-478.539231397085,128.331940983446,197.439800187552,-319.11791029217,196.201228543737,-72.2054033691557,-59.7711641630947,-232.556543747849,-138.035425728753,-221.426801219713,42.355060146585,-19.3638775758256,-140.384115177697,-48.8314387732471,11.5970736182381,-279.15869075247,141.693515890318,-63.4292761939711,127.174232019895,376.012658586186,295.177932543053,318.598022146573,289.532223210624,293.139578762116,262.047127027091,264.98538202689,184.5932642719,237.540477693254,236.987872516187,256.0456074144,160.360092464868,234.333072909092,109.029413821617,147.633511180269,185.124963577135,219.844673144675,80.2586069975356,190.72961565181
299.120633255861,278.153251917231,231.446204773107,298.009931933324,358.675260666775,167.446455238028,222.137584667605,308.43720481096,153.645613337301,214.115637173613,327.205972794187,99.0122794922515,166.955888275729,229.061180562599,71.9065659669624,139.528050173937,0.657013418505505,112.029503992647,188.994927438752,34.5536388549778,139.888403019951,-127.585451299681,86.9113612966451,201.218893816303,-93.5951057585946,210.972422315168,-557.544752375672,91.7113154711564,165.351058315659,-486.185570119795,-54.0075122476902,-126.631112476057,318.364344937167,-451.162726986326,-322.635976323516,-437.292465198243,101.112531324655,436.338828303348,-337.997245946143,-217.615945521488,-162.63049886856,51.3337381018589,85.1321704213617,84.5451903426127,540.081310578855,486.341975911034,384.461421272137,436.105043897259,396.085706377047,389.861502549965,390.096256032765,379.877890048596,316.289286570545,367.658003738591,363.408142453301,382.396090456123,274.758276483752,361.924563443527,219.274453012972,270.880799414751,316.880800904417,350.722976406901,201.750321559685,329.186869445638
408.082576739061,383.718817006764,359.592504885833,411.085730404544,482.119180447364,278.918958797941,351.490725455755,434.632661461482,278.337342865066,346.535988724929,460.521040191108,207.645607693112,285.081754680709,364.678790559902,169.715215755377,253.258225501083,82.3556840774889,218.645197137643,327.16695299204,123.59391860058,250.781975130074,-46.5960102643897,160.544034718297,288.368822058829,-4.0610316433118,162.191436353562,-494.067455051793,-66.6976689490711,-38.1559588614535,-593.396512053127,-489.09806147969,-214.923259919542,744.186673817536,-590.628274157217,-590.215075282652,-602.676035969542,131.116255332411,922.867891865603,-529.803934993094,-385.757545593838,-433.431932172012,531.260328437853,30.1979201758726,338.714655810224,1010.50130260715,467.071057896999,460.27322232472,462.942981178361,467.472189512343,481.042417678254,425.229736044384,470.721627804153,364.845687407111,428.880956015559,454.456966918068,491.122383295684,337.370747230703,466.513117699061,293.235646033753,353.539359978929,422.559675487784,467.59116586295,290.5247653236,439.984739088363
447.295827344538,429.757090781586,420.747091822384,464.053317047983,531.809006546255,338.681915304097,418.081277890261,494.883752196198,351.751794783569,416.154813304153,527.140867894566,273.435794966652,355.636508723772,442.210958701209,241.134436930952,325.715729478897,155.674340382726,287.952115266446,401.293403132205,195.145490280194,317.18678779039,60.0434803845061,207.562402232826,309.173869979542,95.1779015699065,60.9059818454833,-217.81413617399,-247.871317014233,-381.271658316942,-492.639298709732,-900.602092973122,-342.198282847852,973.697678930042,-456.350279360485,-779.815824226059,-685.274587119938,111.629590119277,1244.71785275762,-582.850309256071,-521.437221702978,-730.051132193499,848.550209507753,-150.331821995395,468.666060765183,1382.67454883307,399.18949741124,495.28488155702,422.995641899934,486.675754997412,524.494189005792,383.204532615913,497.856142636577,328.411539810396,414.668538319325,474.238445856285,527.684090927677,342.211393854939,501.026998517455,305.806631578213,369.377037250537,457.574175733786,517.841884595262,320.416129187749,477.87172979322
403.39376985817,385.337567855373,388.564986707966,425.136452995084,478.982177195205,325.558511357116,384.004322912152,453.52902500777,337.17873475491,384.404572794029,484.912885220447,266.919839640834,342.095495705755,417.495818619189,256.392137226288,321.413347622453,197.295653986287,299.142535954665,380.895153782092,237.177777842583,322.59984020825,173.053356293822,247.176729527781,297.612820855587,215.032948684744,47.0107881967965,205.044828227614,-269.956991755518,-560.090102450895,-115.685930102857,-955.699825723766,-334.694221930074,888.808282266746,-101.563611547167,-673.832865564006,-621.816895757293,148.065059937547,1367.22823425398,-381.566962992963,-528.822453498364,-739.174967275366,959.381770175379,-395.322787757533,431.411007879982,1599.55917980869,327.530241392153,459.157016948607,343.757226581195,433.298676440747,483.217896565986,299.374226006799,438.498607868785,246.008407778724,338.784142222266,409.812241887265,466.782306768125,293.201448212164,437.348358761446,260.800948370488,316.119134530798,396.201997426558,463.981233656213,286.712507979231,416.716699677913
319.835616017652,285.277058859081,312.694557724003,337.075304916234,367.001151949029,285.719282978856,302.250312423084,354.115426873967,282.347018598867,304.293266350429,373.751870770872,240.800088237275,288.825415984468,330.06959854136,259.040439662772,290.296144572926,251.568978340196,310.912866297999,333.092226359156,304.392157954032,341.1050779819,329.242511968872,351.43986441682,349.705274844933,425.99793035049,237.272144781954,612.885524472853,-34.8048811741089,-287.933014113051,435.123893295421,-534.122710536792,20.7304908143056,698.53348210152,268.043658443616,-260.237790537499,-317.936670663924,364.917764230894,1390.20413688158,17.386498479909,-288.666054544092,-199.255644361366,1038.71153510606,-443.210648549126,475.603372935332,1618.26790931866,222.550298800406,341.171507371956,237.123814090815,308.018138545486,355.03766818858,201.995109948709,314.362050817598,168.246992226768,235.713258740851,291.616471718534,335.153756469237,214.451798730479,303.631172367507,199.056489842201,229.472727165008,271.8609494579,331.659599821428,225.673655573699,292.075000735758
224.607580463641,173.964927903955,229.777166364346,239.612342522663,235.075517731871,247.228559810152,223.379386535255,241.503329723738,231.507496981729,221.23400950805,244.656963822383,231.683441608115,236.239788861398,230.41646007778,278.59726328314,276.013870725343,328.900597582508,346.585618669227,306.418307163645,398.98793111105,397.979835308528,511.173281202273,500.458985008628,459.502598658714,670.780224387022,527.572772221149,867.943187101184,309.734788591038,261.450822947849,858.765572129288,28.8445788975226,557.866577398492,656.027275912139,539.978034214213,172.695422212167,122.02588404705,620.207194304077,1332.42987312663,352.846949323776,62.3931868372905,562.791689182108,1081.56983594236,-245.669563377075,668.013353429925,1321.00983924032,42.5223734375315,132.995520463386,85.2693012636111,113.862311338792,143.939519567246,83.159615247223,134.802235043683,101.856658607008,114.669679475085,134.573616171655,150.94111873978,121.701152046489,130.246479164588,135.262402565814,129.448464703402,122.41088319318,155.193981715998,159.41428834682,141.720864869053
91.6508658529588,40.4901081486427,110.907272492781,106.760662834456,69.8158399809708,167.339611841759,114.395747934212,97.8271477892089,148.059088221069,103.911708078962,86.5452652549162,184.839197712155,150.581714882712,104.590062427836,254.280106902436,227.43634451762,340.716936239765,324.486704715849,247.469947812376,415.597338371928,391.67676887805,582.861612923155,544.402202356121,493.797457727454,745.263482760167,666.991020338162,890.752569121948,458.010936473263,632.079167853512,867.823712508408,278.36889043198,848.907428695059,703.16621937901,676.122072786277,311.540559959717,404.339502630331,613.59109927586,1097.5198150762,415.804952138282,172.741864057677,920.646077919047,930.281394787317,-36.5156285858922,704.420140488447,704.704985989751,-185.324190901635,-133.958378819445,-115.841933090413,-127.229871386886,-123.014468774147,-71.4499273742376,-97.1574214446428,6.34581115691919,-43.3620639174327,-70.0787048751651,-80.650956454158,4.31220035003485,-74.6377801590469,40.6847919471966,-1.27494280687333,-52.1354888423513,-55.4265551637968,66.2497727438217,-39.311154429458
-72.0836574113578,-109.850628324141,-47.7870080421421,-58.1845529688215,-105.222735272152,31.4940143565946,-36.2681949709898,-67.0743184595013,12.1467068762067,-50.619658766259,-86.7563144608465,68.9727432414222,18.1774217550095,-45.7453365659996,148.012175268273,110.598782615744,239.186053853845,203.241888080678,125.72624315961,300.703128345683,269.507330376715,468.232514144275,417.094025805136,394.124754622116,589.812479862977,563.653577378927,702.149063077183,296.45171486629,639.485778684824,536.253232263477,206.972552490697,788.02702416599,658.102423311869,645.765854439223,173.791697488221,445.96448834499,379.145430328068,696.52856069107,282.929587984564,-0.0306516520308282,757.682154735737,639.470985594077,65.1978899800418,417.431398361168,67.691160670586,-348.888997101742,-338.94233222699,-284.674645886441,-320.417208153987,-337.126094512314,-212.954860577836,-299.595683252981,-113.373810694336,-197.09841482319,-262.425669611273,-286.183296094031,-120.78469123209,-256.251957637202,-75.5101979921296,-141.163726169967,-216.384340112208,-244.548853513723,-48.2630254143868,-217.000394775027
-186.533569624501,-202.345807916304,-172.927063109715,-169.727525549932,-202.215661041936,-84.6989129801427,-147.781082253916,-169.961747673202,-99.096866864966,-155.511206473159,-184.075756128005,-38.5953214217844,-85.9341707240476,-141.50820392692,39.8978100219911,5.83465235381897,117.071701612339,82.4289128272278,23.6388112793754,158.504043379418,141.563646200915,286.929691758024,253.444758385637,270.846311052561,384.659351383646,391.865345964702,443.549246817745,77.0841667558603,471.557177921474,242.499432829851,170.99125448071,639.084127301464,531.467786597225,515.598614280028,73.9660269938782,421.102383309982,250.239854877079,318.096537819103,197.597682159056,-121.152183397643,439.560637959851,429.707526411689,110.440411299948,83.7524418362441,-237.169547299247,-369.369188624662,-375.310342738206,-330.925935721238,-371.045799043362,-390.298137881785,-271.272029813929,-369.398137084115,-189.320905062195,-263.322415078949,-340.769073439108,-362.842605511562,-196.560202832627,-332.110115577628,-152.900620244676,-220.752539780226,-293.169847874124,-326.103900952059,-127.128843853614,-308.023196598208
-218.866551530764,-209.938681918056,-228.22018780761,-196.875861112189,-208.320666564868,-136.312127699589,-182.501560271877,-186.786214481816,-133.918519759455,-171.099386634169,-180.821481728842,-79.6995525379337,-116.968802219485,-148.793474086163,-4.81581695273152,-28.3146559560941,53.9541491132729,36.8115194721998,-5.60270406006071,83.4122362519204,93.4517563976682,168.948227401689,168.433661176277,212.198437649408,238.781653485837,314.356578595038,221.492204614429,29.3500664829428,346.050475620491,157.128770803297,301.656187118435,561.357537899254,377.714792566139,399.578191183246,160.53840562775,391.147444041126,293.837291583123,55.0770926506135,248.012044217561,-59.1864163089645,187.938111431226,307.271177002863,47.9855555430113,4.55250022043978,-249.625030598923,-330.381242173342,-317.932695333558,-310.455847610719,-335.85629533998,-344.250811581712,-277.980854343334,-347.284112646277,-216.402825374423,-264.538135806195,-327.121744743294,-341.901432403919,-219.983540403728,-325.586173647329,-185.037532019238,-238.230166637411,-295.491457880583,-321.651063199303,-156.5700166264,-317.90067949282
-225.951193370106,-197.263303136918,-267.457097982051,-205.678909511088,-199.552089437858,-175.460823975425,-202.011498237363,-185.634034539867,-148.225811410237,-165.122611059549,-159.937852058782,-103.983060102465,-127.36806870995,-133.46647005771,-36.0104198055248,-49.3885074561399,1.11850951570983,2.82490841133375,-20.3039596349996,26.6002002007479,61.2155596936619,81.772976550039,97.5596977366414,166.284002985339,66.1931464640227,260.957512210555,29.9080496789579,3.04455106264209,321.595349937926,107.166469991837,407.744331451372,516.930503794489,155.077861130865,315.996297697695,243.344498354979,303.540497001313,285.340390441576,-162.215589462497,311.770691461516,-13.0383133211009,-9.16906580087636,95.6040303780854,-166.899613310726,99.1621690844227,-274.961801350297,-342.347456880522,-304.050317061445,-323.576197429179,-325.512990146694,-328.500677813019,-305.8143420456,-339.179292871405,-253.931758897455,-284.109394270067,-321.894963428021,-332.230688051924,-243.58988766972,-322.618772366477,-220.405154063853,-254.351586855135,-301.717154465882,-319.65801247898,-178.329389982947,-324.076209406508
-224.286553462162,-183.036543239028,-311.242302888931,-212.979882250374,-184.481371888868,-233.000539934714,-227.126128230208,-180.888330151025,-182.985210248497,-170.380824868444,-146.06691791985,-153.725773816273,-149.501652093143,-125.693570354336,-99.0096851667317,-98.9648427566696,-91.039804739,-72.0177851310049,-55.8651981344415,-68.5282956771539,-12.0239692578749,-36.8174481265616,-26.3149871954545,86.1668973455178,-140.610933314562,117.200902288777,-109.317798064885,-157.356241807072,373.372494312159,12.4117069579508,393.433102283805,504.849178906203,-87.426637393108,239.48868661512,198.028999810907,205.293371583636,153.138411629747,-312.792527829318,299.468169525627,-79.2291061570846,-149.985654842714,-250.099733680526,-374.341190271485,87.5652578541476,-349.590792922161,-332.401722653088,-289.081324037045,-309.717158891405,-297.40625411641,-305.131497796654,-307.936266365247,-310.378606769304,-275.75135738475,-287.571332778312,-302.157657504963,-308.673343022441,-253.187162895226,-299.963599410195,-243.083163431755,-256.148444626535,-290.100440486224,-299.551426870438,-186.479961936485,-312.14511088827
-160.031970035291,-113.834072195755,-300.113439071333,-168.014928034051,-110.675097551579,-265.004198828651,-209.321774971696,-123.449925598445,-195.463405355224,-140.526615753744,-88.0744216783297,-189.125254738096,-147.941860992597,-88.4233511087521,-153.877837597592,-132.392687903616,-178.301824974372,-139.882362798728,-74.477677590652,-158.673853599309,-81.8323125725794,-149.944560134452,-137.895188451938,9.92501109620795,-244.219333675744,-48.845598282408,-155.847466794251,-236.286546129751,458.354885458154,-8.76254913048746,374.387698367606,516.083434381428,-231.141183930162,156.122941038915,138.024502549871,124.192034802931,-31.695231672627,-350.090865945824,224.765356237315,-184.29038079243,-255.710353660489,-666.125323728094,-452.207189402995,-162.748460231457,-312.358140303361,-192.659042985779,-170.68583895293,-176.193383769194,-169.545956829248,-182.809366411975,-201.690154935938,-181.709038810812,-201.29945135067,-192.563906159422,-187.565260519494,-189.211417088552,-183.363090278288,-187.56591413186,-185.806103391287,-177.336837097105,-190.466643752905,-193.360362550505,-129.975246574771,-217.56038490974
-20.8831930348055,13.9575750148892,-200.039427794502,-64.6323728628804,5.50722208284881,-239.44113427471,-137.97181671238,-23.2080109034658,-150.745862797669,-65.229919134027,2.43984548508363,-170.902131173956,-104.764467469003,-24.6995828389347,-155.525544401884,-119.638965407745,-204.240751836333,-158.473592898356,-66.2907672372113,-190.710377790914,-108.566276680598,-208.584803356996,-166.401975707775,-34.6778456034977,-211.014604283848,-103.436055825607,-194.729610844845,-53.4116763404951,506.44576814304,33.800673555617,401.863367663318,413.635649508501,-317.555729611508,16.3145502958852,102.028386343673,-21.9537157213752,-315.071480506241,-418.610365296738,87.5313483465906,-309.331989381962,-422.870114576165,-1084.24280393336,-488.595650747204,-562.854248756496,-276.832603672528,-14.8360935754553,-23.6660564837589,-9.31785237394994,-14.7048656221622,-35.2105966338367,-43.6486521918655,-21.0719155289903,-57.5630207976171,-43.747048689299,-28.7980763601819,-32.8978124259926,-49.4530932880805,-32.55458766771,-54.079594359711,-32.7165708170222,-39.1753148495522,-47.0497742382287,-11.7159470535071,-72.1805590871285
123.94799556951,128.616138180713,-62.9841757749489,44.9869301801876,91.0223870520291,-179.861633179905,-52.0263516402892,53.0337012630973,-79.7871050215498,1.4233960743798,57.4005168746061,-121.402489692556,-52.4337653812134,16.8473418675845,-121.654872406092,-92.25330622121,-177.769776177491,-148.865512141812,-65.0668575154199,-177.613805313258,-110.356225825621,-223.102166001841,-141.167028885851,-64.0170429330407,-145.393421769374,-53.1278782006973,-302.631430055286,180.840934430786,442.27228308702,34.4838233867105,380.157109323127,126.367086960837,-459.230603868034,-185.860249722446,1.42258166517151,-225.20145279318,-706.29788849308,-655.433796013632,-91.580823406377,-434.339349108508,-645.833161504041,-1308.48863816497,-541.422392823433,-922.944990972049,-453.869489769358,45.6827881751063,29.4710956033301,52.3596121858684,52.8661205106278,22.9289556347866,42.1087196508619,53.6765378113719,43.2809354099553,45.4850557148709,60.4047887634277,48.1780727941861,54.4774973328014,60.2747219797081,58.9923250415108,82.7249692978606,66.3391924253055,43.1012291018013,93.879855463304,34.9783816773851
188.216685154281,166.403582714828,29.3856562853202,102.958950979888,108.093268997751,-122.154047291383,11.9253734347048,69.4812445179593,-34.5382075846872,22.3152212671906,55.5165960579511,-80.7700329354735,-26.8276582074255,18.0236948876653,-98.0667897116906,-81.3785093728377,-143.74636238483,-137.690257584075,-79.835951676655,-155.751458491561,-107.92705920021,-206.882060777729,-117.12097659815,-85.7342439167795,-96.056691620238,4.46802710338143,-354.494780015547,252.509467586983,268.413172703198,43.1264894785307,287.054061960431,-173.488780378879,-611.547034646929,-328.001536167153,-106.6247586119,-331.843235445305,-959.344385559895,-959.422363364311,-210.01044386958,-449.87685376577,-747.579650477357,-1128.80299488982,-540.560266636244,-1072.49412091284,-653.006673713252,-13.3221424746013,10.2305706249667,7.53367982951055,33.9377458748227,10.3578396909444,22.873172424993,36.3774739192854,40.7447285496144,36.7290616701757,53.6980018629084,46.3091196549594,65.9888292681895,61.4303126467929,75.6970607754155,100.879842128345,83.8305448999142,54.0759160249436,115.559128346025,66.3104369300869
162.765326785708,140.545273251614,58.2908626030748,98.9673422460807,85.3533553386127,-67.5954860017341,45.567083277454,54.8032611820983,-18.9193202014412,21.554793186672,37.6975274838992,-50.2877926472654,-21.4975162253006,11.1236652957047,-88.1396024731146,-75.1204273708578,-115.627787095832,-117.016065849798,-83.4268224168173,-129.04450193216,-97.112730389634,-145.687336876805,-90.9510939668642,-85.0634324620041,-21.627739796482,46.6256527688446,-207.2503285162,263.250125655381,103.397530367687,141.419268815284,243.230725363029,-273.124342743829,-649.352987881922,-301.443624845215,-57.9330762343777,-247.695565978283,-831.768275859055,-1112.50424476307,-195.396620985152,-316.860924457722,-592.679021295549,-635.479311793528,-492.474044619249,-888.104588879554,-503.97291572301,-96.9618475408806,-4.87396370883701,-56.5295741580602,-8.81091110552349,-1.51563816819809,-42.2712024569777,-4.69816473458188,-30.0019978479995,-23.9714860574543,1.89863164329567,16.4442775823664,10.3587403791906,15.165396403631,19.3436781191781,45.3345538952093,43.0463716870299,23.57585973954,65.3729612981607,51.4555436441768
126.908922702882,117.970326713573,72.4492717753715,82.8979571639799,73.9539912775516,-1.30875875257117,67.7540891783125,55.5008039372059,4.24113905595275,34.9953402747527,39.5781741945032,-13.0184341235999,-6.72493392867643,25.8110477115546,-63.3417018051987,-53.206051921337,-77.0588730438241,-75.9903763486588,-60.1656947386444,-88.7353328939554,-72.1906767672491,-51.786420136754,-41.0496922119818,-56.3558807997054,93.4804662018652,112.271357139543,67.2338087912037,355.562601093725,63.9787613158915,274.653933668991,317.631718069139,-171.644978146251,-554.282398905423,-154.490050370483,140.36147977313,-30.470201247919,-408.114612002534,-960.357919944329,-87.1439240462557,-128.177302569029,-249.055824908943,-105.662230455358,-470.853293723258,-352.450973410258,-29.4173258379296,-135.580289936458,-6.67893609023358,-76.9363475794991,-35.2169627769366,0.717552838148819,-84.5768598732928,-26.6476285573938,-85.7768960071624,-70.7802133849113,-40.5373768480498,-11.2272997846572,-38.5924423403435,-27.4550924991963,-23.3461957180672,-6.46850060052876,0.619453639967575,-9.12232227172242,22.5098850987497,39.4748204827624
115.387666764533,108.353377364904,83.6182264930872,72.2542794887561,64.3509741062531,44.9672876731643,71.6368512680194,52.3628952120445,24.5056586641593,36.1414761305117,28.6686591093737,7.38177643416557,0.326626442255217,26.6117958254647,-40.2707862935845,-39.2542506534591,-42.9511210844664,-44.456354815125,-43.3950806945544,-57.214387816999,-53.411337754648,19.0559702650787,6.67734790413945,-31.2183671634777,202.504394463652,178.173024997533,309.167396175671,476.747861094505,113.217370352453,386.854371487628,431.688797149767,-27.868220473115,-415.650768092181,-6.07022027697264,329.562169553333,211.21339928349,18.4533321482352,-549.679471003905,39.5040585724372,44.5263420215976,108.288394496257,293.586606947257,-431.209278181046,299.10553661386,395.032857395599,-104.401738490987,-21.7126695939329,-54.7176599854594,-41.8157377027291,-12.1837635980213,-84.0587259091375,-40.1747772779424,-83.0648796870377,-80.8785180800988,-62.7334624977959,-43.3207558572374,-51.4386628910195,-58.8107653457466,-25.9086381538455,-26.9708235821359,-25.9232174512997,-39.4648697326055,10.5364784425754,30.4728932000624
57.9873165959616,41.5035310040136,39.1423600129828,9.0578048619616,-10.1190378826762,13.5165921459593,10.9568157106798,-21.3183790893459,-17.7508345076839,-32.6577803813166,-56.9748270211113,-32.3237027550058,-53.700321259104,-48.2146725441745,-67.6298668012426,-77.574498008431,-53.6304909955332,-67.900210224126,-84.3392526951568,-64.932451102133,-76.7195938147314,33.8027881849927,7.54174157960286,-59.4660477465683,251.590632336449,174.186659265238,462.524682583763,530.616244858873,110.70697857837,479.695296621817,489.836211822508,13.3686802597442,-339.398686416602,87.7646165393034,434.781369785743,401.820888800261,225.884908010932,-185.545601331361,146.199114082741,202.364925953042,337.178776693451,460.752277830135,-284.007296242316,665.174528094176,496.083073687315,-37.0502141027703,-70.4178314380319,-44.8890498963285,-64.5595229024729,-74.3322775096992,-79.3235512630202,-85.6248402691185,-64.5112837050516,-93.4496390266696,-101.102515576074,-104.302074555754,-71.0291338067524,-112.741212922018,-45.8260736282825,-63.865693617213,-74.2409867185798,-96.7547141036669,-35.4228990354445,-26.3119171919398
-70.3591282515689,-93.531408549476,-60.6378572608019,-113.364194922414,-146.955870825525,-73.9149851819007,-101.943690308289,-149.298747628136,-110.232680615905,-146.923361628846,-192.277336772443,-109.351102733259,-150.777691944592,-170.68966139416,-126.728461084023,-149.903672568125,-92.8151053347295,-126.851162320987,-168.230919048331,-93.6031106378204,-134.04691508346,24.0035860499813,-27.2606973210042,-134.707109120961,235.04928617259,109.760316827998,534.342278855331,529.314873451827,33.9208570648741,510.478277084539,512.664855193894,-59.810706624205,-352.903624722485,133.100270400358,509.049129789296,534.321012693563,195.568203168665,-117.577940903735,229.440062806974,358.610067584293,410.24483759118,342.650428406675,-45.6424639280449,584.168051750128,320.157149248174,-8.02604489546661,-156.468929855211,-84.6252592310317,-131.861473096607,-183.708419625318,-103.666544619846,-170.346438466707,-79.473935050302,-136.311416091248,-172.088715824123,-194.112099302255,-120.948804552237,-197.305196762683,-107.411482224392,-137.29117978523,-156.578026487639,-184.851884373797,-134.248835116831,-132.009209547291
-172.389705140306,-196.955954256292,-129.186182629188,-196.915128815118,-241.923307584702,-121.706757360097,-170.706301754813,-223.399319365375,-157.681595132881,-206.819846876799,-268.072933924152,-141.854977354245,-196.189431304141,-234.411079935486,-135.163406946005,-173.685915335098,-87.9201169584785,-136.857709950984,-206.244809599953,-88.1802123543492,-156.155590297469,38.8144468579939,-36.1809405407393,-173.131402857923,197.993757670483,77.5275248188398,512.836463173057,516.257204007556,26.9982491420883,441.911211507469,574.991173206587,-111.736587068337,-348.47151613486,143.263327815685,584.64320530749,648.904491328834,104.429781807757,-191.168984308417,297.835757468177,522.107597396124,441.288423759687,109.814495222765,217.432568800934,316.012106241912,111.14069969025,-46.0033306033485,-237.481621053295,-139.689693330942,-203.362042363106,-272.813121603296,-134.875148433217,-239.360290134244,-103.425342683606,-169.932987339856,-229.413460598082,-263.155815182456,-157.277664625042,-261.414979907302,-154.708485212232,-191.076817812157,-218.599363989016,-250.989261035401,-206.921908698388,-208.921197450643
-182.535685397763,-209.379614775953,-125.350797836967,-190.145153513793,-238.223635191818,-96.6424659496963,-153.318524550201,-202.265399591536,-125.841154554358,-179.968144451084,-242.071942949699,-103.026157773746,-156.868658523348,-206.570368877835,-73.0571989461294,-120.039448170411,-23.2624305801089,-72.7848958944233,-159.037566229977,-38.2584552962991,-109.405752531926,74.2718818186886,-3.31057935736995,-130.062302513016,167.865386734762,99.9475094978806,402.212883617082,454.963244876818,136.770123639771,331.272731790823,622.581846148225,-59.512634644075,-222.199356287689,120.880510208659,591.245987654708,702.611368832105,114.767489402399,-116.74131871759,336.025382696086,650.79722568062,516.805993986494,9.45734208494195,451.733581325906,179.541775784299,23.9751532959463,-112.995051587162,-255.522280749411,-167.438276363996,-224.258542022109,-282.072825773594,-144.967555505701,-249.843292399306,-99.4534207112824,-158.04507591575,-234.502883308965,-270.613799836353,-150.209394329025,-265.195088219506,-153.614286687236,-188.839074701999,-225.161872570914,-255.191817362036,-208.520998422006,-215.793392468589
-156.508412306355,-185.89925448043,-103.665175595458,-158.04405432718,-196.045101071885,-59.298701652754,-116.739094099308,-159.050989227153,-81.4089310154432,-134.261794735941,-183.440426413318,-53.5313542103107,-103.230981874291,-156.925036593859,-19.7914459090437,-63.4987131401043,27.5976090902352,-20.8815501695319,-106.945280547807,-1.77956297340023,-63.499315643758,76.2379906417558,7.79646390593848,-85.4796605216716,102.387320241082,76.2472465017539,247.536947849008,282.32515188264,165.682504337923,236.980066955441,495.893844358116,-37.094904771684,-80.7519856867798,65.8277754544474,451.019198812914,563.29296855587,145.025911268852,42.2618292428266,292.495588996492,632.813210766507,528.768990219912,16.2293225748793,580.473830797746,170.366347188222,-29.6562193071331,-165.060758199875,-213.383980217641,-171.063161769136,-200.768978476549,-234.127322873922,-135.55041769248,-218.327405654329,-80.3716611788668,-120.129458527842,-206.172511120152,-232.216318894042,-125.797306526884,-228.141172009838,-137.680623075167,-163.579436909799,-203.016109281922,-217.856641290893,-185.721970289421,-190.721157389939
-159.95642221917,-184.997235653347,-112.752803394284,-161.595820136933,-182.755965156188,-61.4248376737444,-120.144329228974,-156.071859567055,-82.662088566483,-126.924954009667,-159.352868106445,-52.8288744327391,-98.5395306679848,-139.910477761314,-45.4515232052635,-78.8398345125659,4.43282621588851,-60.1505246606178,-141.871956920847,-33.2781079470318,-103.914961009104,5.78613916987424,-61.0569083988203,-140.440793457334,-53.7862621037192,-70.6582089142806,70.5786132509699,26.4876491745301,-48.172101980112,118.496786863065,188.113646159292,-191.339112821034,-152.082314304785,-22.7326545574882,206.556146077799,237.726931341812,2.88483988017665,-30.8526443039923,141.295434803341,433.503525934524,352.485628605841,-102.356106585498,541.10190091561,78.2429332273437,-215.277376500221,-176.412865874024,-168.608647437695,-159.352297913319,-167.822694685948,-187.197105132655,-111.12588491017,-171.244597966446,-67.5543843196012,-84.1609710805039,-170.697590174424,-182.760522835671,-112.004744108096,-186.950064990031,-134.303981789666,-149.402357328375,-179.756328431062,-177.334509779075,-178.39509318989,-169.380912063325
-184.112580287674,-197.625439398532,-139.341929722363,-187.034614372271,-196.485367391751,-94.339887754518,-147.356697958436,-179.39243608004,-118.500118148295,-150.113143590448,-170.970359714145,-97.766742289803,-131.924707707291,-150.18779584153,-127.857861576607,-149.959698792461,-71.1331082611556,-158.834847903789,-243.622654544832,-119.863869216174,-214.014631584818,-113.313180283483,-187.996481598898,-276.334799371518,-266.610470567256,-287.06478453243,-141.511842483905,-207.850467184718,-360.143129100687,-75.185069900988,-92.3950610671437,-419.970302255178,-464.932629842646,-136.404909947322,4.31255171665436,-64.7136118703676,-293.302549499311,-410.047911252919,-43.6622515412275,198.100276546143,71.1247345987495,-408.374553498102,370.593291738828,-171.393087276945,-530.644595879512,-132.314940412953,-152.047042628654,-125.174235430126,-135.092183168013,-161.333775807603,-75.3266161102614,-117.02616492429,-58.3111172631248,-57.7314728189717,-131.050484500258,-137.423231259737,-106.545239594362,-155.908929884039,-128.319114874968,-141.091715062348,-157.314405320111,-148.649813255025,-170.480333210215,-152.082032153353
-183.589553937171,-184.216803078694,-144.122392295554,-188.314273206101,-193.5897352902,-115.473402083529,-150.131523475716,-182.938447296035,-138.450001251753,-158.535212130939,-176.691055835229,-135.702385683498,-150.796003428715,-152.991268292549,-184.514009790972,-197.85402228843,-134.609876029042,-223.173803740518,-304.235590167328,-192.924210705659,-292.605953999784,-208.482465256724,-291.822093202244,-377.736449914331,-416.375711314176,-464.528985260878,-359.383545403831,-354.30365091029,-498.899555049827,-296.315330068667,-187.382848931118,-495.230493283354,-757.842429148101,-245.117212799412,-49.8505193732055,-192.789710744443,-521.215087330945,-784.130779911642,-127.259083071078,92.2080110119145,-170.314677991589,-687.659035602208,153.958334549928,-437.807447531746,-789.487966351628,-37.835925144093,-122.130495646181,-59.9831759898169,-81.4751092575494,-122.766088259896,-26.9104689085668,-52.9721808413532,-32.584515039928,-29.5602463008949,-78.2720711656355,-85.6938042377363,-83.3775170899266,-114.617295024658,-93.2604006472597,-110.885699414494,-119.801850221033,-111.76555664058,-134.67780956852,-118.833579956049
-134.91250063156,-120.117345888937,-102.203480888048,-135.377264403764,-137.623658855509,-90.886449403581,-100.955028194054,-134.786995457652,-106.058267961273,-112.117030481346,-133.366522610817,-119.737856035452,-117.813724181682,-112.25451848468,-165.380570857037,-172.005595936908,-150.093685017961,-209.912367115795,-256.752364610719,-201.982547843498,-278.466001223436,-238.644495000446,-315.818660618051,-374.564317195991,-434.380805162061,-557.881380322592,-534.025552079886,-427.133445693308,-412.004396429769,-464.655433272687,-177.535803906921,-380.153451561131,-766.305178227082,-332.157045349874,0.108798298756524,-210.916835594859,-553.041599523156,-824.150605733441,-67.58486276347,109.356777263308,-360.467153867004,-722.060958560788,-64.7674136273127,-544.702246687668,-817.279605603432,83.0174986611369,-20.632409781776,44.6442343008417,18.7138473036806,-28.6394041440887,50.3950916524871,33.0344680205817,30.1683603260738,29.7766716454243,3.78780410205226,-4.62981496553542,-18.0059317758071,-26.0216046745853,-24.8949111990248,-36.1982230075971,-39.4831573997237,-29.4944737190645,-63.6184073338378,-41.3574689633507
-46.284361843714,-9.81436955370735,-15.709068592237,-33.9229990447847,-26.8054712046281,-18.982489929879,-5.56892963147513,-35.0441016864242,-25.0121971072224,-12.120229526585,-30.8639121890524,-50.8181587870982,-35.2192423483142,-21.0664380641892,-90.1147792447063,-88.1606198463927,-123.956898960802,-142.90229979417,-132.21902608739,-150.864597171349,-194.948809933113,-223.684434723817,-261.099407815055,-293.972391228047,-353.017664669039,-570.733895074361,-650.333233111861,-429.79940401918,-282.901551896737,-523.538324505908,-214.663712743139,-251.954877289802,-507.351240246427,-401.511008515136,42.8910266790553,-223.748830819476,-461.138414034524,-530.389283407262,34.1720885161651,146.209037922441,-490.52727532293,-514.513046368314,-223.067411233718,-424.013770218906,-612.045936754054,213.130632084041,147.715417369464,184.559024691419,165.022765188787,120.293645214994,164.999997797651,150.738086438501,130.712508282264,139.36547203787,126.82445786083,116.85716761451,87.9976646578577,114.54832959556,62.311497268742,79.6574321588558,93.0018252963976,107.386931807614,39.0232279117343,86.06682904159
61.3864667435942,116.77561024262,93.0815455389027,83.3638164062267,105.951602969878,81.0682218566281,112.41038752973,86.5922008234748,78.546436883209,104.147611525628,101.402685899508,42.906463269921,70.9101143395484,93.2798973640564,6.47221141732113,15.4038824658139,-67.1591621093548,-46.5158643307391,10.5280495536449,-58.2889246079788,-78.3774697745269,-167.873440659001,-144.93572681747,-177.216685481833,-201.481819103276,-475.766063591835,-660.649787899712,-308.755597204436,-249.928716464815,-405.802789959563,-287.307645720512,-233.038028618176,-215.100397334411,-428.280143633731,59.7178289792482,-217.503373680168,-351.482917725375,-165.916341200113,78.3969777241188,175.114831246727,-453.377207838279,-221.720239097893,-220.680981703319,-130.775940602856,-318.294374388819,334.204526319115,314.177372849492,319.433746013823,314.720686414379,277.075941004282,289.857303999719,284.157027963941,243.850734213214,271.339829393244,269.945445230133,260.48883928269,208.447108497167,263.702174201666,160.631774360795,207.268815694453,241.022118118353,258.87682034952,159.284287636697,229.572924526048
152.170219438166,212.315794813061,187.285794269651,175.72013188606,206.086955017637,176.691377844121,215.434584265616,185.169764074688,172.818068356929,197.08067010333,209.469226101758,135.811948778661,163.285316980203,191.780929628314,107.541138902747,108.728008440375,9.47781473026389,65.5020652854247,139.587982005311,51.6283793093838,52.8808996246054,-59.6891257012167,8.26056659890866,-29.0915021056541,2.28489631522216,-244.142416907208,-515.247477467457,-67.9411442383987,-231.168986417832,-120.302523085569,-280.384086584156,-253.615309866605,-43.5857528237583,-386.97736017111,98.4823170879164,-158.339130964814,-235.492553485003,52.3071047007024,66.7883653578961,217.188976713237,-234.18252848074,32.7262050061093,-60.7297345572862,207.808912648701,-89.2671114688817,387.771456392518,401.319064355992,380.498669839676,394.180101807066,377.713175877362,359.775637437601,377.279373012071,317.543914368118,353.424376536201,367.345886328799,370.794718491479,292.84334894832,360.101307139013,249.127123918457,296.815254501499,336.491618199841,360.143165213531,253.404185821509,331.706889711604
