41.3954660519167,42.3379197448676,43.6428556274148,49.8050528505548,45.0202879478814,37.5531548421942,47.7751525888146,50.095038602232,37.6981477180328,52.7774068052459,50.1675350401513,26.9686749059773,43.7878485032534,54.7348106290668,-25.3737532717528,-64.7393190619293,37.4081619663556,-45.9627416408322,2.89985751677175,26.2437105267843,13.1943517013115,37.9881334697099,35.5232545804539,7.53962954360655,32.4784041878436,26.8236820301387,33.6383471945523,30.8834825536191,17.4716415385498,31.100971867377,25.1562639579949,17.3991451006305,21.7489313757881,28.5635965402017,26.7511855922194,22.3289028791425,21.458945624111,24.5037960167213,26.896178468058,27.1861642197352,23.4163494479319,23.4163494479319,25.3737532717528,22.4013993170618,23.4888458858512,30.7384896777806,-46.0352380787515,6.16219722313997,-81.3410033454476,-8.33709036071878,-124.041405279912,-23.2713565720933,-99.3201199494324,-162.537013815057,-37.8431405938713,33.2033685670365,-128.463687992988,3.69731833388398,-35.5232545804539,-69.3065946508448,-39.1480764764186,73.2214022984867,-25.66373902343,74.9613168085498
182.066247363765,178.273574714054,196.78986015384,220.954594746603,203.32574509143,170.359247740066,212.990182384403,226.825349673934,167.712399483946,239.770614918788,228.764265252242,118.178728080027,193.12806176685,250.073401539918,-118.005497977954,-306.316634811701,163.581559066678,-167.707136195148,18.0370476005858,113.361356318723,76.0912352762197,176.265522614291,168.122053973491,38.8927170152331,152.586861753187,127.785234376399,159.323204303154,147.556370310521,84.2074764067159,148.370862829014,121.250805982941,83.9359789005514,104.213133355976,136.476067661924,128.891169190702,108.197524353274,104.359582775947,119.532292806655,128.41921407216,131.172622168962,113.792412142045,113.574922828287,123.51522725982,110.063943493663,115.00636334116,130.556683890512,-198.427137627416,6.18561798877799,-371.896896305554,-28.8298307575685,-560.879999042019,-142.465481611191,-435.095980872924,-726.794106191099,-193.556651330108,153.996900932283,-565.406938223443,9.13410434962997,-142.965790015496,-302.179521389705,-171.257442221332,342.359132870173,-94.6601884238093,375.843747924096
297.346681697219,271.202381689473,342.208600771312,373.914391985929,357.135473904895,300.373659239815,367.269179342081,402.303139375825,287.681768831763,427.526903222903,412.923098632911,198.392979403,323.323362825622,452.329882547158,-202.655042377727,-560.199352968145,257.979346294529,-135.9724946274,47.2640156405987,175.110492797632,189.704822292467,318.576294406135,317.279146282613,81.3716830682557,285.281372868268,243.890799129329,302.409594871406,284.982433258807,165.182009647255,287.81448892018,239.820628829958,167.258676006767,206.426244323356,265.34012911366,254.968229315688,216.53687152917,212.243716450111,243.318980961151,250.348767654648,262.42335025264,231.178853935301,231.379311547678,251.779952948503,229.132722855589,237.996391561953,160.15664125149,-331.948152405394,-109.78944630559,-673.387338698248,-34.0901015828272,-982.496415024599,-389.041005207266,-703.513678117627,-1251.96241068777,-415.25424910295,258.540307593392,-936.387507985169,-11.9853042780408,-183.776442291312,-499.815733067696,-277.077639950944,608.951695175931,-84.8746007582909,784.657655186128
189.037114691264,151.088758710982,272.528100970485,282.565818929584,296.027048932578,247.768366486439,298.787691804968,347.100340468089,230.463334628871,372.549524432479,372.105553397296,156.199402922646,234.303996580347,407.157786059937,-106.003665041615,-421.357176685812,129.467491730772,278.108981025921,68.0185380266424,94.1033317910566,267.523745892408,269.889031249294,300.865038818164,87.9687701005554,267.356690453655,236.384587898455,292.897161149099,285.835099866142,170.961646149238,295.801413977811,256.592141344627,182.455932034965,224.284842878708,273.381749464433,272.68913006863,237.359168038685,242.570221403695,274.969031339368,261.394240191164,290.482350235721,265.645879969093,268.064718152407,290.271475565204,276.409795476543,283.85644801511,-104.380675949741,-346.371329202881,-458.081314642649,-650.565672696686,-125.676026530507,-806.103321350143,-659.686683775298,-435.277460237304,-993.736990458475,-480.989685254144,90.2435547354445,-652.744316698555,-72.2486955414629,-2.90943343806518,-357.32381227625,-158.630012708345,433.592961436042,119.138415818686,892.40179279969
-18.062332320719,-14.2574176551467,89.4326079202201,75.3288600782187,103.424079384269,89.4973890759608,120.7524712787,150.480460226014,91.7405797787901,168.578658897442,173.926455288265,73.5234067870747,39.3569965946976,187.020363810759,166.697551581173,132.561562404351,-92.1362187986119,784.245648411321,73.1617631439021,8.35740023707155,249.317419144698,103.201211578643,169.265710848672,61.8929996147651,140.875813307065,133.523490184544,165.599894248242,170.629447172167,107.411261231292,190.204832241665,177.757276391155,127.211680457352,154.748133589834,175.777459788868,187.825788912623,170.148475206694,185.123670570612,198.147002890558,175.417708709351,214.437776499538,210.50091342445,210.167085407854,229.905049673734,234.341530026392,233.352456024755,-488.445557942796,-522.062489014512,-853.351013604011,-525.622400146835,-578.253428771558,-319.178523610959,-819.390378974931,20.5600712570556,-318.874855514559,-294.684199010118,-340.412906495953,-84.69719352711,-98.4947400877071,204.617141597886,-26.0600584694346,111.524013339378,-66.2092088119987,349.826322755624,635.717551568245
-60.7472666630665,-10.1153640766472,49.0904374177517,9.98518167047011,-9.0173501636584,45.0353030635675,67.6559411351426,32.540599060213,70.6145107112365,60.0144140488691,14.8004210181565,91.3189915397991,-16.1975822325811,22.4327481701127,423.284481127077,724.740282008812,-120.78470897439,997.979812161671,126.445567217801,130.533226823812,230.330339424889,50.7784150121533,135.901881597071,78.0989376359081,73.4724934971406,79.1829951418401,87.18714080909,85.7994700028495,52.6690331010432,103.508642358749,101.03657221303,59.5320193408401,65.4926939587832,95.2372326666698,106.201156166243,94.5716469785646,99.6416351595043,87.2259558421368,103.357107151711,127.48316537652,129.045441110374,113.120078001232,143.065844213621,148.161352126557,131.607621271688,-522.400720190867,-887.877547195327,-887.337274005273,-588.598510742131,-1195.30754320405,-205.125840983039,-744.884809229534,-21.928051245565,-25.1626186772454,18.9479281780583,-586.719509243854,40.1393963364904,13.2430302194661,192.889043939911,204.624292097774,346.541732904583,-258.574867528452,417.486854752981,385.959786914348
47.8919425336037,74.7954139085783,151.735605388367,51.2055756888111,-39.4552640715582,138.534636265447,113.335688003057,-16.7757917357993,151.826317109057,44.570017361702,-98.7132772663722,187.642169909127,71.7661697087977,-53.4912440827485,559.359333468113,1107.55210054208,19.7783595884124,985.530775818803,295.03654830415,337.846385033438,332.580989143095,88.2356117628752,184.866664105158,182.826825013581,48.9188673394524,59.8123715512618,51.0985986577612,34.8011087365091,21.1426942110015,39.116112475998,31.1403623114095,-4.36359926065612,-20.2785864967507,39.0435149284058,38.6319781493374,20.8995788605386,2.94939858214936,-21.6667110268339,49.7502834303616,44.5471998352336,29.8164307064766,-1.19209338734749,43.9825633729492,30.2144500930689,-4.41841266331385,-120.795762531313,-810.027841182466,-466.96449555356,-460.605321761864,-1147.71909162123,-319.552985412022,-315.734211687364,-387.083032822683,12.1503272538588,309.390423043162,-297.767349081167,-124.043893922718,231.506833188794,119.892777611092,358.150424153456,552.972311770896,58.3512906616425,427.380585193515,355.6388942306
169.105087261482,144.327491123057,260.887592506489,96.1418663003909,-24.830410309572,264.602367481513,163.303876373173,-30.7715339439188,238.257497526061,61.5311915807175,-152.135554796409,280.513327511281,196.508686665413,-35.809061224243,586.186579496823,1195.45219382263,103.872655676692,868.279736933539,499.756506655251,331.946819279806,466.153378205542,37.9313928430018,106.885500362786,319.718931125744,-44.109680605173,-32.2079719391168,-32.1001570104255,-55.0888179776182,-5.12776259491022,-53.1703308818388,-57.1061589931716,-53.123738878761,-76.4960253785264,-35.1024211678924,-43.3456746119881,-55.8705411707404,-84.9778219198193,-100.794245845109,-23.1005079265788,-42.9799911926095,-66.8977197659705,-94.8292340681782,-51.6369781864684,-80.9051049177772,-125.31831483849,329.755101810527,-69.6027699953054,80.8413157811796,106.622068976218,-229.746215662724,-133.851390287656,320.971186309408,-382.840101707105,168.432959738208,464.470976985371,255.701028388975,-44.0642420341776,334.598264969575,271.45868598894,496.751315812745,725.999805401165,474.051768906844,532.18490799429,416.871154811645
246.265887273167,210.710790717852,317.934833847605,149.059113153944,27.1275128466159,346.514225117361,212.200449087596,24.5504159525938,292.984092916956,119.888668243705,-94.3120377529382,321.18283543331,286.090238762107,78.0350535343,498.2985745741,937.063580594249,65.2470534474988,555.30679616013,529.586126737248,89.7225666405053,381.937405762497,-101.242419455468,-147.980880496739,342.532956676543,-182.440481630821,-172.1029193582,-136.474849811441,-159.439102868049,-28.4068960656345,-142.135023369523,-129.711250080006,-73.2788918931728,-87.6621022425757,-103.393227859986,-116.308269603327,-106.420241670002,-133.387449134263,-135.119552173553,-91.8781607885016,-106.541245540836,-116.280661666631,-136.311040243804,-99.8406445926126,-133.283048663273,-180.684956000592,414.96268811141,651.402821022584,403.456023224685,572.922733222896,669.373329665703,296.742985244927,719.226238801239,129.923068188353,353.383183208315,419.760378425599,513.145932053137,328.555166142338,155.128723837054,607.939230789229,613.018641669692,700.232081865999,578.955713777388,667.044068382426,346.554159514074
217.714901849963,172.767499524193,280.876992396179,140.433230452394,-25.5470955536238,329.885130189024,205.795311368387,47.957665686647,268.144186292941,136.969336553337,-55.1028302479933,269.755254197062,258.11371684641,121.375849099151,305.497064652571,458.735417388202,12.9716471797202,93.9500641249579,297.019897438222,-125.741549528339,30.8264614364747,-191.432524450756,-373.511926661533,159.536644408756,-258.152955698927,-249.096009893022,-194.866691271118,-216.016568874727,-75.9958833118422,-186.929594312855,-170.469490074387,-106.848249127603,-123.662639562018,-139.226237548522,-163.383916566943,-142.513104424356,-173.497833305981,-181.458550392996,-133.427378452167,-145.370533643258,-143.991231192503,-174.551998047967,-116.51901774864,-155.123870537246,-214.105481783008,3.05141716887482,868.457148534805,346.846186059254,487.870947336724,903.942351670384,511.024683171676,669.254383355349,632.379853119019,422.04827960335,244.8444920577,351.411134879625,632.894105762505,-133.031165928926,787.205612350422,706.054311898149,443.440822019197,337.715899697253,652.148804758733,54.747879622203
43.4448229480421,-55.2233687972092,117.426316589728,-17.3489722463536,-280.890798998078,198.748078409455,72.7509047945136,-89.9494722075345,125.794453869637,11.9199110333013,-185.135039638924,129.127706651708,88.2967280248693,-39.8981159303236,67.9144827024954,37.8763971695332,17.8091527714216,-275.187056527841,-7.33115925874564,-155.378904725977,-297.906634410335,-182.078997347016,-378.686882206113,-88.5973662615203,-239.913849447885,-239.685066413792,-202.485800099936,-221.551428085362,-160.718856186182,-197.817474731237,-203.211522780142,-187.563302625474,-231.371113710729,-154.058757465363,-193.759939984303,-195.144423145488,-244.590654714719,-277.999992040833,-156.259577498705,-181.208269225073,-197.093095910487,-251.391518963735,-149.394307975322,-199.54661675777,-278.872361386742,-593.560244133903,803.168733985145,47.7282526745194,177.149497818527,758.465997011041,400.493748478455,441.101713484252,734.305821747261,429.0998362859,115.145748189118,120.606582537148,617.993584772916,-192.115369772982,593.289267695033,694.625762339381,194.824170235898,13.595849606137,426.617220179468,-306.643355901132
-160.037464529467,-306.025025724957,-90.096464007406,-222.640440453538,-556.068410777985,22.8372173139944,-115.713608614695,-305.149243719061,-66.1305227040335,-181.493903525617,-388.21439810558,-35.2514983155436,-115.457436355316,-275.876076395343,-186.226170272062,-178.175684508361,22.9429964686268,-483.197497198461,-143.215017883556,-128.321332442692,-356.43500356,-143.532511711382,-231.512466397934,-166.758544547074,-180.579167095986,-183.747383594269,-176.876332578788,-193.192637499904,-203.147611249359,-182.863146415779,-208.902863307934,-239.3667103872,-304.849232122442,-151.128882623443,-191.83473804711,-222.149406298572,-288.264796819672,-335.548142116824,-156.148443759848,-192.174250856918,-231.357112536647,-297.418722734626,-176.76255920518,-231.918727161346,-318.050546516146,-819.204877590052,701.463956528452,-108.450302015036,121.397838149588,646.74492509653,326.89855906509,357.945266321901,637.399667053162,493.283355187279,149.180892774781,101.729845534508,474.298163674954,30.6195303553678,247.002013209606,564.23848247613,141.729794261043,-113.367153015845,152.403882634171,-492.959308753795
-215.270066788737,-344.991747901217,-192.984375048016,-282.066880193607,-583.745377875959,-90.8144104909451,-198.619765135745,-392.172861389233,-178.635534306201,-269.316152273174,-443.564016008136,-152.4864844518,-218.223912269879,-364.891251594951,-431.763094627086,-256.651336987991,-46.6661755183448,-669.268490195327,-116.828468338881,-211.785292913823,-279.245869030683,-133.56787553875,-131.573282243382,-90.1158625699976,-118.081513688633,-83.9734015898214,-118.301086877905,-120.852032970876,-104.693231154693,-120.85947944227,-129.271839706313,-145.099766601437,-196.13514548723,-108.630485824298,-122.817462603494,-143.787077257488,-195.160537296233,-224.608025575521,-109.409418107516,-127.335356388136,-154.310538238025,-199.166196602661,-122.272080653149,-156.345974542507,-218.837271950156,-484.318113728382,577.88109457508,106.392309174291,331.822756052426,604.577190210523,528.402405648624,435.982506052714,666.595553020233,664.193130919586,302.951857409688,219.680537372573,522.402347898821,272.949194488007,85.5804477844704,470.733411337524,196.380936960299,-20.2416439482892,25.4427824809255,-438.255250523026
-130.318185562371,-193.56028620178,-178.29092195501,-189.802055801286,-354.491482220346,-133.70465137284,-159.177296464073,-319.24867910574,-195.465047353214,-234.680515581512,-315.73386392561,-218.069256290645,-226.128742295823,-300.91727556657,-556.736979180178,-308.215367456196,-178.448675731164,-852.10480835281,-128.281659020287,-361.045074934007,-337.729894843176,-145.938387645412,-151.578050222674,-99.784252528217,-65.0302024110223,34.1798880506565,-51.4031107446082,-21.8899121333551,89.3757485005618,-28.1557053513469,15.3027066113018,68.308408212618,60.1255486757776,-35.6802318906802,-8.19215735043196,20.7219459854537,22.6731082227497,29.1944434614222,-27.3395761400026,-1.28067530144708,22.3208093434615,30.2583623841427,14.6385229482815,30.6493815523008,15.2778074598228,49.0660127044303,509.306025765561,487.425986107863,570.220807894887,562.879058388371,797.121914860347,482.10295444636,719.050288377782,814.165351881342,391.72577117714,209.711916193338,687.977970456884,325.755891053008,62.7442497137686,416.654860862184,182.176533949715,78.397056558745,-5.8416995687628,-284.747549123597
-87.1673660873615,-81.3446491656046,-186.324766595117,-134.564170395857,-112.447615636404,-196.619232920853,-154.078309069023,-264.154467917049,-221.438605564403,-239.409723459744,-183.212767262218,-265.212203580352,-245.33234593491,-262.7031170044,-455.892751189009,-349.07895751865,-273.891941700326,-859.189325634172,-234.194442573835,-389.344605082661,-471.855439706616,-148.158603894179,-181.794897469942,-228.187250019111,-34.2717058576568,101.788647227629,-21.7189735826103,43.0556123327891,215.308803685529,25.5228334429584,115.146122398055,219.798083381093,243.402287586239,6.4362957439797,66.3522509153256,139.500992094972,194.074429831308,225.235641172593,24.972181655807,85.0897709197937,154.723969482639,211.219453155725,112.123774932116,178.053478902912,209.778071563249,373.405829290501,519.938921961486,669.142342265245,663.405246866387,511.665519346275,796.569243922779,359.160842739254,455.929158787435,686.300246523964,254.98945377503,-20.2528561945932,610.815423860972,227.413290815181,-116.299225032987,144.528515673014,23.544956754767,39.9606083174792,-168.715685039741,-194.855353473545
-153.04940769719,-111.088272585769,-264.933848245764,-206.607485487224,-19.5986771234847,-286.042289757064,-246.129640777984,-307.968661701077,-269.553417920192,-334.132217527447,-143.625105235026,-263.183267042035,-269.638228716194,-286.912284876293,-168.102719783903,-315.381402463979,-221.816314960215,-603.716273187973,-222.89938424266,-201.391712769493,-360.520161082701,-98.0988359899574,-78.4387038228466,-197.334863532393,-1.09927528852985,133.101226495254,-20.6885312383938,64.3848235453167,207.701637603389,17.6660310539992,118.405974349155,203.616929711332,213.592564409163,-9.04406868947701,57.9316953125065,132.029303989316,191.910596258554,218.72086595079,9.77529705780656,66.7665476158063,136.143898488513,200.910599343971,75.744818755317,153.300334976368,211.073308737338,417.723460839929,436.478878082398,548.431738269993,546.051626111849,434.122635367561,477.591044974035,141.816131253743,-121.425298675673,238.211981359004,-21.9513297108638,-228.271943086959,209.941729664769,139.441733152092,-477.393402723016,-375.666614866956,-223.881146540569,-44.5868218369078,-497.122382299832,-215.853826468399
-207.198700758973,-161.49894347531,-301.83380026647,-299.572361513133,-0.89361031820477,-308.577867410302,-326.878612609749,-323.782851160982,-254.404026453067,-385.705212833899,-106.494667818892,-178.101631333683,-219.509043579808,-241.690467622053,130.034472531526,-223.730786876302,-29.5724924719451,-269.271585365452,-11.4623718208332,70.413852550256,-9.51180918197892,4.47216132436109,117.358240282114,59.0444964672917,55.4043256842731,178.378236272419,-7.94616732317592,76.616541352534,142.909112617388,-6.3756859521412,71.9096628296779,97.390622345995,59.9261586104254,-38.2385055566272,7.77984897948899,48.5382333429442,70.041231268962,72.333674235416,-37.3417867727388,-13.2704666551186,14.1716158839436,55.8206926719582,-44.7088227224488,4.06426180641029,63.5705483799045,355.075518913948,224.59998795733,364.251852771204,330.768597153503,345.148956297894,154.212178881045,25.7807150841401,-533.977383678436,-124.500189048145,-174.328022860226,-163.95053827268,-128.776638579256,155.538918422494,-703.144722417789,-703.036003538465,-379.431069577082,-51.5148782181194,-737.79690825531,-289.438142414312
-190.369240522067,-151.985911811482,-268.261064384001,-335.009180313565,15.8669946308146,-279.076246695285,-362.024827925001,-255.769414219525,-223.728756707023,-357.786662629205,-47.1447363269719,-111.640301653799,-170.42126748694,-143.697808172424,243.387468117204,-232.156162232887,137.784575174963,-132.769229249248,109.878483925038,193.854571470354,169.134038764809,73.3843535543446,193.915429371577,205.08505021467,76.6788398424866,176.028404432948,-0.897782414342284,58.3788069401733,70.67544967161,-29.9099427246257,10.9708484057742,0.0397105753457028,-68.5498102878913,-56.3123785319136,-44.2812029296733,-39.3893293161424,-57.3357569989247,-75.5965615136727,-78.8623587057749,-91.5847359117112,-105.107604627266,-87.2854948650168,-151.81607238964,-138.240359239632,-92.2147804591178,358.841042058765,104.697592362133,359.488957437778,235.972503077686,295.246060811175,135.654026310641,73.8869820485502,-415.238578310414,0.0363035112267127,-130.268239471452,54.4887287610309,-58.008226895295,210.240146337404,-599.032610898598,-530.293450203159,-330.86481365656,-48.3070388019703,-712.168967965792,-373.386087997899
-197.173969630109,-174.588057571954,-281.559275090541,-351.325580605844,-47.0433583778047,-319.727432602176,-431.501458348412,-216.172046759463,-305.601148202387,-358.326606192302,-72.7968321954998,-172.825332399823,-247.919863496105,-144.456525528835,146.799875799515,-376.319029391835,148.442625595002,-212.779776644945,-43.8968900514531,111.209413986817,21.2466408380769,35.9106262826486,77.3806581755132,67.7713858251853,13.229042331236,66.0465320678715,-40.976810232277,-21.2678301125917,-21.6640188804087,-74.3072119752331,-64.6624538829608,-77.3526761228124,-132.904005170087,-87.0260116825478,-99.6017648132201,-111.680555383906,-144.035254469637,-166.570396967868,-117.166989950083,-153.864873368593,-180.41169211884,-175.695253445684,-217.023533770894,-219.269553951084,-192.605595240164,414.851887529495,153.838688043868,449.686478119998,283.277773283083,243.402802848144,304.898332128408,139.782905132556,-40.753601586585,390.894513835971,-103.666680791584,98.725178233097,221.304329071066,140.424349790349,-378.541497220825,-193.33626446702,-249.567454158673,-204.90505511194,-573.18591823537,-528.81890862779
-279.468524579458,-288.283843909325,-365.811782341998,-365.590455745968,-215.771031697309,-420.499734109656,-503.438183554467,-241.832049952567,-431.356865229114,-381.319118283121,-170.951580573505,-262.184779340739,-349.680333177384,-211.59956322179,37.4416379188129,-422.050858002065,70.0681261839663,-240.356933999562,-219.219426755491,-12.3158454509355,-139.720512732354,-60.7724281273411,-62.8426511801543,-114.266346322967,-75.7390244576285,-61.9276066753869,-104.593995976509,-108.052380112545,-108.760751402558,-126.96185395386,-130.159577247016,-136.139374317948,-158.798320668512,-127.721999596032,-150.39013942456,-160.031782417233,-185.98592688464,-203.203953291573,-151.363867429106,-195.244556833069,-220.692924486505,-219.418997486719,-251.752031596262,-253.312667719868,-240.818631013919,390.13708309893,171.97071126273,397.079968560778,278.365705112497,84.7834216847569,313.552015960347,85.9012506899697,86.7233387624728,509.568022603493,-216.612578541921,-130.192652630807,280.94174307077,-104.593340644201,-320.556435532308,-152.794963070127,-347.836253976831,-528.615520957181,-544.644504451138,-792.253193973199
-351.993309556545,-397.410962655726,-398.780864008943,-341.456291581948,-352.904437170193,-433.119700754491,-454.019684334417,-231.556246769366,-412.235008205642,-307.222700893564,-186.444962386165,-212.698971163622,-284.531137182768,-174.85357080869,75.1567547537918,-225.77285994836,35.9127097474828,-64.8157249823462,-181.481778636396,-40.1360063681669,-106.187544415575,-131.18056215232,-93.9365531436295,-154.535584270584,-118.762102979329,-112.571967167234,-143.179279824002,-140.086613011513,-150.393271514927,-155.666236046808,-159.487717373449,-160.124620222986,-163.514566521329,-147.243376566556,-174.207919907421,-178.756570249751,-187.923193155931,-198.949323145964,-166.663874572912,-203.207950140242,-230.665581508886,-223.812970670853,-253.971656671346,-252.561671908771,-241.639319341181,288.854268908407,56.1389155273516,211.243842359858,152.236281413954,-149.768574953734,131.762209714908,-31.2690752508806,-58.9792028178188,294.691484844011,-316.324476016775,-399.943910826561,102.719218569343,-351.07803856795,-376.280245750084,-331.790053117623,-516.025970344477,-804.167412267334,-591.603169798918,-1016.00357491296
-319.468809718616,-401.171791746589,-308.917106250428,-261.018808190059,-339.031325420723,-297.416194439498,-283.336353517559,-139.012815056609,-235.157763161582,-134.757584767484,-71.3289096944391,-49.4639768743521,-88.7964363995921,-25.6651711517293,186.502307918792,19.7813802168562,59.8907957140913,150.68253032965,-61.5959653617099,-15.1565365836488,-18.8336194291161,-154.736752457588,-73.6125349541203,-140.861687622566,-124.357753878073,-120.1891732483,-151.60498491204,-134.23897888127,-162.871111050757,-155.53194060379,-160.929183914894,-156.584572617033,-150.305921909424,-140.629150871595,-165.663761957109,-175.417675694068,-165.540860641022,-167.308198532743,-155.154321083824,-180.579258433171,-205.211432572593,-189.611085818892,-217.324822818774,-215.00574231024,-198.060381390632,236.198043273644,-4.86883563648893,101.94618601842,75.1225535346603,-274.878315828171,52.6264336017503,-54.0019647993418,-135.325233873077,143.177746335793,-264.641382765296,-458.082700405123,3.2964034804687,-420.092627886647,-317.664336440056,-367.020169367731,-504.861580010191,-859.872709742907,-520.59633650329,-1012.52661348774
-164.288577816706,-291.646643055042,-126.682156829394,-120.63801418846,-182.256267505148,-74.7863665082541,-81.6887107639568,-9.42295704962075,-27.5145280184865,36.4264921819124,80.7909179341173,102.6690377774,75.9321423289534,111.522403577037,255.179896257575,140.140900434997,101.728418282766,264.033467550609,-7.86402550312519,5.68605471012938,25.5415404499322,-119.111636222711,-51.7377211785523,-131.392869700311,-91.2932487643861,-112.831759321626,-117.348066533525,-99.2006956500903,-154.721731392351,-111.10743692825,-118.893693100065,-113.128852287396,-74.1790069750156,-99.484569573199,-110.082967749683,-122.492739193149,-95.7433401068058,-76.9671993566935,-97.9981421075286,-113.552798905693,-118.555052295438,-93.8419271548515,-125.183026048531,-115.004370612749,-86.7603176613184,224.087770732004,167.34318581413,105.059146389408,184.175116879609,-184.103732716722,206.884283259436,74.3210633964314,6.88037186256346,251.866748193574,-114.223197739729,-309.591624499264,110.521590392883,-367.391446432634,-76.5458694337454,-173.051040629191,-329.559519967718,-779.186478043468,-262.284604801633,-801.831661978583
77.3133950984102,-72.2944108158257,87.3094710025281,89.4268450616877,81.1014141622811,154.82303277461,117.819094525436,150.649440433399,149.377923432238,179.650071970995,228.54426586277,216.549256560308,183.193196373714,203.474564875609,297.456994597987,227.879319721796,176.909687698289,349.563921835332,68.6413237167981,81.1472216915747,123.632548661403,9.60600984090945,37.4504185807028,-40.6267062919077,28.0303012921506,-30.1558135525769,-2.31675925829633,11.1976648301026,-78.5656089408704,13.9100796062295,9.72529593482708,23.9809478461745,131.487055424398,6.63853252163488,21.2433582667923,31.1799415583861,82.9358497463176,134.006446605098,25.992686832823,33.816470829648,64.5806196419044,110.546710165013,51.6917758154053,85.3110795754249,135.465330422234,103.105425849026,438.058152901367,45.8164021472994,389.658795311736,-18.2714995388208,412.95747495021,245.846329222813,202.506303805384,418.256625282276,35.2509435227542,-132.118825446575,232.351146167946,-342.070184991518,214.220195128786,48.6393238272276,-205.272960965857,-687.746294453655,69.8559967921166,-525.873059030224
334.838193699399,261.944060243091,236.530073409976,342.613244366476,412.764136962154,288.081539783956,286.731459949965,357.817567802169,275.531558073743,312.17029597751,400.066521299282,300.250972796429,280.93046218062,294.968644893754,332.430676327717,348.049188484939,291.460848644009,440.537596669382,225.803820888945,242.131153027689,288.979322434794,197.437238017811,208.711817132109,147.925923705966,212.80967558079,138.57511476213,171.528830104907,188.482851706434,89.4726752914804,198.441092161066,205.949041355538,251.040913723387,421.427366733413,163.369547757607,210.423616455123,259.397414180765,351.764196541447,431.557626310801,193.208545219443,244.322081678596,317.5656786424,398.923694748297,293.487381886638,358.823849782101,435.633188722206,-123.644051219593,493.164546061023,-101.37163992643,517.345214323534,-8.98920635963333,511.162415610445,319.858417184398,285.977019307964,417.338752325069,145.832318130965,-16.5028587105154,164.772186520423,-314.261693481041,399.695093496022,123.803995799867,-187.279117723761,-491.704947441893,329.225616840982,-213.323771818386
514.338261617299,606.052317130605,239.072139082191,535.183058567324,676.553115970318,235.874406236316,336.488860551358,520.355794725603,285.616642032141,375.558615761937,528.287834818022,296.359065429081,325.133339495265,353.985307132664,289.860487260623,367.992085663277,369.861138841178,419.999001562103,323.218003955316,376.337559674618,384.460827854785,333.842490040594,338.234715272438,319.263565942085,348.695000100956,286.961457537756,308.832682317253,327.11983050134,286.29741833208,344.504317837596,372.362844504478,453.793680338003,624.902584908457,293.533820812812,372.549463301522,444.847701653279,567.997566179385,650.929559027654,334.947409230064,421.140808223691,524.448681514932,626.752628786881,495.795016626331,579.199214364761,671.300635197226,-184.747616290844,188.970204300279,-94.9626527498971,518.112181581318,-194.106044079799,527.554191100688,277.589718329774,302.320454003623,270.401751169856,235.225923311793,73.7057904976619,-36.9781684664553,-153.8568731291,440.238606923941,45.6239514918091,-128.751903494066,-122.973067096546,453.850428742158,129.038347181813
536.199022381297,747.715214222721,135.338101210685,537.776760692841,703.966351441713,47.6938807225693,224.642132993457,495.461050290178,157.169783547557,297.070120984999,481.866059768938,169.646974766766,238.908700661462,293.36651065145,132.629813777744,206.965857797804,331.133771329361,238.130807443527,238.794802014002,357.109505009633,328.824898083328,332.77322296981,294.77165991927,352.920183562582,338.201622071946,288.315236809494,327.039318382553,323.639775329145,378.46676376201,359.957082495935,401.137863024611,489.635135913816,602.238647880127,321.017625483109,406.089019020567,472.507624502699,585.443922428401,640.202340671785,374.762639800423,454.887805225129,556.167736968139,640.096356511421,536.20437386924,608.765657542041,692.416325837087,87.7603075540977,-298.942289020566,170.868622450028,455.348641841306,-424.095111014876,452.698438741066,190.265290043949,365.227148595809,130.557237609609,328.08473857606,130.293506274508,-132.36725561226,76.8611931527046,393.95943860174,-54.9223919036443,29.7386585492747,153.192074643607,444.065656598382,317.495870511264
370.992387110258,593.856844506664,13.5087485789465,312.370552989293,507.72623538962,-136.833068558058,22.0724512359908,292.659175832014,-27.4062405898531,115.931023481664,275.320557493889,-14.0028558295538,54.7595701115055,123.34466133761,-75.496386372078,-34.587451185661,186.050542968267,-10.7569412564084,32.2006918488755,193.814346478881,169.290711457414,195.467336741615,88.1102080937731,215.12283303166,187.213627483787,119.024142728613,220.640323895521,175.026490576143,269.622349366078,238.550471499703,259.420871033346,319.696125209312,366.725182000331,230.595867417252,279.524984981639,319.060781206322,390.654890904088,404.93551981852,281.063506781253,316.472332322361,386.229995516412,425.307082625668,384.154758694563,423.586075892521,477.028820910905,420.220549364514,-649.611216740901,400.601700969832,351.291768173812,-568.066177220769,185.176443339671,85.8827537496965,430.06721548509,56.1870408388963,361.696016818259,91.1334258097247,-28.4304548034696,149.343499644681,304.574458801345,-45.751447758942,116.835945812656,73.8251349079248,313.805981694065,189.411718813682
57.488643467445,287.741826607423,-135.113699885361,-40.7319372190212,273.464419929388,-270.667906282087,-180.914565187568,60.3725830192375,-194.063587596675,-67.4967078396509,56.0918786397835,-182.283262110558,-127.212404086665,-55.9184942674329,-266.404086705213,-243.996656775816,-0.714818833684498,-230.715374857627,-173.333289163765,-17.7642899859107,-17.3481262232313,-13.4338411554137,-143.050503094064,-21.0012417642869,-15.5653672052716,-106.864523276548,48.5849670780199,-26.8676671341687,25.1266470147296,54.3353663001955,32.8975655038331,51.8312564389828,54.8754458905543,74.9897026528166,71.6620836466687,74.2264548107605,106.281115660661,90.4512557148978,104.388497150646,88.1972151412605,121.51961948305,118.865134756761,132.454883495836,138.372943819075,160.796810868609,431.217503173393,-723.172118655116,286.489862617226,161.02769206308,-563.292114693171,-211.14924484391,-66.4380712861085,363.176646962106,-37.6321443400808,212.045819169642,-6.40627407002342,82.1654582547768,-18.5636615242988,163.223592848473,10.1185096052797,-40.954805092787,-189.508054656312,99.4491326070947,-112.296310982512
-272.149130186561,36.2394079409939,-335.173581306106,-335.738934638829,124.228861138849,-390.625115430683,-335.677735052089,-104.882350651283,-332.878458682143,-200.701824401893,-96.0999396730804,-329.983436138962,-264.056109588332,-190.977188173561,-425.068313469457,-394.655398455403,-189.245969328559,-392.176552585014,-333.046600538661,-217.028923648967,-187.274755888241,-223.107872462184,-293.05258789867,-238.869324371651,-192.196439062785,-266.877768901622,-121.757677147156,-193.55331667328,-199.708843064914,-116.296939419447,-161.052757214957,-178.811903488195,-208.671837861577,-74.7330948388706,-113.505892171821,-143.181076169264,-138.686899646804,-169.989734959769,-69.6021114973983,-117.858849293699,-111.410972954876,-140.608844287057,-97.8479092634349,-109.877346562524,-104.99095296806,160.791146424802,-627.745004218086,-53.7097825315274,-80.4635129562607,-390.84311090149,-480.152436824682,-247.796216404354,182.231098921537,-208.727135540422,-86.4078408644053,-53.1893218463706,21.8077238292129,-256.172968774886,-12.0416508537141,-52.405191810461,-329.370733891502,-300.063342892986,-118.231761764618,-296.017241880515
-420.279228314755,-59.0438013464484,-466.340109753754,-398.157742908619,49.4675185799573,-455.676463935415,-373.737310886668,-172.755497928709,-392.970349362789,-246.26824575164,-182.725670531249,-432.357761546026,-334.301244064154,-267.610596493144,-534.549437574696,-476.223489259125,-337.837740775028,-487.467243403198,-442.336653018091,-367.548443380669,-309.52908866454,-371.257795893199,-361.114240847358,-370.807077423215,-313.970047779684,-347.518298336382,-240.102224602866,-297.08629733153,-332.206203085891,-235.380646558474,-279.587876817479,-325.557706693257,-384.940481680491,-175.196849635868,-233.849666074393,-280.915709331642,-300.507268852317,-341.732814739709,-188.004829404033,-248.357456492283,-266.790035412461,-312.730532616801,-251.712285486473,-271.694553929616,-279.885438666382,-50.3772205344905,-490.242629115404,-279.224478589779,-271.413771364881,-132.342748945915,-502.254755133576,-346.677699195728,27.0004759881678,-371.607588129812,-298.362302811151,-10.8895842274762,-126.611118346142,-334.822943913993,-141.160067013942,-200.717835742826,-459.180089457769,-204.040089157328,-238.96500997133,-236.349858151302
-299.182171918618,-9.10768084521538,-376.44346519789,-203.41827010067,32.2862894043553,-380.273001679978,-226.740336728463,-106.868774633204,-288.674655676376,-157.088016545762,-176.899592789401,-423.214551476147,-279.764448613863,-242.221368347072,-562.589936805195,-477.043849860906,-383.92141057239,-512.219293352294,-475.495575740341,-415.467514652165,-357.817893395907,-405.970113608224,-356.875134773277,-415.131011268889,-365.250474694912,-374.292527018164,-273.472044340444,-332.823563359955,-380.86738029855,-282.383439312216,-329.724328896581,-391.3892598768,-467.210927887314,-212.875904989152,-283.662841053807,-339.846991317624,-378.121080791347,-427.710985790675,-235.520650441975,-302.610343789626,-343.409027584149,-399.861028831095,-325.980932665037,-356.78461117692,-377.534793664764,-53.7137961101133,-370.229729249338,-273.089674312935,-423.087000179746,56.2967077908562,-428.740535000777,-294.875142802043,-95.4343088026469,-439.194236150971,-297.066534259979,80.3738414009773,-241.575786112559,-194.16530253531,-178.241398318153,-289.329047123236,-357.419850723254,-31.2038350666947,-234.230078378644,-4.49728483881687
-65.2932946879391,92.0390022966766,-137.858597180305,64.4935127494002,73.2731897298071,-215.988435255579,24.4999467242191,52.5748962033645,-74.1283852178117,19.5066801276867,-74.0590149725528,-320.161324203452,-117.82429277014,-120.660800858571,-506.293687129593,-412.451467956424,-329.535742826334,-458.918870195912,-424.419866282135,-353.800166366278,-326.983845232886,-337.607517454179,-273.798792507729,-391.776127255902,-342.9903326618,-339.119402127309,-228.977522075424,-298.708961494629,-351.175981336892,-255.428050957827,-312.695568312351,-369.153045532774,-443.676370318958,-194.123427782365,-261.375592574562,-322.639974309581,-364.984650238321,-415.122354709815,-218.831530463118,-290.56500130395,-336.023765961163,-393.628506520358,-323.493286796654,-364.663154083833,-388.136396161136,32.5961279148175,-281.602351485469,-160.793478942081,-527.387572864417,118.145158859524,-390.133297848182,-155.036825919268,-274.903701200109,-424.719599894695,-192.533653885318,173.934293976566,-349.01145047286,41.3425592017007,-162.698232334308,-320.201850400461,-187.020109717036,165.995861315897,-171.183177831215,272.377460437264
55.2738060107728,134.159118748499,19.8901917730474,190.059512050821,116.395058618228,-108.259122370022,176.716765682454,158.324159720157,67.5328234793785,133.163281595308,26.8538186013089,-225.834287361536,10.4138441050441,-13.8722944341315,-391.922824499844,-276.676406234941,-275.549533381724,-313.662337011527,-321.363891000822,-262.198630591672,-238.632006181203,-255.210594596769,-165.500017879386,-312.923940022112,-283.8334650841,-254.963486682774,-163.353628539543,-226.226133256268,-258.285007593777,-192.927967726278,-242.180139574337,-274.454885882744,-335.56921397303,-146.383528676841,-195.325428915323,-245.826497349821,-278.223997187293,-315.931411330148,-167.463836311242,-230.577018454251,-263.641274739997,-308.7572430632,-261.430040058139,-298.483303825466,-316.190486071707,84.1592027251202,-154.214464100836,-46.1260540702685,-392.030701746139,146.030440954234,-253.602158204303,4.26796559664423,-369.584779510394,-281.653226049422,-61.2662236582266,238.716699184876,-386.936406142225,238.660486027872,-117.497487700405,-307.37322733868,-7.1789664288293,329.785736824291,-97.918627753943,459.732932393649
33.8273545272857,102.452171351325,30.4411798974808,151.098348102772,99.5259850192447,-82.8085224704618,157.567284653754,135.734813473498,66.941792747616,111.685713031548,42.0956751423971,-181.875826027086,17.3668235971532,-3.53255871322391,-286.661700281986,-61.5091021427879,-306.638914973739,-155.41465361579,-226.872746408419,-232.447464180328,-194.854190283941,-231.587272420723,-131.952920722296,-214.549023706029,-232.514875195301,-177.221928095192,-130.205296305321,-166.192686509423,-147.62940463859,-145.443670066876,-161.221374514304,-159.895906335991,-200.642102375261,-109.54351822326,-135.426472971408,-154.475130664877,-169.605348787671,-189.1468560898,-122.608772778312,-160.846916628283,-175.451572604824,-195.515427626549,-182.153486982102,-198.324159316211,-208.079531500555,71.5272863554565,49.4454122672809,73.3984394596443,16.1893032617614,197.559726756254,141.736733682954,183.212204324761,-99.8942372868838,112.204895092331,149.209194290785,247.229708230311,-146.573409225034,353.980867806598,-10.3494506002564,-136.100972703138,232.411546825942,324.729399780051,-5.31001684784538,425.122988143401
7.21021286615947,80.0330298097211,23.7349564653656,89.7741404300884,58.5025719442696,-46.6583001807283,97.5561156087461,79.5987283705961,31.8727304754266,48.6574557188588,24.9890942118342,-152.517499314449,-23.9655704041279,-35.016850890087,-340.610264254463,122.009703129507,-368.876917157627,-196.172296586709,-216.254060385597,-273.543858223269,-355.082589190334,-222.118502891281,-195.663741310421,-164.783356918448,-178.890280562158,-126.58838239168,-120.517402849464,-121.71939439628,-50.4681636178089,-116.886432149248,-96.9412354535822,-58.5290053460647,-77.3605724724568,-97.3916153245467,-92.568486683465,-77.7304101769141,-74.4937970426926,-81.2426147343929,-97.3378948600832,-107.396207202257,-97.1385413639116,-92.2999195586357,-114.719868057939,-106.882080425196,-104.329205903879,34.1506892390631,218.977618908224,221.771440631621,369.257748052038,216.180361582089,601.361951533114,364.828758634919,401.225195688215,627.747882009638,400.911753679399,212.415361551836,303.353278504094,394.701502501779,109.540892016976,175.299998854046,436.405635260604,171.180320686957,65.0334226167673,178.727183714603
48.5666237472431,109.865839969992,73.4203317345296,101.502690171391,63.3261989267427,32.5085557254438,107.16230165047,90.3063367361468,50.8489520989026,49.191261432472,55.2036723095088,-122.891001560944,-13.8069080458596,-22.2877752310413,-642.348557605311,106.173865260121,-330.777036353442,-509.625675706983,-291.062395566458,-292.141880108783,-646.720608138607,-113.475627194374,-244.959937820951,-169.061943699243,-74.7560677021909,-67.9468509744205,-91.1839054717357,-57.5411416257656,24.1653398347862,-77.9646451565387,-42.1416679513546,19.4889059720323,16.2670205400562,-85.314848381794,-48.0757003738511,-16.5602260383706,-3.48131502999048,-3.3310523434072,-72.4108136945473,-66.4365635411951,-33.9589508366329,-17.1888021103291,-64.5060529088013,-46.0340497288941,-29.3104576580882,50.5920452115273,278.031536637025,389.353140568552,414.881881548841,218.63395607314,726.510269942873,489.811725052849,611.767934687146,846.526512076853,521.340104768355,212.703155662715,528.335905403238,380.658184159619,81.847062001326,359.39002270664,449.091706841417,97.3034575249724,13.5312031619976,-62.800520098507
107.957113549772,137.399186962226,131.088058901409,154.789851112422,103.885186390754,107.851192997232,154.916436946812,142.414358113653,97.2788600367229,101.152438287616,116.580961916736,-96.1606927763093,49.9578581120294,35.8335903179239,-964.288972965119,-113.239298923591,-175.824660199915,-821.583392891133,-324.695540780821,-198.939861299474,-698.859668408114,116.30850451542,-162.316765696913,-139.688775855007,78.187805167901,11.805293178162,-27.7964341341789,26.3864552736551,57.3004043764891,-24.8320546686543,3.65426328054825,52.6874020496081,56.8937777057859,-52.6254793445126,-9.5861718732049,20.6759423359142,30.0082141955142,36.7394518701189,-40.7821600709348,-35.2329264329945,-4.54319714710562,14.4983122786981,-38.3528300965741,-26.0442216107138,-0.941381796158653,132.776070302455,341.055705702911,521.335482653831,293.86443145156,361.85502132843,469.417865413814,528.977131090084,370.148748636179,596.676610600587,420.898720709707,300.438331118198,335.137233007145,319.575071161464,-130.133492320163,255.63956267186,293.544976623281,203.360922544057,-158.230606506061,-114.391941415902
121.807561268476,106.869748751865,148.773144876683,180.558007167975,123.265983153075,148.512214420317,173.911609550866,168.896299955839,116.004357474582,137.947096186636,155.949198780886,-63.1673389704862,100.376211617638,91.2735460905083,-943.128451317131,-383.124891268171,-50.6020237890246,-844.006322996923,-232.718240175405,-42.5723004996417,-384.34525825304,354.570625971277,21.9720554993751,-41.2400545964872,220.979870387157,79.3849321912124,56.9887032331289,99.0304417097108,42.2805523334724,29.8588396190759,33.6265159758576,44.147190691925,58.3943015641263,-6.12102315760919,13.808632153311,32.7672493736347,36.4163601098913,49.3968543348916,-11.3938592139422,-11.3596381309048,-2.30556247849089,18.7426401649546,-26.7690051226974,-20.9379532239096,6.34501762000198,171.377454805678,488.35550558665,536.838329654406,239.415618750431,654.950434415843,208.407593910995,480.810014510148,103.777203246452,216.037650129901,200.301052166235,394.913562143928,62.2023788169185,205.572790356763,-330.521856190542,30.4921061374091,102.906048332678,305.838449155511,-312.152407402388,-39.1000851294236
40.6499462617656,-2.38309233172059,86.0636865161479,114.216351232061,63.4105928237384,112.718991124915,115.254151724838,122.153889485605,59.3560956891466,99.4057205099494,124.433163719755,-65.7726205924909,51.9301163738325,77.1899187515919,-576.344260457961,-603.705634732256,-82.902936487029,-657.253970570174,-141.723227159917,54.1969851796986,-72.5761284636497,484.612945186535,186.985546882885,19.1957658622928,316.938709914732,108.392596489508,137.406374240053,142.720246980126,-1.30368852524161,79.2859534801144,50.9060700591327,24.8596366995099,54.5589493395119,31.5527719329558,32.8561224627854,33.3851325261827,40.476384061978,49.5521839402144,10.0330238411562,9.21070954372011,1.68341555156181,22.8285016136806,-10.6468558208177,-0.203281545094292,24.6214197744217,56.9429723780583,517.315535729223,382.24201257824,193.330795970921,758.212843224757,182.30676719032,290.165018309456,132.138611786575,43.6881081806283,-7.14546533861946,314.97758342449,9.27872784599622,46.4079697914358,-387.163034158024,-119.289783735685,-76.782209617673,192.465756890689,-386.456331962733,-33.911931549825
-159.752771768573,-198.310849845043,-91.4572207227582,-75.3577119895533,-114.375258702571,-45.7450263328342,-50.9280194145915,-35.1016535387396,-101.139152533885,-51.9364284610779,-24.7919624307466,-166.661936470904,-135.558851300776,-70.9422299284457,-181.039329595574,-768.427856378672,-201.252711299603,-490.488034942685,-215.320492732317,89.6638444715828,-48.01974344553,492.949001321284,290.988944594445,-63.0014018132058,375.031034702403,106.234212972958,185.719764790364,159.575213205713,-56.2745174634376,111.826609864677,54.0943084297065,0.058370722980424,30.8438606617673,46.5795887458206,45.2570288963858,23.3494421542892,32.2297520154494,22.524949014929,20.0271832437482,15.4819318244576,0.859463321973602,15.3914798300211,-2.99800660616186,10.6419900405136,29.3321498354643,-169.880540210101,198.464426306903,85.830058731481,-49.8698958123724,370.476440653485,172.581435669142,-76.9420595655498,213.55007433883,-16.4330258558388,-172.77298761663,-1.57006927181506,-0.892077905645138,-104.913563714062,-443.401023047428,-236.798602626414,-264.065668154568,-108.122873621718,-489.539158177577,-166.496475234572
-371.308746531518,-400.76955349733,-289.34390876193,-281.182029661385,-320.02805386675,-233.001191130185,-238.179231199326,-235.520510005437,-276.772703701621,-241.675539337909,-229.449511695554,-289.669203289401,-348.35631693997,-280.5629540441,90.8157142296807,-818.308224174343,-203.678700814427,-338.303749934115,-365.731226416408,171.566390291446,-115.313154820605,441.245165733656,391.083966605401,-204.830048651211,413.859787788614,113.21947303077,211.80605076762,177.903618394641,-85.7727531527234,132.511830310683,55.70650518582,-20.4194979249817,-8.2234601993916,59.605500607136,55.0412216216222,17.88690033204,14.5219762465072,-9.14523444746517,30.7888922688804,15.5894571245227,-7.55393538633654,-0.515028709137607,-11.3810651075436,-3.9006564869991,13.0152984607418,-310.696418176673,-308.722041015456,-205.730660601436,-406.204641736555,-264.77086165106,-65.7159293580051,-442.040425741474,12.0177516883189,-180.786356938448,-271.130046364033,-321.828105157818,-218.527319443508,-149.132043518926,-633.877158806593,-414.38563926014,-399.455718306938,-346.806267270073,-665.880429043805,-288.456453966646
-417.003650634919,-449.112249393551,-329.253171431671,-324.808621213637,-360.418399036216,-271.558602824549,-279.595922332676,-305.396154605763,-304.863415263269,-302.210551754142,-312.368286915968,-271.105589902018,-385.0309809071,-345.029441483772,308.638879679667,-654.062829195345,-26.3749910356787,-75.8468503475995,-358.617899794157,304.31369606249,-9.88446049863649,377.811229783479,495.980630256626,-221.627812414225,429.103136583094,158.161196608877,236.197911629752,219.533936297976,-41.9222945621937,158.420322311107,83.0924521669621,1.38047995976804,-0.441937775470169,89.0074211053713,82.3614133534796,46.3679928397227,27.35736313011,15.918811937019,54.1713661989756,36.0995146605135,8.15177684921624,14.8269454343197,-8.75342374715393,-5.55432267639952,21.4173091305244,-188.524134313948,-622.880836106556,-290.776425137456,-537.935160286921,-619.228319703975,-358.255908566888,-517.347749607676,-359.838674318672,-371.022047233387,-212.226495845943,-350.208765028382,-507.663129875843,-45.5211611284448,-811.028831833773,-570.518622072717,-385.602603961037,-336.432465445328,-763.181466896878,-236.560313278904
-288.156902789721,-299.872902958733,-191.12027752422,-191.916894199401,-186.454315864158,-152.392092255347,-152.957386660772,-185.718763118964,-168.520178842142,-182.244908531877,-196.720418415331,-107.244758777708,-213.904640385313,-183.041745613846,472.101097056307,-329.540651008813,164.070939214167,223.809816846172,-186.547260109523,352.591737842084,175.592273044743,296.399435536092,490.340208676951,-107.605779335076,384.022060117603,185.706381829642,228.068519681527,238.865847034396,40.8840543292171,165.840366988184,117.01117536882,54.0798941893581,54.8962497854979,102.671272860998,107.296337947097,86.0760833339233,64.55845915144,80.0913240454493,65.0179531443339,58.5069694492098,39.4984419640734,54.2533051044507,4.20108769242349,12.5076217261092,54.1259497538432,123.269338726476,-630.672964432424,-126.373014629122,-344.529079637532,-545.885643213083,-417.003150983547,-254.964295275933,-559.796455833129,-408.139093435839,3.64979329176727,-103.699583324509,-593.956733906102,99.8698649278623,-766.943028397764,-589.872840627521,-252.157788580756,-162.787169137254,-665.186095929483,-52.3581307056966
-134.484476823098,-96.13650160445,-23.1896331814303,-29.6421196646161,40.09721397502,-14.9690446640318,4.11557689290976,-1.75678617910456,-2.59706823481732,-0.572652950496924,11.5535341112389,59.7512595428157,-0.665309933107725,69.1490875747505,530.876625880466,-34.2515658127026,224.876367563237,385.864385936377,-59.5857286138649,265.827646886112,210.645736849709,185.332337346454,305.602128986129,-39.678551866684,264.650256060185,119.945949216743,159.958857703922,179.704603181771,64.3712819318691,120.153899283121,101.404648328732,67.922262090545,76.0978588244446,69.8073648321124,82.6898825118465,81.5328520137092,70.4912711918886,100.604919522727,36.6911825069922,39.3112902221737,33.2520078896781,61.7125001115435,-9.69481944740947,8.33927419195414,57.1633753108017,328.385963346028,-503.930061085829,67.2542693900444,-89.4107638402992,-313.085778672341,-332.654727909194,103.814572639398,-543.25302911999,-354.08290385569,232.663030989048,174.296755213585,-498.85409217264,176.234275224284,-545.511092493778,-503.84915255279,-128.734952554928,-19.1471035826853,-466.966321664167,99.3060385130445
-44.5625489550349,12.0460727876983,84.7384970779766,68.041407204873,156.904192283375,87.0954193643338,108.257954853324,129.819370754661,122.832635813324,140.887960088961,178.745291159793,183.306572267524,151.872366973625,265.946932932067,567.29306288014,155.497630396415,246.157915517916,442.272561378933,-17.6189811886289,183.968654081561,130.12008690507,80.6838190181182,86.951930846427,-57.2659191165762,130.871501345138,1.30062062740786,72.9895955773674,74.9796998032222,2.45509465643272,43.6373941584594,28.1945419748888,10.7156608444408,19.0997236847506,12.5026290151231,12.1550306775514,22.4436789520326,21.0599441487213,45.4195710922022,-16.0740917914054,-19.6704021349538,-24.6720540698717,10.9811609054839,-60.8330020756038,-40.3304496019586,8.6150509242385,239.738551549847,-364.174137421236,58.4227996899366,-7.99342950118004,-133.572180189723,-377.409278454144,353.172380949449,-538.747327868845,-365.406720693799,385.534440840843,384.827992603329,-440.518423249475,246.734747866539,-339.575239120515,-400.048640222075,-51.3512230099122,69.6456214640259,-305.394514565504,154.870649750603
-2.07579830918793,11.0437205211311,156.728597133315,109.320929793392,137.460211016834,192.813982361073,180.791779723182,198.418220663564,235.696786751059,240.745196797492,252.579360268647,313.814601062018,277.095592884339,378.401892720608,659.080751040964,301.934226509926,368.01990009462,537.168285008183,104.671460428948,214.362881187928,123.870337596155,15.1112400861548,10.5585346148029,-4.81560636521908,45.214681665508,-69.8998436466132,10.1216536406149,-6.58107914651807,-76.3131565176838,-18.9069706281217,-53.490806229464,-73.8328168965037,-75.1695505119427,-35.497460066406,-54.0676997263155,-53.1351420102233,-58.6659763126573,-47.9279134506333,-64.3084852843142,-79.9570583583355,-94.2971323699629,-72.0699729922624,-120.983790112253,-114.841503715874,-69.4100293310459,-16.1817663383069,-210.339238531583,-108.049290785799,-56.3112621466211,5.31314566395485,-528.401175488627,520.258638675105,-597.698899712993,-399.274180462769,523.092858005189,636.580250501513,-462.305207994639,442.005361315941,-196.160045997178,-275.040904811464,72.7340500337011,206.83856198439,-177.281264565493,183.604722077502
9.98190763484436,-31.0183874734731,200.664246539533,107.536845448576,37.9514503399811,275.249809204937,220.049162521101,212.633147066139,302.911887803561,293.13213619893,233.808728431255,395.932798429414,348.80908197699,399.976223709678,650.832405769425,369.338643160696,492.220700797386,589.836494947282,267.774562632181,233.700535365131,148.331462318505,-49.642265563939,13.6223149068857,129.261881764251,-14.4217812161957,-93.2429735487959,-39.4589658153098,-61.3472318478518,-114.175400346506,-57.1457228321832,-103.423534841793,-123.479619238008,-135.289723081714,-61.795380565268,-87.5005028590272,-103.26223243606,-122.200527651994,-115.712905460482,-90.9014181234556,-111.657778211034,-131.436753647138,-132.828036240082,-151.744672250734,-166.931610196114,-131.908665371727,-197.757859020709,-68.1827462539871,-223.269577272277,-78.9186631562196,151.329237987048,-549.025573636137,696.926915183868,-511.074107491002,-306.631954154919,699.482808971089,990.376585605978,-411.372076906951,738.197505167991,-15.8958221322533,-73.0157370750133,295.416340707022,413.689485619772,-18.3051082532815,251.885696099368
-16.7518049562592,-78.2254132014385,178.550945175177,60.8545401763065,-92.8150509588301,255.62294721289,179.223577217982,150.329163579146,228.572880758157,243.206757237567,120.198320216839,293.849257761435,250.226192255995,279.159191731772,342.606617448505,226.067053740883,387.449869393108,397.784247582265,188.652378174306,78.522894700008,7.19917056165405,-158.96400127536,-76.9712066487022,138.518988080804,-99.7120643035135,-133.750762822303,-89.6504326869766,-116.903833579633,-118.318716210185,-78.8979524816134,-120.40641047647,-121.875760679472,-127.776580905549,-65.4117650743815,-96.8478901252219,-112.233714183217,-135.945414137779,-118.833309052808,-88.1933796013349,-107.540342734033,-123.290042310138,-133.487417549294,-131.144735872889,-156.547990692882,-137.556091788644,-230.908870722557,-3.94612540739918,-220.991653442655,-51.8126177839257,260.59717741535,-398.429893974825,828.779878870062,-211.222949090161,-101.625644878791,838.187567942471,1292.13880212015,-225.564066265638,960.321692718235,212.25834909898,180.871551419365,522.23281451145,588.462874740623,158.776544837264,336.199617738804
-72.8978645050248,-137.996578648509,101.444323409853,-6.67846499694713,-232.939098969564,155.247653368528,77.9055062149904,19.8187004406221,45.3988245438848,99.1444176821167,-67.2329929555868,51.5519899940828,12.05431824111,38.4871524250946,-119.388499509763,-35.5999717204087,66.764773667819,67.8921179139235,-121.431181837327,-162.799624340816,-209.839947131428,-273.278835743837,-220.478273536037,-4.28422365078609,-205.528913147651,-161.665598342572,-130.091969606644,-157.941471462991,-101.191945564898,-88.2125498434749,-110.846568704786,-91.3587003192027,-76.6921994989132,-55.9737143119594,-92.6644058462535,-89.6963415335101,-104.943600742862,-79.0109591370455,-64.9802599767479,-77.1085854928205,-86.3794372247503,-91.3502408481473,-76.2342433840836,-100.724169595648,-96.1579685214256,-206.654570376299,-34.1316788269137,-205.990192722104,-71.0801719301568,267.511125082806,-266.583371442234,777.134976229841,42.8256060584114,29.8338557536037,810.314425618505,1307.66687575967,-45.104996877086,949.353131789673,369.005814387213,355.464187506798,604.749385955953,606.269188854411,288.36091686836,362.659007749141
-115.50020621989,-193.44200915423,56.3693087628388,-42.4951934348902,-336.33671527771,109.271388965442,34.5171307768576,-90.8109084467822,-47.3362388775526,0.350660665982167,-212.173475276417,-73.5143360168158,-118.253632441559,-131.587593299877,-340.119572508734,-78.1993128675524,-188.883592269601,-29.9386393133794,-230.085447662208,-252.03506921156,-174.712228115461,-316.483955906134,-204.541526918382,-15.1640639543264,-300.018657229754,-62.5636267117072,-153.069016239435,-144.611744908157,-23.9246078092324,-85.2500885184794,-61.1181025824372,-31.2895498592984,-11.4145625418391,-42.886300420002,-67.9026250942587,-40.0443785486979,-43.5272690027324,-28.7541425477459,-36.3556263374577,-30.6581150763088,-31.9402848491018,-37.3186329684313,-16.8961372253919,-38.6273254280118,-43.1533918267312,-201.886771950818,-119.555703461484,-261.179141452486,-177.088523383663,188.880424616488,-281.255208370008,500.472535706099,10.0344850875343,-50.560769729666,570.620685860102,966.021862109259,-23.5351990156574,654.874012468482,388.003795231581,343.857070809963,493.858094035777,414.036516557674,348.060249525605,302.003668973925
-95.1405028500497,-185.779540763898,114.328607944769,-4.55147282567358,-323.997000666106,206.702126086735,135.052679290559,-80.2589078488172,79.1493174311922,73.5149828380499,-181.832193090935,60.2859373971712,19.770440629039,-61.5919472275766,-195.683159047764,217.262780765942,-209.590624903916,200.818983821287,74.4736251724458,-132.48887967908,160.392822319583,-264.008971315706,7.73439093503305,257.537848568068,-347.633455356613,172.34657270691,-141.613436299306,-65.616379685325,142.817036006291,-52.8313849452738,38.9253644407294,85.2312545486824,77.8692055976175,-11.4222029301516,-5.69690222092468,47.3198370678527,54.6923096885913,48.3683616883221,8.35889339799243,37.3064963959209,50.9624926809797,41.1488200912679,52.2238187380278,34.4930677029123,28.7539168570609,-229.657495698671,-235.634504080667,-399.461765193546,-345.621517080195,76.1522636780034,-391.707786773101,14.10884219443,-215.747358575578,-296.872818110327,153.545608991877,349.822104954877,-139.535598030513,108.210157083462,336.781307305836,192.084439287458,262.305007021588,54.6581499322745,372.354603587739,189.718934443994
1.52054662606109,-79.0214277505335,256.566365873444,101.539751379115,-173.658292476829,388.408448110913,321.567504821576,55.4050038215688,316.860721671035,260.680166155569,0.048121960924929,287.801411590124,275.753853040945,165.818837048151,36.7929714249603,533.450567511985,-95.509670510184,440.528694103816,466.112508731434,32.2324849138424,467.623789317926,-133.024315455821,194.756594582404,559.182671463507,-279.759505182297,364.222724276651,-60.745599288457,48.2417630635152,328.118626286536,30.9892123354205,161.068286869279,239.639553057279,205.628873389215,60.6008769607353,96.8199128629798,164.61282089834,184.595644935189,176.064742336414,90.0919248040638,135.765868635787,167.324698622398,165.68866450454,152.898027027129,143.520835896346,147.193455902052,-317.079800566088,-407.133320355029,-644.71685369185,-613.679229430457,-134.993181795304,-498.413021516422,-754.589646280444,-373.492491247734,-555.466817373313,-437.035049780445,-524.5766765846,-247.501220141735,-658.995308964029,309.031202388937,45.7842289021825,-38.127389570486,-429.064597503821,395.814450130198,42.8441721994406
122.444396731788,75.1252111762605,389.084553938685,213.038456926298,23.8232373488114,512.952513833342,449.500152365794,207.908118050181,454.099381465679,379.002160478529,166.680014111226,373.062328134775,388.532957432746,315.589662182553,91.0428739766686,536.967668196379,-2.97005937836848,419.652363213352,579.130375982277,102.087425521064,493.061509813143,38.3321076566901,189.515758836209,564.31730699796,-84.7465937240713,338.802921215901,77.3275887719761,142.372914998067,404.307624462716,142.973754493706,247.968504358872,349.424237370547,335.513320162748,155.277583118326,201.963479489894,266.014744507025,299.613987573718,316.801707347124,184.697869990963,236.400667668827,282.320959304092,299.408796446392,264.714076102484,264.801061178003,283.243958520565,-492.600705374992,-676.845170931054,-978.518544216368,-1013.46467147949,-627.238484486373,-568.170315704441,-1788.90411723763,-384.420018828023,-736.66145800191,-1201.32054659279,-1671.89967876523,-279.320621918219,-1643.19962859854,302.689117623906,-40.4790068969508,-481.02280776671,-1032.71771054306,398.80934334993,-179.453404244348
158.282275054026,146.628200740183,387.470031349434,226.084060571397,114.988475565748,463.244453910932,398.349856812172,233.060971895197,374.40958458998,301.195390243506,166.253722043972,261.874817060012,266.046515989625,247.631793179766,-20.2605461470829,280.780053845745,12.815186788747,219.175552303565,411.95619031847,81.7520457380551,307.51541004869,174.979139525998,80.4970141253674,268.829255437907,108.339287996893,147.537979207982,184.854795273062,175.619433397008,325.264532424372,213.429137439693,255.077124843379,342.100201377704,377.044565881332,211.72876933368,244.420301107834,292.377237591755,330.249071803457,371.148579860878,228.582262947799,272.796350391498,323.873208577739,350.376440657616,317.813733142976,319.055686174308,339.798283936151,-659.413138886704,-1027.22643399343,-1194.56812876232,-1406.38842560025,-1467.06112236207,-611.307224418216,-2714.74553582897,-373.292477704253,-867.458016044954,-1962.32664443638,-2811.44153521719,-306.359472517163,-2658.43699827324,229.279620144178,-154.123671926149,-1078.15115304364,-1555.33408036813,314.704010204149,-457.374754180929
38.0571373457359,42.3745957098539,192.918494690386,73.3128288441543,-5.47791367846007,229.118068255898,151.579115636478,58.1787989912832,118.714423113804,43.9163396269633,-36.9133463327294,51.993713322047,7.54861798468672,-2.04144411874136,-146.302623246592,31.2157553615265,-33.0313896042517,43.2991683511166,160.017665549703,27.0524936536998,107.057263434977,209.654017599419,9.73184215119291,-59.4765198585085,172.831974163685,-26.5158954410396,191.001328598509,145.620450014812,167.69485069409,192.688579746586,181.072074866301,217.198579874118,257.047220082026,186.39060619765,192.278250675977,216.889909355167,233.908133227612,260.168619856341,190.372570413265,210.875256477344,244.628434659682,253.525277488055,261.924984925478,248.795841175055,242.043634463858,-610.063500811292,-1289.80589078827,-1014.59389612629,-1552.40843962183,-2285.51524828346,-589.277234024117,-3025.33461635741,-390.488758296714,-948.503524531138,-2356.67194207162,-3337.76860208638,-357.316700901084,-3117.54114947483,59.4023365401451,-313.818339859016,-1504.4367091456,-1556.12798768153,131.716657298731,-604.20184657115
-153.818116411576,-171.405333571013,-72.5302560917151,-164.396648353353,-271.698900233048,-44.7288748020778,-143.193934843018,-219.550631864899,-141.634170627489,-231.595609808462,-318.08309666784,-124.475075602331,-208.086183311593,-257.535307816807,-192.103296826074,-84.6863278647087,-111.318637354758,-47.9238915802589,-28.9596295440799,-50.6272664681271,-26.922454155421,140.762531353957,-47.4644176465895,-209.245829360012,114.693825259553,-128.733827267829,109.085236037508,65.6162900004481,20.521173279348,89.5341125312211,55.0212998333131,30.8057519680407,8.1407532504602,90.8589280234785,73.3475291505089,65.1877633865385,37.5966721174291,18.2331177931796,91.5690021892363,83.217420003296,76.6148321609024,40.6259552042848,123.112925314728,84.0482928998434,27.0405092310536,-292.282550601065,-1213.77963529322,-472.857683489136,-1328.43130083197,-2335.51364728544,-446.159113238205,-2544.38093827157,-328.150485305126,-874.63255287143,-2148.45887255332,-2822.3738842068,-314.247397831294,-2509.91117646763,-101.444650447801,-352.053701033352,-1333.23973431249,-909.222543293533,-42.3603899479222,-445.63440922964
-261.674766473528,-344.707644390756,-204.332017939267,-317.202377586618,-478.966713747132,-175.435724915278,-285.462684506713,-399.041779635829,-245.447077007306,-341.475771158373,-469.926892587818,-191.25618840719,-266.095188655666,-340.184356725927,-168.175518277236,-112.554248303123,-209.041585756279,-103.603347700799,-107.05075445058,-169.550739047055,-133.47649290301,0.200386361637164,-180.207569442149,-217.301943081502,-1.2477710308044,-230.006558411865,-14.8398255371366,-54.8288185899062,-106.090484696939,-53.2331673724848,-93.0819958089011,-157.859936078365,-251.677292004997,-36.6258659882975,-68.4285121132314,-111.481493014908,-181.214743357179,-235.137980023178,-35.2402298333832,-64.056518885134,-109.760596681139,-190.221827657842,-38.6944226051384,-97.7278151071121,-201.622417461658,47.0559813669154,-736.478082755044,31.9335222891732,-830.614739228243,-1295.46717105442,-238.471043222608,-1538.37806451365,-150.783592080107,-594.732852809684,-1496.34473976342,-1513.4808707554,-100.578654090164,-1189.26321392781,-153.145243056937,-157.465002762791,-630.425549327893,-93.618558542284,-100.329284017092,-90.3363758288342
-261.263560174733,-426.208029084397,-166.151486430335,-334.646025006829,-512.881516198828,-141.411802909513,-251.926357157303,-404.981283460758,-208.971916428104,-283.363772026481,-427.435234052979,-183.157501483641,-222.299813961657,-265.70731365513,-136.563517156154,-113.069693746857,-313.729721459264,-137.90318146198,-110.58512486942,-303.508306164056,-236.109683980365,-165.762640022282,-356.8795835853,-226.605127191674,-117.61997433454,-330.366798141431,-142.876157054293,-181.239158273229,-231.285419186693,-183.551298821952,-227.216342289339,-308.508530388719,-424.517992845559,-156.268191167053,-198.757266585869,-259.966843972239,-349.379939873738,-405.859460898754,-156.148225777753,-198.902223784492,-262.944734161218,-356.899390285758,-183.256612060241,-241.439853264819,-369.622906720843,107.915557952535,-98.0998238492135,173.787344835456,-324.139183114989,111.969219605738,-87.7676760266921,-514.34304916696,7.87174673630276,-235.192385474066,-788.564091271013,-227.772790667643,167.117248363364,-89.0413666922708,-130.216980699875,122.955171234207,47.7338963382818,396.679956362232,-71.9974322948599,180.909087996007
-236.220316793239,-449.93154487418,-93.6169396759833,-294.269310557238,-437.923897264107,-59.5107019537147,-171.009314232106,-336.382711663593,-148.417071667492,-207.967049689396,-314.381728666511,-162.326973446656,-188.07765349799,-193.103125810894,-115.696310307628,-89.0300461494664,-375.344832937705,-113.202200565497,-99.4799937290943,-367.659550911767,-285.534562709622,-272.171503075787,-463.134562289745,-264.736600399645,-176.107511058763,-355.354439363468,-229.911125669366,-258.181207682152,-332.493616388509,-256.536503814484,-304.284602209342,-391.283739273154,-485.311438632725,-231.989563016738,-282.264083643712,-338.738180387781,-429.540053985266,-470.964204581057,-235.746092532235,-285.468453908947,-349.780833958713,-431.770299848541,-279.08789163629,-322.262280001336,-447.850356891456,-145.646847960412,396.066231937507,-13.0601396701515,-60.6127634817219,886.17685835337,-23.6975246833615,82.4780032082151,30.0676416346947,-0.391657942750573,-310.710994695178,366.866179704942,302.651030583382,333.183505254187,-119.593937129266,264.577737456519,306.589863119882,560.529127868982,-52.4962404737194,265.113521075219
-188.189597814719,-398.822271494717,-54.0769822687388,-211.021973580548,-322.142048698972,10.7483377828953,-92.5853721373263,-261.910392692448,-81.8916245815463,-172.381037202889,-216.768110486965,-107.003617931715,-149.078494493539,-169.588627906646,-57.3071877943968,-16.580918348936,-329.675778268701,-17.3916515083989,-72.6413751464894,-302.163930296474,-233.804997163258,-249.542580659897,-434.361641475745,-247.376844056304,-138.975657048707,-277.966531866944,-233.798267066332,-253.226111870481,-354.046771520887,-252.020553992782,-298.809225970342,-385.439145609384,-453.151581734567,-241.909310503743,-288.189304693149,-334.513885477195,-416.879291993871,-445.016577841359,-253.788991256617,-292.613368333207,-350.380041961139,-418.772506257891,-295.52009938876,-324.901563740164,-432.861715575503,-456.379358287915,634.652925896192,-249.097996017296,-74.5471923109386,901.465809270581,12.5600302889665,195.976456951126,-49.7687906803695,19.2779317484034,-133.334981879016,351.296478163333,245.614601027045,351.350328605464,-129.313967484668,230.546829968194,256.301708009595,645.881017718821,-45.6523333007587,297.304704604005
-29.7769586501202,-227.335992530272,29.9666067835031,-28.8050569430155,-152.663600115193,106.47006586412,27.8216832097437,-151.454509189363,38.0021596440112,-110.41642607869,-100.610737894094,16.7720080629069,-41.3407079361682,-115.64807065792,65.8573886174336,104.150241040012,-172.730295190317,117.808686214165,17.3144843061536,-138.035013979354,-88.1559643326942,-123.081068301223,-277.867594620718,-109.249234265894,-24.6239314660616,-112.038824272619,-154.732850596065,-166.122890126147,-253.954477667481,-175.541026307068,-209.928092947976,-283.92459367044,-343.222992990329,-184.012698358937,-210.088774409683,-250.465317634003,-316.930963294929,-341.085841880019,-201.737502409372,-215.191941258318,-263.389139035023,-322.10033639106,-222.376041886108,-243.752292867082,-336.56479326376,-556.487322030088,708.915712552008,-266.613147733482,-177.536770720445,733.349406164282,64.2259750687977,174.413643437124,-107.496351997286,-39.4933312784673,-112.166238069312,277.998334987627,123.579649024366,375.986988257734,-87.9169944950874,178.83156094914,229.395278501576,770.564598721721,33.9883370092944,412.600535046673
237.730583961834,19.286481893657,199.844692342597,208.740891071413,52.0575839371092,223.894939565488,166.105890157845,-12.5248537854933,173.661691417177,-19.0899745791069,39.0008587532225,149.693608076621,89.5328580649601,-16.9837537137051,204.655233150418,240.21870526949,13.1316251519613,264.224551433064,165.615479495299,38.5137390009804,117.825834149244,1.67546135111461,-37.7185159768756,140.318102461574,60.5307014217303,130.703477861746,-59.8898731105349,-34.9697197858655,-48.0567305480743,-67.40170354565,-66.9467283600145,-106.492146208138,-167.079938512864,-91.7142958585186,-87.0616221989362,-105.073998084039,-152.847847091013,-178.51379006855,-99.283717151561,-86.0648072027812,-117.898957358496,-164.158146950834,-88.7479945998974,-105.030095909994,-187.301108585712,-442.407083865215,779.110008142538,-35.3588654497666,-141.809537676257,714.109049307663,136.234152946861,300.825421137806,-59.5513367552476,24.9877002765024,-20.1871677293768,351.977372692713,117.813460582992,513.634338182172,49.0153227562771,251.084773639605,382.549455866745,876.451896377477,214.784164724744,578.269547616532
464.390794387997,225.230586354606,343.377320306636,360.056116937198,221.086879311937,274.238574341178,225.882857013476,98.118677682242,230.547067326965,31.330077902007,155.413727861508,211.414802990262,157.302879390138,68.6654334975719,298.903763318797,345.632685081891,135.628667426678,392.508868129035,288.966989816377,163.052878807956,332.78864233099,28.6777007707661,218.188380928186,426.569358940325,-22.107601596113,404.921404325632,-39.0204013056522,61.6016454666085,179.411287577092,0.973924654274057,68.114614777776,82.9516477532886,24.0031492589463,-29.4474613446357,7.08017309729682,40.0306268800749,9.61640096426687,-13.6759691328076,-11.7145850524623,27.9057967967643,17.435718466506,-8.09171165427739,36.4975475545161,27.9161234210947,-41.4981841512961,-268.076330887927,899.750444015356,224.047545442574,85.5080020472248,708.471235066288,214.383536022559,430.742345405743,63.4053933449831,168.23674897456,129.138684897706,251.575570735941,234.355691770904,594.755039687417,213.118755804313,398.042922815667,581.35803726555,855.467205602522,393.293706394716,652.038331794909
520.519037580946,325.718019056126,341.414458875361,364.786799384495,323.148419570739,218.105293217851,182.027845489593,173.395454340648,193.431057088553,38.200212311415,239.942556655458,211.625676733603,166.56582178513,128.899166833921,334.635699853676,368.705562121329,180.331511076205,432.097159384646,306.031017314019,219.72922884124,455.563304804655,-29.1160218103433,389.696686562223,621.927573010448,-225.885348720557,594.243067066251,-93.1252022140097,73.0756122831044,321.382203498504,-1.45392671459498,140.123906059543,201.273088347752,150.863368506341,-24.8277221793872,33.1893385920443,112.81302912765,99.9830926178914,85.0467391469198,13.7143202129211,74.3748506007059,81.2860455113134,84.2271112297344,92.0935631731028,99.1044181903796,44.8488630366865,-113.109449020073,912.800710559119,253.107978803594,311.28624917729,538.487583172348,214.538468554774,262.135295657173,153.972793835544,158.123443219829,101.318993878681,-186.977426122333,302.938616811636,451.692905932806,285.272709016329,459.699203688272,614.331793533692,687.146904496743,443.221239043847,554.733784301075
444.881481176404,326.747737448929,239.028587242644,288.427709425422,357.865391162255,141.636182963771,102.803252189072,216.927307987867,130.318035594652,42.7311988399569,279.432295452878,209.660881507713,155.322704540919,159.907733356227,317.942261885807,284.088676074377,187.151628458741,339.037529946035,209.701622930953,212.45333288172,391.665613838336,-66.9697574097916,369.726989152914,609.507676218229,-301.754708094642,549.844144512863,-128.019373681053,23.3548828610199,313.474160362259,-29.0951737382817,132.761558090554,206.078515889108,173.552339888252,-38.8658336705715,17.3229707303958,100.475863278068,103.534953576707,96.8533324933208,-0.315430438603038,61.3574788806604,74.3557879484775,99.5035667450669,79.9602534743346,105.712768757907,64.9179355491392,-16.696989081299,656.095764512572,-32.015775388278,341.831889009541,225.680610827476,27.7998572335631,-154.170456210823,147.960022483291,-21.3084564661577,-90.7766205673948,-577.454836737553,250.591610822959,168.630181101415,248.702261939537,398.753200560646,475.296264161846,465.621569510322,368.957503209276,348.129251999047
341.658440747983,233.268526001865,142.101193280762,182.804752878192,293.22062534951,110.938997453853,15.1941498331983,170.402408322366,62.8541044517911,0.577757384987251,209.354016738194,196.633293615774,88.2761212819591,93.765708860885,257.961719852153,148.04862924649,162.401448163717,194.120677804159,59.1932870870788,139.067973073758,175.766037735004,-58.0216580021541,151.470390046271,390.604339729232,-181.646187196788,234.20636873408,-117.659041311346,-60.9588861730619,162.110667223894,-57.466252309184,46.7207788643202,108.287152274734,94.0163436826367,-52.0932328085023,-22.6314399882316,27.3252378386309,36.4454538841993,32.0865451338583,-28.5879218756782,13.648290990298,20.88621155958,44.4833704105591,31.6139635919731,65.3667458786986,29.0204764066066,-20.69658240406,245.292034107138,-440.315513751519,255.923750882597,-123.82918405041,-246.915075167277,-415.428126813942,84.5619411419072,-109.725036680179,-132.622153410262,-546.989430512396,182.820869776557,-6.79013653668804,190.913824295932,329.549800497671,334.105299428982,240.372753201281,281.517028437184,117.252412178153
232.925823427042,67.2252303904319,47.6034288471954,41.5559289687896,127.327962211041,58.0310864498381,-118.096250843364,11.3694364210008,-51.2285243975977,-147.976354937567,23.1457252114715,113.749188014754,-66.7153554093565,-96.1521408597046,200.601188164561,83.3743419161549,85.4321780363413,124.693660892486,-48.0926643488598,19.182568844245,-30.3901558147696,-93.4844020615607,-114.175234967941,102.877555678523,-95.4015263975771,-159.346075063856,-144.813798180625,-177.683169615248,-56.5637348695497,-123.123994005284,-97.3336801915499,-50.6704333779231,-64.9096202318107,-100.495878217063,-102.932390681775,-88.9004917905528,-86.7662926629822,-102.466818726814,-89.2563820915077,-71.5175584660058,-74.9294457926291,-75.8690998843212,-49.8892164596981,-24.8341511303263,-71.8328482487943,-69.7618653181161,-81.4772228101181,-614.380677640709,246.14084552479,-469.715451986478,-305.968197985841,-294.055829698544,33.4144538356017,35.5734739239787,79.1118197212989,-297.544822041552,136.87962063898,-4.82859227698723,144.812830830469,301.564949732549,274.990736680385,-53.8335741239802,230.683862943812,-133.623953429043
117.770128445633,-71.4356494034254,-77.2289296560526,-97.9979806858098,-38.6655344459162,-79.1420990329698,-265.565774601344,-157.84433379383,-192.48495573162,-318.547181899073,-169.57110040822,-14.1087425543759,-221.356707854408,-295.323110395292,225.540538755654,157.657746256802,-8.44690584304667,142.929249506426,-19.750700801497,-77.3773304050537,-86.685630207547,-202.351641983763,-257.836106952451,-100.226811981845,-166.181266908874,-370.756741245685,-229.170239824695,-281.367584790512,-232.930857179486,-218.441758781491,-232.415001202754,-203.99891508229,-232.827486957645,-183.859941517161,-203.031837298823,-208.322867457959,-219.588040053394,-259.132844587436,-176.758147278429,-177.063695929261,-189.554192426904,-216.17521698642,-156.249858550396,-146.452626485248,-206.19320977284,-64.0976990886217,-238.006905878912,-406.859184667266,328.226841859659,-732.49398695921,-54.7229874633688,35.5860995780563,1.71271705530203,243.078307721846,312.316996628201,-187.119411555382,13.776298627449,30.8741202835533,61.7771405749562,208.576686239574,239.8424121223,-372.246245747823,161.049501101942,-373.717200870929
49.1601652963488,-91.8457821162796,-176.668739871356,-156.947515538468,-101.439473427621,-225.361719213288,-326.467740230628,-225.503926348445,-272.693503487445,-369.785112067081,-262.036924658047,-88.0821156823355,-258.918297522641,-367.185936152517,342.538018548203,277.33923883244,-47.0209394241799,145.58644967741,137.105592142146,-100.209654951942,2.007285273626,-302.625668048733,-262.431613152813,-172.161606325398,-258.804477929475,-366.958161854525,-287.589826085754,-314.302122915894,-307.562907138993,-275.673980779261,-294.30244083254,-288.663330143135,-321.40612119774,-240.07402795299,-265.391420335711,-276.958191543739,-295.687790228305,-348.018082866529,-236.453139646966,-247.869592553957,-268.014842975196,-300.77850010713,-236.243758486522,-236.281727565009,-289.713702916623,-27.544841715347,-216.918490796631,-73.1762006715358,409.83821844781,-670.571476018674,204.955118596314,366.192273042878,-59.5753466628683,284.67551906434,425.318350577378,-113.443464596289,-193.231105755148,60.0566815260184,-51.9961926149713,-19.0439802097112,189.557206762717,-463.335423684356,43.5098470600443,-469.508832038718
49.4059686129611,-37.1929655074676,-197.592460419413,-130.689834505093,-74.0423171028859,-282.347223996494,-283.209440496551,-195.440606302336,-263.33136784446,-298.095972658063,-244.67019916379,-84.1097675362305,-190.838954255149,-307.752356029368,419.913889822671,272.354589755637,-25.7982644481641,60.6338310953741,299.812174177611,-103.849884964246,111.693512766438,-360.167871436977,-232.87625864441,-167.709131648328,-274.945953289159,-305.302814439635,-279.662598788976,-289.137844926356,-297.023061896808,-265.650617980924,-282.050131712994,-289.957065196116,-305.572946840816,-230.081696672883,-262.562823733973,-278.655682644704,-291.113504218632,-327.239839369599,-232.282404992191,-248.631777037193,-275.034179391096,-294.394359651002,-244.738294719199,-247.561133074728,-277.555940169663,-52.7061551673539,-30.3601111672491,107.71640630108,472.023955632484,-177.261595711479,200.451540688698,662.454259060422,-153.325889107179,156.656689782378,485.874044340413,171.669565655071,-345.766747630621,167.901116202293,-112.309470484061,-255.210022871816,136.213663915311,-220.278165416171,-60.8915332926754,-361.624874682463
51.2707818405011,-22.4636240985776,-188.687038496107,-100.762248648411,-35.0908562246904,-270.416384777955,-227.709076022702,-143.612244262419,-228.660634800191,-215.088394162957,-170.373815318139,-80.0717060760624,-128.07335072717,-216.368165375736,305.003160670187,97.5330903241751,-15.0908898006212,-76.5645660966497,351.530033801734,-188.823968150383,118.407329023291,-436.572365705679,-256.666176429517,-166.30417870444,-273.302681216438,-279.218774354047,-252.401381947377,-255.430498582033,-241.26913925172,-223.886514889832,-236.961907613779,-237.096890405595,-230.963178860583,-182.016211715628,-214.909554759908,-233.41061993566,-232.700104596791,-238.129329286629,-187.354735525164,-197.681979571978,-221.435141779399,-222.347417356818,-194.607053235938,-195.312620740583,-203.331700126359,-122.761733180574,182.895190432771,157.343391797473,527.432740189468,392.254317854801,40.3344522674129,832.906028416061,-180.411828208759,22.8991389382352,492.766347165679,492.729976140592,-339.728353389908,279.07514279563,-67.7789055068643,-328.28640260218,50.746629406735,76.8632694510306,-93.9471143231051,-196.700107899435
3.76459210195509,-71.5750942926983,-211.141767302621,-115.62652174829,-17.6591484713538,-264.93936385966,-219.689949749546,-112.453248916626,-223.842549273062,-182.656349810569,-84.4277736435234,-124.694499047147,-127.697757081256,-151.723513645499,14.7285962701856,-113.471904939046,-46.1724847095917,-185.480926441761,283.729263456393,-347.991093440622,-1.88499105747088,-545.331054557275,-331.022314933092,-213.043442755113,-297.464342120649,-265.767956034091,-244.275869707765,-226.193294300953,-174.133946117809,-188.471883453585,-189.875758425218,-166.828796744459,-153.315140606027,-142.326516823901,-160.109951844002,-168.597277731426,-159.983423317645,-145.039829078271,-142.331188406812,-138.541854008285,-143.692676075399,-134.416455235511,-127.906612550496,-123.180025181496,-121.007445137886,-167.448198124073,275.379966369033,172.880997878457,545.080289539461,553.933759097357,-45.2111537279686,740.08267989749,-65.9957148294915,-12.31574099896,383.412858482966,523.613198589759,-189.430007719144,239.644345167988,46.8783051344873,-241.076575208693,-84.7099868432335,120.039780149316,-64.9124146318659,-135.470857162114
-48.5308849858593,-107.257661716612,-242.033437120309,-136.939660737134,-1.95264231648484,-278.103062308487,-226.189971829436,-88.5031607623384,-233.094818396353,-166.372922668099,-0.0848731820960171,-173.344620951249,-141.369850326296,-87.1706935299725,-275.645605402507,-201.428402928082,-68.8592175734497,-217.60780028841,170.869109093021,-445.807825707203,-152.878463286502,-585.347146155817,-376.014504105739,-285.041571121389,-301.716914943253,-226.482916592588,-231.784854286083,-182.96066046341,-121.19722108009,-154.52980102024,-142.147048476246,-108.083513002762,-98.6263961654816,-113.460648819816,-114.403277643598,-108.650705209068,-97.5708882096335,-79.4157784426346,-101.698112793126,-89.8822373379865,-73.4128179259516,-67.4583629860681,-65.8480929964973,-57.338388746455,-56.6298621789413,-194.926798492319,270.320385414249,150.025093077548,496.143856031943,307.904401471887,-26.8789293547378,484.894582391084,83.9525352850739,18.962200576831,252.000028302534,328.741348766769,-12.4753468209543,139.533239004798,132.204187766646,-127.971778674727,-178.549886798689,-28.8066862548431,-17.5858834465697,-136.45144659178
-55.8029910521415,-86.7472037759423,-239.032927794169,-128.925514629144,21.6153828982647,-281.431611843092,-215.292814818561,-61.0086789513397,-225.728456936833,-132.301100979006,72.8396810932858,-178.032571553502,-121.568152078884,-13.3087194256793,-432.403171938522,-137.491224494175,-56.4344602208671,-170.410454563884,83.5437648642711,-389.632827180374,-203.300530344807,-477.451117265061,-318.358174933568,-308.388877672362,-247.872743413049,-155.084631149379,-179.891324490803,-121.322886345191,-91.3575072014254,-100.910485456936,-86.5041528887044,-77.8837172395852,-66.7333107807971,-68.3381907013267,-66.8656347478961,-65.4385829084423,-49.5748274926054,-37.0323534282366,-49.911732749403,-39.7465800055159,-23.1018947821584,-27.5592335681326,-13.7340196042376,-4.41784686949885,-9.89275992949846,-192.465658815316,228.500189545554,106.846369704774,384.173088431429,69.5516796843535,-4.91193844269079,294.424072929968,77.1611099328153,28.6001076493761,219.933847128091,203.02774253553,37.9340401719146,186.819909933224,97.5906914524953,-81.5887976263828,-138.298752803693,-110.289699219875,6.65587685170803,-60.8747657822026
-27.346891960313,-26.8256058636288,-198.869637806517,-96.4299969511876,64.083107379405,-255.502036447108,-183.791012639596,-27.8356914018618,-190.236590268241,-84.9703694386129,128.375092372798,-142.850133053619,-77.123486572834,36.3722373925937,-446.674848538066,-0.332408731593437,-45.4205424560623,-62.375936614244,62.7975220715887,-237.698502227627,-107.20340064333,-269.127128592235,-174.870931063352,-227.633560863322,-148.570894733166,-69.3920955738612,-87.6351557134624,-52.542619741739,-63.2084408304007,-29.1140170646943,-20.9145140910151,-53.3417793487135,-29.6831288045716,-2.93839190134012,-3.78979985013913,-21.491797615389,4.48535387634401,12.6995440468958,12.8888812017992,22.4225052075111,22.9923748832789,16.4198633130998,32.8283826442053,46.3895801615191,43.0702037212124,-71.258743191892,119.981755703008,78.4988325525079,223.792788346736,36.45145125418,-70.3324661000538,142.842873085075,-113.991885067573,-51.7781559292232,183.439558519815,194.895513971385,-61.0942129177223,333.980008285244,-22.4760099695292,-96.5604953891686,-10.1087819694647,-29.5511551711832,7.47129807342554,117.141468720135
31.2480112313135,77.436444138276,-116.990685209756,-23.5601570563554,168.090336449367,-178.73520828438,-102.779703067961,44.7447362248087,-107.43701080156,-9.21199402695918,192.187573113024,-77.3873497266167,-8.21868433577101,78.8904158362971,-346.022800166828,139.922758315918,-51.0108824952506,79.0443515449159,127.312628453363,-99.5963512975122,60.8220269663591,-65.8153079734714,-33.7773187381372,-69.8783791965356,-33.6873409659636,9.33418739275869,18.320168096183,19.2065809787928,0.614524160515739,45.5604264656017,55.0369924240497,18.0799726285119,56.5549021656375,63.0434579106402,73.9844903934617,51.324682763224,92.5644783087764,105.777889583834,78.3314477448437,95.1266418497947,96.7382747354129,104.973056071976,96.3636915730919,119.764538471482,134.214796622157,150.574378921186,-30.190724752847,26.8356402390145,40.3675427600698,38.3628112529507,-285.604194498044,-172.348383232267,-322.414437806114,-233.370809752833,-39.0781097275637,115.486912731404,-170.021770501687,325.706611594391,-83.6791177540003,-118.620329216838,84.497535929252,99.786247073145,35.271646832075,301.622179179831
123.926828772246,215.534423536029,1.50824530720506,94.3013564893831,318.629617909232,-59.4358835375846,28.8935134194839,161.706913456241,13.7410560710735,101.994013250575,267.291310754882,5.51537517098089,86.6142705883638,149.897421391463,-165.330325506228,246.126847262774,-56.588552919381,216.052739722916,232.150196588885,-12.2382870291354,185.448601787001,67.6881584546728,43.600480867034,65.5946361222638,58.410185661124,67.4053844547622,101.046168992035,87.5032502183129,92.367111716346,109.356307984757,127.576859340745,130.90275538859,182.130116124601,115.827363167671,145.739852788594,140.580521054717,198.471558801539,225.702841153371,138.820247209958,166.455133708819,193.381612356182,222.220797214623,180.065619143145,212.886861032176,249.288828320112,312.525406997345,-84.0889800573562,-96.0598947973342,-126.622554173903,-14.3415990077607,-572.233055021812,-581.989438450421,-396.983095548246,-430.995270393166,-381.694631040708,-83.3596665311224,-185.329460195258,68.9115042657091,-16.8384028598952,-114.396804522229,71.1730700230409,108.037168656698,111.337401677095,380.871045297268
204.652655191128,302.641610491033,100.159198805366,185.655471383425,403.530147829779,35.5894571205174,128.82782276172,244.382420999847,104.27902844796,183.310388880795,290.890763782652,64.2011558031881,154.82374311094,200.588226068799,16.7878041386585,285.084623883028,-68.2375742808448,325.751787131088,280.755175831511,64.076034426217,232.421689261238,140.11385930473,81.2847709003814,113.472331059211,104.638454101993,97.5085525901842,142.601317090277,134.870487475059,146.040072714078,149.627050192186,168.297924241124,200.216107626037,260.497064863203,151.239805121876,185.373394493086,194.598755007332,257.412257190864,293.226195601799,182.000869237063,211.43366336174,256.568968170148,290.110521365831,243.317822531573,276.16540486734,316.50381888955,311.110762179633,3.9629540592605,-323.210646064716,-284.495535264162,18.9505662994859,-721.696193574817,-735.461355076021,-342.718844682627,-530.613503884223,-599.001114444079,-208.276888354875,-156.478912189765,-261.179693757591,86.9125738973331,-105.461637913097,-46.3618134452032,-86.8415366449694,179.856434272026,305.401577990092
209.674697766346,277.91799332263,122.182667420423,180.693848735431,352.033266961642,55.0868436504177,132.324641082143,232.081136655488,115.018904805553,177.09750497778,228.551594731161,69.7087156979803,151.619882166619,171.913181710923,111.077886383797,255.315805247286,-99.3478299289604,403.06948995975,243.321264015773,156.522174432566,271.053984473074,199.49272283491,126.683352260025,111.217707995977,124.748896062641,93.21912666215,153.457366350426,147.081387561098,112.931514216882,155.475127036056,157.746521049444,165.695204615334,224.236525256609,157.551978014718,179.596299664205,176.773319562479,224.008514654077,250.874066028137,187.816354218575,203.616123277658,236.746321135084,253.306334262941,242.498699186993,258.76102017498,278.579541692885,156.805301024138,61.0462056582745,-699.20829033444,-517.054566321377,163.590677291442,-716.170623267467,-536.767388853982,-260.573944288471,-539.426070402663,-628.846657764343,-133.478680563919,-167.873018131138,-468.338286833664,119.975437218885,-116.450955164035,-199.323578399206,-373.661015783713,187.979196931793,129.719924142582
152.60933231443,201.037597668072,91.4929076947598,116.9270886441,229.583462224971,37.9102023266043,89.8322394312209,177.398701206742,89.9789058548124,138.343965617845,147.654694104303,51.4922703221603,121.960471818924,123.585047693552,90.7941801267929,214.728600171923,-130.406305192727,419.892377074291,203.818478550643,207.170399582477,360.489561081267,264.528963457931,166.25445067766,125.201925799821,145.169741274762,58.8597617829882,153.626097497955,129.96449277794,27.5506123580383,131.508350731032,108.136352910861,67.6541646119409,113.441304634975,130.025598786322,138.318858181714,106.084608808253,127.246137748179,135.089842326781,149.51400538025,147.514392659252,152.15232241166,146.6544148319,181.83702251775,170.937413326257,163.427160820791,-63.0243728176545,-95.9365018584226,-1054.49789272736,-781.759224012988,184.891470065003,-681.118360290194,-299.770929628093,-160.567865412626,-489.392696748275,-598.842488492545,-1.51058493219642,-171.337833939505,-518.095210910544,124.287454318482,-86.6658341194535,-276.095249946117,-513.445983625482,183.481133256842,-15.7755464891676
130.171630870073,181.552924343164,97.5194061726228,107.593804743965,157.465024947587,68.4059435320651,107.490280533118,182.419595606032,116.451015061697,172.666526032139,139.633929181658,70.8855385708879,148.9637108028,163.662062538841,17.9394807008558,221.827186420436,-121.786411980086,342.418262312202,230.926056910287,142.620524648851,443.749376717236,315.067990087865,160.488931892767,156.378382397404,172.976859557194,28.9344709740018,170.596992634258,120.286146418675,-17.0202519613076,116.762104266416,73.0479739631001,8.19379346108742,43.8675408215974,105.508232363601,107.259356864113,56.2334670371446,57.8073499543111,53.2697156269103,110.350478523217,99.9205271362133,88.8298304295219,70.5343145406938,125.613456828347,98.9216422326983,75.5810404327543,-150.743527023481,-366.958578322976,-976.160525397738,-817.152351396827,-74.6666771854212,-515.982694122804,-253.403643809179,71.159312620503,-295.036336571968,-527.350981127964,-21.2780783750903,-40.4053061830597,-476.956880018793,220.719796046578,76.7194775768114,-202.444276739645,-412.728144106045,265.431087803041,-37.9847498179141
197.19695353436,247.938844515593,178.065862977979,204.041415945786,185.611349283907,161.505103581886,216.49349913219,269.274391931879,209.463662863932,290.42433298147,208.7013079233,142.330770124142,237.572002100706,277.519232688357,-17.7220301222156,251.342401157053,-53.1863603519384,197.245315476902,245.997206199626,15.8286411641085,379.115976235622,346.166016581085,113.542088104508,136.357637150299,222.348991745896,28.9435775468419,222.621809459664,153.332968517967,21.3061740350593,152.812041575555,100.019586665231,46.8482716199218,87.0287294546065,127.50013029044,134.196361957869,87.251663859249,86.7018394392183,86.8658798700695,126.903980943647,120.162659679034,117.545535586335,98.8943267308123,138.765573545247,123.434759978776,101.637996327149,10.825253471735,-467.263139135524,-437.146670520688,-533.179706932444,-416.600181436615,-142.25342476376,-281.438738828644,396.161308599809,11.5102140864148,-349.965303634686,-191.826653109757,181.962502681828,-399.605192092778,380.385204383384,310.249531701716,-36.5878082021528,-227.849670078313,415.006585478977,41.9797715197413
285.498577481907,331.529913844728,261.653286923117,325.403974206125,260.376846985127,240.204168732936,334.577379383859,352.802122575669,288.718825176668,387.720636526283,271.940809790607,203.007502497194,302.466970845752,336.464054896266,5.57041278597015,228.242412007579,56.0032777929554,71.3568978675518,125.96557708134,-17.6940666413152,127.574636657841,383.90119462076,68.2375955578716,12.536824000302,316.613472017891,27.9635791419482,295.156644665197,215.997959785024,81.5955839756246,225.942129124295,167.425597934894,136.492303838374,194.258368433283,184.613664585717,206.088985856075,172.045737050011,188.36417155484,208.781360474967,187.091243417385,194.133211631085,211.374640520866,207.343148377265,210.729315884655,223.192333466061,219.22063858279,222.145195714453,-311.830753130158,19.7035787349918,-190.927567618226,-523.145835006742,171.192024595659,-180.829024237642,560.882277881404,187.265318468121,-99.0348961835919,-279.60651095413,290.339692079213,-263.19548140459,434.527439052208,413.498988226325,97.2205372183365,-80.1636054044158,489.286676946266,161.233932593394
303.722465648316,363.525435678095,266.561171397201,359.095891051081,303.951235584926,237.364036443574,362.902078341125,344.697909188703,286.702603047427,374.664355401355,261.207808244386,188.279795426901,277.414497114088,273.475271609527,28.6307860550954,140.891426251651,148.859460112035,23.7019653059867,-81.2622877423069,86.7038033413307,-123.038842408583,425.436914135025,65.1166502064691,-149.694623380909,432.748131484469,-4.96423735001782,349.278828283759,261.430146916329,90.0196044409851,276.280732510496,207.279520870892,179.636108321134,252.16423565569,225.089110341287,255.398362976994,226.014618245756,262.504097478811,300.851431203849,223.133181940325,245.672430078343,273.704512778118,289.755808435176,264.574125433634,296.149291574501,312.971669404632,245.618260177009,-90.4145342686915,109.368870747003,23.3574952095061,-362.404175883794,243.3020458266,124.668235473575,475.941264627067,161.411825977873,207.229312550653,-33.8146595180499,223.578680403688,33.2686715168715,333.891963706934,328.976181557348,187.284210530973,145.135541923911,426.01724549856,318.634563011569
261.457012293572,348.252375649913,207.367255719953,295.884375716492,302.683428057467,172.98698662027,296.821475376129,251.782507786169,224.876516742491,272.742166246733,194.422850146968,113.74293145825,191.153599466442,154.200004662595,0.738418640918074,43.7815536773709,173.369163105965,12.4418128268283,-204.619317311592,193.019950185715,-173.272421745049,415.469943609431,105.817521324145,-212.144144552192,481.192299739747,-31.0668426951002,344.594342365451,258.819390613604,50.3969864737751,263.577734687816,185.609690898891,138.660643391033,204.77336927549,213.840446294037,234.798315090001,202.582966895536,235.852791883953,271.040333897199,199.304455749026,224.433361698226,243.753473156825,260.959867314016,239.470335776981,269.904127919845,289.438472234834,196.888953115916,48.9736007741518,181.802765686423,205.695986220025,-113.402235730031,281.244243628328,616.348603289786,352.792739016923,162.639739726936,646.096062510294,595.335054664842,144.188299138045,572.336963553231,215.56105051681,237.975736904387,355.283603616154,588.836182848754,325.51190238269,552.798726588535
234.491982419739,340.340627969892,162.818551334971,221.802016168944,301.856927979629,120.129443327476,218.872404391062,158.883747884534,168.009558726079,175.552755963521,136.43665743347,48.7672376220656,121.082055237072,72.387855254905,-55.3294588994945,-31.25778493168,141.209307962359,-43.565969275369,-196.708988735205,197.330317728853,-84.8415035202355,332.144584464211,154.942641119983,-128.992635796733,404.843329560229,9.35397863493217,280.153689624686,220.541213754352,24.6844674560506,207.644499071257,137.663746967904,68.2820308691096,108.69613381318,165.346281090208,170.19843240231,137.540839983824,138.983573825838,155.153427032753,144.660260005745,158.167771140391,156.582206861461,152.757730344504,153.715250013601,172.959054327458,177.964505789952,320.242013194186,183.071532863027,539.312422609648,442.88176007308,210.837715189334,461.186786994153,1225.62534663511,367.967705619222,349.579302708798,1206.79459886406,1447.51732757056,189.592240711806,1310.49669856946,194.157930072078,309.84699330192,684.802595197765,1177.51640319126,299.401984458775,851.934518439177
241.993141570276,364.47230253164,161.399016905036,196.642017446812,324.187677291785,108.693732589436,188.805446902883,129.906041673829,143.834135479801,142.571068910542,119.641250616384,21.286875274946,98.5856696046704,53.8984123819951,-102.968444344188,-97.722595457169,94.3028278264559,-155.151430916405,-162.82803693556,145.07501291246,-51.1782013668832,222.950344327945,172.76144486221,14.053753183104,258.915784298059,98.423555760331,199.23223057524,176.50337012188,48.5363020473799,149.490306390524,109.213820792043,37.4054265529968,50.2783256010888,117.055084852842,116.913750537704,88.6265627070549,60.1376415307576,59.5137052732074,96.2730595234587,99.5640079762415,84.1215480915766,63.6434288257249,68.0541006768313,81.4055074901504,80.4054321679198,537.572366395607,407.569542813451,945.70514053924,659.545552988842,709.594585828582,639.829279885192,1784.05937184613,442.039697927765,598.006710076988,1693.35997705678,2250.96713060165,297.972496924095,2033.24646355954,219.429443065661,472.847062272182,1072.51325380281,1656.61656461861,324.317710083447,1107.63124981362
233.294452701377,390.553687505435,157.853572795148,201.983464317406,342.358915009322,95.3310202208048,186.682066407756,156.317865060862,127.788452161363,158.032815363432,135.772516495761,-3.1984622935615,91.9572906161924,75.3820117964109,-158.686195636128,-174.944773051194,34.6951676787148,-278.399766565634,-183.079381063645,96.5672699206987,-114.059252755666,125.525381321681,139.940462607932,114.221731671865,133.817944465351,155.415193316116,131.98566857732,133.828332835739,93.7798736212625,98.6151880247332,94.2777891267109,49.1244425134121,40.6233772527618,80.5232371061617,84.2693259112149,62.4018789178635,32.8885747339271,25.7976906266505,54.0734938890851,57.5542472596448,43.6278466794214,28.5298664642102,6.81323949308982,19.865800629162,33.2452638589779,583.345302174579,628.876345502554,1032.18521699162,777.003855354817,1258.24900372027,637.883325986767,2062.58721710192,416.181049142427,708.718647980924,1906.4089839286,2695.7480463984,321.933692381426,2424.544798276,182.363253545125,524.239513978453,1292.95086318913,1787.68293496851,292.168045096398,1172.71267807064
176.054427498639,379.332979161969,118.184481119884,190.981833933806,320.621159851632,38.8470559054615,164.080260504098,185.185918762305,86.9697128656841,168.822101025083,157.893387129972,-56.4148977949007,62.9662442447481,99.7660816514931,-245.911840824161,-283.64147169572,-42.1358785760649,-406.987543173968,-275.146126944582,49.5368600053582,-200.597358367791,40.9796713971021,73.5167229047679,117.231256834685,49.7456165441158,141.770244948907,74.1670084003441,82.390185712245,112.145219222588,48.3565587853419,63.3893232295852,54.1184171598674,29.7753565008432,45.4647212509272,45.2703289364841,31.146545033728,15.7630720540685,9.43273802728371,8.83174596332011,13.7459548841188,-0.351394952072006,3.04046265813009,-48.2903637181163,-40.9948925530601,-10.8724672948344,439.271735189037,663.616982403159,832.318094108135,782.242881298366,1518.41119201011,493.860316696633,1938.0841063513,280.089808031093,639.082989479601,1814.47834218753,2558.6075709669,236.392795115768,2275.88987288663,74.0240856352427,401.946973314718,1211.08276080788,1524.40376486024,166.006033637884,988.782191693618
67.4309023273037,289.772188908781,49.9804587665019,116.081709040375,222.328927434341,-45.2867890708191,94.4501559510229,148.918001316636,14.1503948716483,123.135662915731,125.919181625579,-128.310491649383,-4.3191470234817,70.1558990013323,-331.756828916234,-438.79372806953,-94.2401245028137,-563.057575992207,-458.006517372464,4.62471250692508,-301.007435392534,-21.254659176216,13.5233641370245,4.93398682779617,-25.6076221003809,81.6585381018292,16.6541892433541,17.060160324414,73.2651141580355,-2.05254208699774,6.94721017214891,8.12585357997109,-26.7031542410077,4.46153062481297,-14.1031385000992,-26.0382253438262,-41.3219238895697,-49.8415121539384,-38.8193164127893,-46.5619864705782,-76.127965727852,-62.083486791205,-121.328026358853,-128.713303075974,-96.0566991683904,262.887873680505,466.546602367811,636.864028984163,643.857094297216,1261.73939032521,311.378691494187,1463.57636913012,122.226961215849,471.341678269717,1480.8810938339,1873.89261359005,136.933926961541,1657.93108191421,-41.2545157184726,218.188220055775,874.833994313909,1013.33367159028,1.33584305265103,625.508932098109
-86.6187318194522,99.0999282468405,-21.3987104048913,-37.2763922091713,34.884634077333,-103.940532917224,-5.33019774797,20.8670979106349,-61.9915231350042,16.177190990748,-5.19878536966492,-177.473660106721,-93.8967369742586,-39.3915297227234,-346.580625634616,-585.122856692958,-76.3679221728659,-698.254084637242,-687.443935751432,-13.0286157770425,-420.195837282609,-42.4038936028667,-11.45391922082,-173.363303194805,-93.0107908826084,6.76750460575327,-34.9165248215815,-47.0965066735371,-17.7729819724003,-52.1651931620933,-63.899387209893,-84.7694308179643,-126.490372240786,-40.595608738635,-81.1363849173683,-107.099929256515,-139.143165850244,-157.378466611535,-88.7764961814555,-124.188434763424,-171.992055686548,-167.833241801988,-211.723379276702,-238.436293600572,-210.525569490477,59.6566272913402,222.917886220903,522.991179714399,377.02528334892,663.225012495498,111.870941875567,843.143653966409,-20.9164764347041,293.281949842944,978.317900384714,984.546891261468,86.2446792863871,879.247654303016,-125.79263639934,80.1242119089491,441.214898291567,453.086079410753,-143.136003864301,211.365804492946
-234.614911597144,-131.771728926059,-64.1495714882047,-203.858462561263,-182.982602711425,-100.32846307585,-85.9586698269789,-140.640190064791,-103.156407349668,-96.4055520501145,-187.919031212715,-174.603071108972,-164.57313099739,-171.122603525041,-264.222125050586,-632.472071911558,-7.08158452929649,-712.80628883523,-835.676035929671,-2.46794353062826,-485.019212141676,-28.6461249440847,4.15290613810348,-298.961056512368,-119.167643745898,-56.2411646748566,-63.1051128678893,-78.660843079308,-107.575319202991,-90.0744095415289,-120.602774256213,-163.825854748196,-207.590123901191,-71.9516579452702,-125.732052525568,-172.209692522652,-218.318374078134,-243.56374436988,-126.634852697862,-184.121656813723,-242.083166470223,-256.400866759531,-276.813121603899,-321.629805329538,-296.881105948694,-239.636030794742,143.304014701206,338.534715793198,132.060284944822,187.692308735025,-58.846411893114,335.154338310884,-158.311139415031,164.176474781875,443.486138443579,279.322075990016,62.2699875278936,241.546075527051,-168.014491917246,1.4112884186501,66.5944452087056,-23.3124931293178,-231.194011268307,-135.022110530102
-311.928561779368,-308.11718572175,-78.9764148817886,-305.603999679936,-367.133045152821,-58.7419111273231,-130.183674812326,-271.182387255335,-109.955724289859,-174.113352217963,-342.069212180981,-134.065331702442,-196.615829529035,-256.926593490179,-132.193633942667,-584.049855115877,59.1463954628154,-582.902843259221,-825.725510976189,13.2013906316029,-444.968349669501,-4.87418995132246,52.1686917999037,-300.965621882061,-102.226052266561,-74.4774440061025,-54.2346198604647,-62.4515793889155,-132.207914780365,-89.2459340528831,-125.109800109339,-163.342946622454,-199.301242543913,-63.0801680380738,-119.159166897241,-168.739321951315,-212.855977872816,-233.870852338985,-120.227303134307,-173.620198536735,-236.912486205831,-256.12726762047,-262.703988899086,-314.801381124053,-298.188086314615,-560.678514940255,148.433278227542,39.082620347453,5.5926379808594,22.3890825348329,-111.584803686809,15.1992233272428,-283.967142286062,82.8719041919352,14.0971932746303,-215.282820852846,1.94154249719075,-210.011962526002,-170.521896579579,-68.4092642658013,-197.699775772996,-397.926076625417,-255.63028271369,-367.216885351829
-323.614235261443,-410.617024546699,-101.734730989301,-342.147957493895,-519.614075144848,-29.3573882680525,-162.754957414751,-365.625124477321,-103.54788734761,-221.163082363469,-444.875998913686,-71.5392739726069,-192.085169421688,-285.102616279042,2.61455241322772,-484.308647444435,110.386810453165,-367.312849201307,-674.185764856662,32.2056227366109,-352.574392343347,22.8513243278046,111.837623347739,-225.908653615669,-68.5797830223877,-38.6456098945592,-11.4400682154452,-11.175319781281,-79.5040613424109,-40.881504999524,-65.8183110764673,-80.8826915190954,-98.8104882141387,-11.9228340413069,-59.4556852303782,-92.3996496658103,-120.737153034575,-130.682115245716,-61.3868719093493,-89.4442101214112,-147.931335416154,-156.535031165922,-166.928550091696,-210.173140091664,-205.822573040616,-727.990582763077,-12.7265275785007,-217.144241811911,-85.5818329793191,-112.673753953704,-45.0596507898809,-259.929556384394,-366.972221144234,-0.00543085992879355,-293.848245164121,-720.132856339001,-124.927048930119,-587.336628275101,-163.60483670689,-180.85944537422,-389.343692736053,-702.653507884279,-253.717027464554,-517.334354268664
-316.224741136414,-468.344632247093,-135.911641201153,-350.552083131984,-636.490508467689,-20.9304821218157,-186.658470366877,-419.091894500237,-79.5195858984546,-229.201679887284,-492.918813499123,21.9384440072269,-144.485476928195,-266.146092554279,150.170248461285,-297.416557358749,170.916348481388,-111.692239936984,-421.430771918829,74.0109383015073,-262.773779289796,72.3239107499164,142.809483044904,-155.415060943509,-11.4512254567922,-1.91730261627476,48.163309085956,49.4555190306329,-1.92883086435097,25.3457722843446,15.6903748436051,19.506879462606,27.6324157108376,45.9627245339156,19.1960112445023,3.22836752749707,-2.28592639362165,-1.72413769107492,14.8502998677063,9.36648242159924,-27.2690463730858,-22.7087436426472,-46.3850515459435,-72.3380761108904,-68.2061506793784,-600.938581150449,-308.349060019823,-259.589579836464,-162.357253658441,-390.332703596443,84.6317349569454,-501.649490884428,-350.522775393469,-43.2169137849237,-455.086230811996,-1115.63819182346,-226.748996976367,-816.0203510718,-157.527373721705,-294.464355834023,-482.802423169355,-878.694004288535,-249.543907467506,-600.146336842195
-308.901731323866,-485.187443767747,-144.876900606791,-344.841832754559,-667.182811402199,-6.32393181710257,-181.935489891433,-412.058102927047,-36.0319687780477,-191.411645674714,-472.031054836772,130.791765263418,-70.8341259301529,-220.481944008186,332.032757075808,0.29004240667269,239.957656844615,166.410288797656,-112.390192185192,145.866468136273,-147.902187359709,152.943570599499,115.896424532376,-112.681677097429,104.589695036201,-29.2653299785425,109.966733550357,96.7513926023798,40.1807341599139,80.0007623841933,68.4163334419155,79.2169448064014,120.227848429333,83.5705760727231,80.6515986771837,71.3715365181883,89.6694442874854,98.3612340524833,75.7277172055357,78.4100407286939,67.3427502821288,81.6117446727022,52.4686241001996,40.253637032415,55.8274827134287,-232.479616724767,-469.22708567645,-97.2813221448636,-112.925437335544,-590.840583355176,242.396503040005,-507.282368615092,-215.977061515704,57.0411490502564,-370.915770476129,-1011.41160662848,-178.261470233622,-715.987105025256,-123.056453898529,-301.77943170135,-416.901095739435,-839.654547572975,-223.023497362489,-596.193120356487
-303.537582740096,-454.224949951147,-117.460628736451,-329.314735431087,-595.718680565397,31.1743247590004,-151.421312745561,-361.325635654392,1.35072961326467,-140.382663006744,-396.827039043847,213.935405743565,-11.1966708790514,-173.420914231716,514.661219446073,321.484091151705,284.822472920924,429.566367564592,215.689760748641,226.228198260879,39.1037119202947,236.727755230234,68.6928370461784,-60.8475492432903,263.324509206166,-85.8271994505632,169.39298504843,135.18545710883,52.7383490828738,129.673517313656,97.8551067872307,111.076086634713,183.712045338291,117.295257619653,127.492131650261,121.310293877749,156.712187399401,176.158053462494,125.870827155715,134.091721257294,138.09098682696,158.910983749488,137.841543832593,131.896917477579,153.872952482443,90.9838041975721,-468.220300383142,81.0242848663381,4.25415699125472,-580.134865137723,341.751061877916,-274.657244789546,-68.8769782981526,206.408990107484,-136.263160882501,-485.840617921719,-52.9119581439628,-425.239124848252,-79.4196451571241,-219.183439226211,-298.99282054537,-673.831426413995,-190.095453417436,-552.311176265138
-304.274277223896,-379.909969526341,-87.330405064203,-305.337552958277,-459.320094617464,73.9654564081781,-112.920781007768,-289.538225311347,22.8614356657122,-86.8548217327301,-280.826592500991,260.673420072262,42.1838324218594,-96.3334939725182,623.846831165739,567.776904974269,280.304234256744,622.349660916656,557.349041116159,272.838113719021,276.762160749303,269.569836169339,76.9953771481995,43.2295365475897,368.295814242917,-54.6072681421014,213.058628128157,186.157393789447,94.9742878344907,180.173083057421,143.719090765376,164.176534997252,253.933461200164,158.397640666216,176.913501964554,180.164328533641,224.381301902424,261.298575222309,172.973180185834,195.940256794339,212.526685350803,239.018790782104,223.357499458455,221.863485773038,245.890848673578,190.168831732475,-461.306096864426,176.98516078496,13.279057136453,-499.642891531796,313.08219838524,-74.411431590663,-18.0710855107931,192.053942623376,-34.5990138262049,-84.2132086925462,-32.2087605989495,-293.19938106491,-92.9696709287822,-186.903333621684,-313.460751819948,-556.566609446296,-211.327187663922,-547.796934438149
-307.276840681325,-272.654004219769,-91.0065140684771,-265.827848091129,-299.418519094994,78.024009239803,-81.4691396299561,-196.844366769267,38.4560406873665,-10.4044364843228,-120.686340080798,277.456663840184,113.574363848911,45.5409246473688,632.620016259427,712.211855452012,236.532736002301,716.534056043077,868.525668230182,256.187627238161,471.471278100155,224.302365967491,143.853445717501,189.594251209427,335.678085931166,93.5918049204625,207.122322241789,231.552684512952,177.797966250181,200.046045737335,198.162861142205,230.036811204031,319.407337934528,170.311252154832,208.866345934094,230.14230864239,281.559816959046,334.955256304312,192.224900829829,233.308906733324,268.652865456848,305.761988691994,274.055113823783,283.725778298987,317.258031497257,220.60788779233,-376.58441526638,311.663711760877,-18.8928773220873,-380.798678676739,284.467922643434,-40.1683634406234,23.1141275139582,82.7988297522681,-133.021480816168,-63.4643616534567,-43.3172732450854,-378.592336432449,-131.887503197406,-217.138850005582,-421.425214605546,-514.594511882735,-273.573587806084,-567.37137968237
-307.692605773637,-165.962927923006,-133.637511364706,-221.407316380202,-171.283323665828,19.4860867496758,-76.2372982100689,-114.974515365536,36.0537959978074,53.8520938808734,18.3304400717578,249.296814676647,156.418570867124,170.604911160867,602.744166269213,768.856145326685,190.602409933167,740.131201541385,1024.70399809425,198.302469380244,544.963071073617,132.412692997598,185.591139925983,308.487553097467,194.428558569588,233.778254995446,136.729965889358,217.016879337983,231.696323727234,160.141827132963,204.99781076549,246.080603732395,323.642459539389,123.855343883394,185.776744725538,226.221770127787,283.723806055567,338.542497946416,158.817351893745,208.066196224123,257.383070311489,310.392623651556,248.666131686008,275.439733743055,323.437573628296,335.335464986086,-73.893455325662,506.388255509041,81.3500370009521,-109.383643349198,405.222610353477,-75.4768723150833,196.176599821351,146.401550611383,-231.707585747954,-214.115869705612,161.759305672359,-458.967230007734,-77.1313183000551,-162.397454022333,-427.791603879511,-480.71685868377,-281.629341805799,-554.073792426427
-300.833850351157,-101.550988143057,-183.413766930583,-198.298858862381,-127.179119656963,-62.494320142615,-98.8139963232138,-92.0679075256246,4.35828092339941,44.9948943980756,39.8431736228555,175.208932438185,120.241219243615,167.050919575102,617.148661492439,762.648124139754,178.033172720852,745.225566967867,967.421445377067,168.332377628421,528.431452436525,52.0209749667533,161.846926179697,347.601951890755,53.5867870494824,245.345032208551,45.0660526454772,133.947377029484,205.594311853588,81.9831658254577,146.934293187352,193.923755401833,251.200974938607,52.8818274499995,114.475652298954,166.028678453987,220.5178148219,258.754201200641,94.2138996951847,134.889494075604,186.125057274922,246.679346851465,171.872064964534,207.640014531146,262.912656658154,461.233332479897,295.407023952377,585.8332488794,263.300973170004,233.054042368431,566.814771700617,-83.7032656735115,404.975625798351,388.687725206672,-196.02518319384,-299.459799830366,540.033731693257,-409.191134484238,73.6587126610772,29.376626612302,-293.510808937505,-434.219793611212,-200.399826565538,-519.403068543064
-269.353166261895,-72.9944239516416,-192.885156316707,-189.694895910621,-138.412893403894,-100.78166625607,-115.669167778394,-110.305090028845,-28.0790492492588,-12.1112560998439,-23.7319907197753,97.7876698025723,53.0200797114519,75.3909450330706,684.012418666651,700.834658685954,210.440641134906,726.426871488137,797.469335321821,214.247874784362,510.342805110081,13.9708752098364,131.355896612279,331.737443574078,-18.8285242562594,161.15033593586,-6.9694915663488,43.5631091055948,141.34670908764,18.1918738756607,76.9035716420672,130.06103533451,162.035219948841,9.8487908464682,46.8350448720446,100.645892241383,142.890943678512,160.216209679348,47.6975689287566,66.4710309553423,119.089469151468,167.771072344901,109.338050167696,136.743394052402,186.776845387854,584.689028439786,494.523867324631,581.088498678959,396.490354938937,413.733825883745,589.72948450622,-29.4825875072179,432.747117142333,561.30457930158,-64.7000926700769,-258.781805136954,757.258192448928,-274.468626970419,177.652568705657,230.104915232023,-150.641168103025,-347.423181776184,-104.296218597042,-485.293878495693
-210.748094802214,-49.2822703408881,-149.719696594186,-166.186370331184,-131.633169423718,-77.3860671745652,-101.114251515767,-111.95968963072,-28.472255140237,-35.6973402029253,-46.987442903247,59.142660859338,36.9868840471015,37.1876816737192,714.246822124283,561.530502425207,256.42990689994,612.48108073446,630.995236743926,285.824109064117,493.816811896356,-7.78444229740296,128.140564255087,303.917855629195,-49.343542441982,88.6316836522032,-12.0122007251505,-4.00011490831412,107.662871054355,-4.59142680381712,44.3010876493039,107.819712858995,119.899465921641,4.25722204268426,20.1706078730031,73.4407292024928,104.144433322951,110.95578246868,40.7259038975095,38.1091577244141,95.5139937412622,123.797285604133,88.3288568859057,99.5057322932577,137.960898003641,817.851414395866,554.848568225791,728.302252019283,489.013602654732,406.240323301754,517.962565146845,76.4149414584888,287.821807274144,536.718186156653,54.4189872102241,-133.604053963934,656.971417412365,-143.762954507897,147.732764100355,296.783313159619,-99.7521176596545,-192.418640141371,-73.67390446649,-431.286345648538
-164.463354477766,-45.3340378611871,-100.645451181472,-136.498102400869,-104.184298719807,-35.6777099816404,-72.857150216876,-85.775790626083,-3.66944294707263,-2.24107713605044,4.17198502282398,57.493666218779,76.2602860841379,104.455168151429,601.046388815844,335.550207152556,258.302454466836,366.654653541034,469.446744097228,261.411943584144,389.504651582096,-66.2394866805336,86.5439991609507,249.753563997459,-92.8639511025921,52.1585930803392,-13.0538024809783,-24.3075935446491,107.85389933395,-4.41206419812074,39.4940155762762,115.571725828687,121.843557270335,13.5345619117345,23.3871277361282,77.6109593876281,101.065367725517,108.87009490892,52.9131810074473,42.7746555053965,97.2761372170543,113.701295945612,88.7252515952239,89.4123483231474,120.233153493612,1057.70488375625,654.528534825388,966.44043007828,567.689131377601,426.637032837915,498.702645824843,160.498963556436,189.20321086878,403.243857849075,61.0713120190928,-12.3682710651652,418.558401068356,-103.152309625705,42.3468365385664,192.437969437325,-148.291822144685,-59.8996611237215,-113.920102338692,-372.19770998737
-167.699316932911,-87.7846026512088,-98.3637628394536,-132.934290750063,-101.635168954591,-25.357019806128,-63.0472694891217,-61.0794981825958,13.1456991490782,39.3351223141979,57.9034913625007,56.8543612936903,105.098553583633,193.771996653188,333.104323425976,55.0829451438211,203.859180776437,50.6583718509386,258.877861324189,98.2084234152718,154.057010328086,-157.254646753599,-33.5136748691124,138.84391508684,-150.395545126727,13.4755189488692,-32.8839578983037,-44.4520802901501,107.501824489879,-2.9107627808832,38.2402084203953,117.406792526179,126.964817240556,22.6462093906579,30.6271696986316,85.5138613400163,102.010686194818,114.379100002772,59.8985603892463,54.9800061634664,99.5458735719134,114.301552802271,91.8221592281691,90.7399098059011,123.667149856764,1004.30580903139,782.605407835913,960.131470423455,569.342947226581,589.415751986068,537.584940820883,158.44947213916,256.28722683462,285.843587187717,-49.6411776226666,29.4727421218039,268.314299923064,-174.296049132993,-55.9635177523288,-11.8258849899382,-258.285756373945,-75.4057513524747,-183.966101515746,-363.674715243754
-196.653804168561,-135.134142966719,-132.8514313406,-143.276936077169,-113.832244709116,-53.8654571626304,-70.9278036625393,-46.0027823145275,2.86734939910696,49.0184700281444,72.3754430242692,29.1758118314887,81.8302881323303,212.859684971468,15.8209554058833,-201.718012311611,144.815313230251,-216.621126453125,6.18292298920505,-86.6043765210958,-113.663697892541,-204.387106001652,-142.439781109946,8.35608073798952,-181.01222704735,-12.3546667892728,-45.5581824241163,-48.7121453570353,107.872013481106,5.53914475923056,47.4888207796015,114.84160030605,124.724937972238,33.8226705017997,41.7551968494456,93.963407149015,105.133591209535,119.486288389502,63.7804115549613,67.9779304664721,107.924932128285,124.485355676477,99.1553083749551,104.786954314383,147.705125953376,600.635079999147,733.17193148399,639.662787163678,444.667689135047,697.702454742241,515.498917677326,69.1594014156831,379.86569479161,217.6284281034,-172.098527244855,-23.6973144405769,234.9383033138,-272.344667169374,-142.449078520511,-182.475925634447,-362.30280667006,-209.639280663544,-248.317837411931,-398.539500630287
