-22.9088743824968,-21.1689598724338,-21.6039384999495,-25.2287603959142,-26.5336962784615,-23.5613423237705,-26.5336962784615,-27.9836250368474,-26.3162069647036,-28.0561214747667,-32.1159219982471,-27.1136677818159,-30.8834825536191,-31.4634540569735,-37.1181762146784,-38.7130978489029,-40.5980052348045,-45.3827701374779,-45.6727558891551,-55.4597750082597,-49.8775492884741,-74.5988346189533,-63.4343831793821,-44.8752950720428,-114.834357664161,-38.1331263455485,-68.6541267095712,-93.8103906675661,16.4566914076797,-62.1294472968348,-13.3393445771501,17.3991451006305,-52.0524424260529,-26.3887034026229,7.46713310568726,3.84231120972257,-2.24738957549811,-74.2363524293568,-16.9641664731147,36.3207153975662,51.9074495502143,-68.6541267095712,44.8752950720428,5.65472215770491,-41.0329838623203,7.46713310568726,-3.33483614428751,2.3198860134174,-4.49477915099621,-6.52467941273644,4.49477915099621,-11.7444229429256,2.75486464093316,4.92975777851198,-14.4992875838588,-12.5418837600378,1.81241094798234,-16.6741807214376,-10.0045084328625,-10.9469621258134,-18.9215702969357,-15.7317270284867,-15.0792590872131,-18.7765774210971
-109.20956139588,-100.373735234517,-102.292706023181,-119.057424599849,-125.176819155436,-110.928074572167,-126.409258600064,-132.491676664626,-124.434823074863,-132.183202667436,-150.794395594849,-128.001267146025,-145.5989664867,-148.350918039369,-175.182445677897,-182.242837382303,-191.11418349056,-213.817783800083,-215.266256014337,-260.11051683141,-234.347947516159,-353.244804082921,-295.919950418876,-213.802208642834,-534.809402557778,-177.026006940378,-338.739127434805,-437.516037662765,60.5424873305278,-294.7303136418,-68.0071541761525,58.1272470012829,-275.116269764773,-137.610686530661,35.5763691164584,-9.60695312457339,-38.4299479896838,-387.048088942957,-96.8787778853432,145.879766145385,211.646366638498,-391.58903067797,198.142978052266,-42.0400883848015,-237.980945789185,32.9664973513638,-19.9560183892494,9.77536676604999,-22.7050568536552,-35.1642483668509,25.8949001221041,-56.3794868828309,24.6711999422671,33.1786073167954,-69.5962496338497,-61.8308383398953,19.0393356624705,-84.1208613556793,-44.9337889563735,-46.3608598368511,-92.6097804846948,-80.7363866513808,-70.8982724281332,-97.6490111921516
-199.421891764161,-181.126885101384,-183.817185925308,-214.303745428674,-225.254560627574,-199.403368653094,-230.957464801158,-240.077746382714,-224.071434792832,-237.424021608111,-269.966902239639,-230.876234858919,-262.790230818913,-266.835471661546,-320.032768972408,-330.471014081647,-350.396827901691,-391.182825630665,-391.918270142881,-475.151172730638,-425.981028458603,-662.207335806841,-535.115092291448,-396.17674102401,-971.139317437088,-311.395142995881,-709.736669443475,-790.504250991839,69.9149762649949,-578.656837157615,-142.368820651984,49.5091003777287,-609.098859909997,-326.071085290518,59.938549036342,-109.670926385067,-154.303088396849,-824.348471397781,-248.716464048826,185.310403723069,276.024847753399,-926.362432420495,327.963749887154,-313.324997548415,-567.958295691727,58.5017291751426,-45.3145444376881,21.2800284469241,-39.8257811823397,-72.6558796999691,73.5930992672805,-95.8321659195332,96.4197109497225,105.726256038959,-122.82157461682,-111.653304969716,81.3246272467136,-164.521928274725,-67.4732632831616,-58.3394083920781,-174.290638875755,-165.382896806419,-124.119233539179,-207.033901988885
-142.490893302043,-120.666076190618,-122.96039010216,-147.729139247869,-154.134990213698,-139.683258930368,-165.967008818507,-169.418623256108,-155.587552720362,-163.40145403315,-185.746463075138,-165.529670539806,-189.030379559512,-185.072887374136,-250.636404290806,-248.833040092997,-288.447310275801,-311.10726616108,-298.967267750844,-390.880890012617,-331.580228750454,-605.185326363653,-427.089346662252,-312.229203565193,-821.434098994363,-208.519465282364,-894.813419101708,-641.785599041235,27.5751679645893,-665.749594079454,-161.890546994085,-13.222060785449,-714.628548572584,-526.444046411057,-7.49222749194749,-269.187515859128,-275.561374753764,-869.669916786182,-397.254692759101,-15.2950732069283,-9.80538334594315,-1118.96804325446,213.126614696019,-732.99551783204,-678.548627365982,73.3337107014208,-28.0707333373437,55.7090323203953,0.796510593751754,-45.7712900040375,153.537861516614,-21.1989798692111,226.095612637738,221.540484748184,-54.9079821806109,-45.5202057358092,202.695484999238,-120.948083856495,1.4056800675244,43.5240352528609,-122.067942362729,-148.185275903591,-69.1808634706943,-214.312094514059
66.6701999420697,93.3268457819748,80.6902668035787,83.178936349772,95.7329803962901,62.2581484423226,74.6005631848907,85.3903199728561,73.8501053694677,90.5906157272405,100.6763329499,54.8163863190175,67.2264217566634,95.5961179256115,9.70402050141543,44.6588386087754,-43.9206054798892,-1.36138132909294,48.8016153601035,-65.4787292128436,18.8664069351676,-271.115693652066,-40.4847354909171,42.5903589079573,-272.541696112747,97.5576927212522,-925.558809951702,-140.816735644265,72.2383133789558,-661.998224945038,-124.312020685027,11.250253943793,-401.332771706502,-746.01817594215,-240.743455889588,-281.047098126774,-251.774948694689,-308.717797325259,-473.280820138267,-272.896932173679,-383.138101389352,-574.407738423415,-45.3931253436342,-787.193604759129,-307.526706689356,143.92963777124,98.7951308434987,160.587723574529,142.685364829919,113.067109986237,276.54585446673,203.657668024094,374.667733292553,362.228854598431,166.288730680411,186.46808961153,354.44348181951,107.18290609949,157.870315217764,252.495750131635,101.90376963692,36.0899450195891,98.5690549420567,-58.1436791052761
277.693357108892,327.417748545254,279.383472381226,318.981823497837,361.574496042816,250.719410799464,315.430187463338,349.231680834659,286.052515184556,346.15304345897,389.787038758143,247.897570227651,308.704494154747,373.582809657845,223.879017231925,305.434019864201,133.845287883602,255.787561440904,368.75037910598,164.728701106287,321.969165162028,-87.3698241195364,243.407916641663,383.990620924124,-0.0489001545515073,336.622998504677,-945.343990202998,110.304515780076,219.513547720559,-735.102433340449,-86.6910301094186,72.2121038520191,151.740057518056,-924.408932951953,-573.233651691576,-45.5142036013116,-115.984306566092,439.776479157805,-458.903204885837,-313.174759062442,-405.825659637865,289.492205154856,-184.083695523974,-244.119347962532,270.432115283345,321.226790375545,335.551663599392,343.164322938975,360.286082374708,381.165932359834,432.291087406361,484.282025749196,500.792618707461,515.185838392164,435.166237418252,492.094351098952,500.166827123538,416.073012803014,312.655228904262,465.070648387393,373.283621233038,320.665753741732,274.080662727694,175.662295499637
414.186253190241,496.032472884821,401.550845942394,478.830852891876,549.67737658751,360.749514835236,463.288028362716,527.783575882367,411.648468025516,513.395851262874,583.596801791197,353.06331550284,456.416650548072,553.780527031487,323.959673716528,448.698898771482,201.289360150765,381.766362093575,550.589309238018,254.149345860291,485.840305119379,-46.5033288583912,367.070106816488,568.425364614846,38.1570027111019,417.478438042491,-730.32483626368,103.40134603343,246.825325165135,-636.936861384545,-37.960441855986,-71.5644041779764,693.337260835515,-820.640068847468,-798.457426314676,217.265369631902,11.5476353146504,924.877277066452,-333.197502107692,-225.6700837397,-167.206450977714,834.18946336545,-183.682026023647,413.794497475821,599.029801413447,518.806818157326,586.603024130226,524.506613404548,573.449258750804,648.443525078891,566.888711948709,710.98046297383,588.014276054715,656.348291147543,647.201605227901,746.21635203189,618.719118538228,673.734632718548,412.647604281881,614.164438321596,584.662148641626,597.857517513821,396.976074625845,390.438913855151
474.968091094792,568.903725937567,454.378220461199,553.281053926229,632.406564050906,410.238935402661,520.488254643481,605.954177550192,475.132340853398,586.74890157878,672.488648108463,411.542648273945,529.641980733504,637.768063620382,383.317570125102,523.805423110068,263.150580458338,466.658724110999,637.694926606395,354.934953691698,580.326473372912,122.79729835817,488.68038724104,626.831920571336,275.994514481869,427.955163051665,-126.775614194439,236.78339195242,47.2968829121413,-193.102346783208,31.6402567316486,-379.113732976227,1040.85181268711,-372.821026385655,-754.97386333268,208.835188249754,164.221899141192,1047.46302030954,-125.908823966504,-252.719678000452,-56.0494476223376,913.835848935969,-177.394733432502,713.360365511229,554.521684185469,600.540410400435,713.215266464348,598.314671208761,678.993689692734,773.612406517093,608.373005781376,806.615576272134,600.286918485023,714.901808557241,741.285494146415,857.371411182311,664.670071151319,796.849752556875,444.253362622663,675.841806632552,697.375328024158,755.686190688867,452.42485602007,521.975051500447
432.553270485285,510.918497387262,417.555219102504,506.364340992893,570.546194245798,381.2183346843,471.480547144342,549.698503458665,450.164320385466,537.302381840643,618.3578249284,403.771163414755,500.666802399924,592.236934724001,395.986388881974,514.302567214249,315.734305192049,498.932181432541,614.439774202691,450.070195959806,587.778027594518,390.452160768992,591.765930479017,577.683645700419,662.62775301441,415.43352798046,519.98942236206,543.688145369367,-193.504359757864,346.123498968601,56.6407823477826,-548.411022972236,1038.13635195411,110.607415891082,-485.019757807501,-80.2595949306532,316.021064921435,900.877645773589,47.2622239166555,-394.216289152666,-177.416972373871,680.731076743834,-223.627960072165,681.618388062628,337.142581274529,527.426661343117,634.889843260404,521.736802491596,606.527981045175,677.623953347245,521.633400028706,719.373143852806,495.569918197562,622.964384167857,666.763093544581,776.80537140256,576.696096107386,737.114198122934,388.390719394682,618.862931497168,660.907049870374,710.012537802314,410.109205437052,511.769389325221
297.371803672038,346.683838906851,295.744425123277,350.011315932383,391.081274181045,279.188676606989,334.16633900761,382.672568033166,334.600723993157,384.110006457474,440.695683433934,317.257676794782,375.402919926142,432.555818319112,340.748364237085,417.189236479717,317.53608395649,442.285948646737,489.688403192205,464.622048274402,507.868111861819,571.672444404113,607.544606498604,476.68476947033,897.494324299266,428.719551362378,852.206917721486,789.357196249727,-199.584337042815,795.391218653963,63.4399253657543,-390.329723584525,715.055417377367,379.722926680513,-131.42970496261,-277.960691461601,288.632860727179,583.868257593278,168.178337242646,-397.895528077524,-266.067576890553,300.020381652427,-239.962906086789,456.428092803566,186.077172176962,354.768161400017,392.212585730367,338.869369678356,383.782590892624,412.667708038798,335.878884360816,477.608381251638,290.523210253974,394.448947488491,433.648870654178,541.675629057896,334.963625502459,519.9396483999,249.613320743445,432.212084837244,437.905897374274,508.760912091431,275.837003630076,376.578610658549
142.842444678055,158.749938139121,153.250140470764,167.492153441754,184.706442713139,169.317774268309,181.555548202504,194.752633962503,199.32698012291,209.677353841829,230.398559690602,212.434651799786,232.508542543893,246.46595426518,269.737198732874,303.998743653741,304.124149660524,357.369399140303,347.81823190564,445.379829247638,424.254216348616,662.232543919763,584.87496630114,413.120081081206,953.863265397843,506.978670988698,986.878470353312,891.637119617232,87.1922203399914,1234.53767749307,218.38868018488,64.3319042522373,366.276986210143,562.658431460023,300.003097273978,-29.2793981657558,136.613909375129,168.67008605657,378.961690097167,-52.0429148738342,-66.0080176899619,8.32468606840271,-90.3587997534133,114.314951056501,129.286312121672,136.913575748527,84.3825507825513,106.339206877739,95.190592590034,90.7247527255991,84.8312412456505,172.386053075958,19.0070070586697,75.7750768452636,115.895292031115,244.397690813249,-49.8542207592785,236.014199846727,55.2129069473879,113.53905499897,78.9115159877496,290.251567447562,99.8378339688207,218.70441176861
18.7446794968387,1.10375089047241,40.4122343490427,21.3208858984111,8.10477760754691,91.8414510296001,61.4628380914482,38.6554290052932,93.9979929847627,64.9102845074098,45.7566833366016,136.926648338787,121.181222933837,86.2911630524833,226.877290422585,214.111608882997,312.976894357155,299.009197605269,227.992035924068,441.537510633439,359.201116875059,741.259561515078,556.883902427831,362.76570411248,976.493440380961,530.349802611671,1212.47919386561,913.482116215663,382.439884605952,1641.69173413243,550.368654594631,566.638050191458,234.995527190609,860.939611270656,868.164163820125,487.476167296475,134.121868276611,-188.619857763601,714.511742850453,503.197564045045,288.02268155485,-6.61078230572161,162.953032656309,-114.734585029314,53.8426581553581,-96.0187244335122,-210.842073502529,-149.237676443437,-191.524598979869,-215.156105339358,-232.818750693893,-132.274506598533,-327.951887135923,-323.448492235905,-226.357502765367,-57.0822477568296,-534.473822761365,-53.9927817425609,-166.353283054734,-350.21079943073,-283.040003193792,99.8011153743976,-83.7539905517608,111.427115061749
-62.9776403679735,-103.733186765651,-29.8081660247775,-69.042533249253,-114.032997393695,43.5618139681564,-14.2472899288163,-70.330736544138,24.6330821158687,-33.2419297591792,-85.5085930954913,92.8254427406224,44.7491849120027,-30.0830533053172,210.703904873162,143.648447201736,333.219955084875,260.695927982859,130.548922687402,434.356282582034,280.204754977251,814.112624074626,501.370215008133,266.1044620249,1020.90293343979,400.284264672506,1530.16773050878,942.58195926196,428.128964070012,1851.03875849956,858.794970937708,825.939540298659,268.60697296436,1213.45785447641,1411.27802102083,803.498113276512,312.443822360703,-248.257051454384,1010.42355422245,898.627914886744,487.946512609123,199.75973044174,297.098401553343,-43.6373347555398,2.15312070678348,-276.338026753999,-420.432193136953,-362.797965212038,-407.215622651884,-447.34242498132,-556.437224693083,-394.821656477975,-716.436220807898,-754.34977271467,-532.955228434809,-352.787608110371,-955.152133834378,-354.049463986219,-350.614565970693,-836.469809581582,-515.218744742336,-151.513813526788,-237.237423002946,31.5746716140909
-92.5236452015156,-140.168836551331,-52.4128223297444,-99.4779137731866,-160.713371807461,25.265285128798,-38.5031805013135,-112.580688854621,-1.57300051505979,-67.1257452404788,-135.327348510687,78.2783768873158,12.7662653307183,-75.6790355276571,216.25877826933,111.380468003098,355.00163960034,245.283210943236,90.8315320263414,430.458383270224,221.292022969264,869.573501361421,457.013779479204,193.639197834738,1067.52784580481,281.501628108199,1758.80950317323,1040.73154785377,395.688387591212,1841.40602739154,1020.25441439567,860.082662136908,323.805104714447,1446.98502751447,1671.69919566797,870.063910002103,502.992262946751,33.8184418667064,1177.03868820977,1031.85825250887,556.136498071695,482.783642565454,332.688546097652,211.737798877867,126.691046963474,-320.626210421208,-474.945480854346,-433.921492733648,-483.425695397025,-540.597993704436,-720.719010784842,-569.377401876263,-968.048194688913,-1053.58471229573,-694.055413643111,-641.164687322595,-1070.98545822585,-651.089675333294,-399.193989221403,-1024.86059653988,-573.807897217707,-511.866864232768,-287.179354752518,-78.1806038742533
-86.5530471357021,-138.897411738125,-46.861803914064,-100.907941827795,-163.140016976905,25.0530671313944,-37.3096810826202,-112.88614634382,1.65039141249598,-63.9116592358588,-136.253076194123,74.6221965790113,10.6770943312136,-74.8107183811399,219.350626478891,108.828692233341,364.744605127311,240.409045170546,94.4730912925068,432.141967633374,200.147562900404,886.79233656481,437.784191801409,192.918353140073,1055.31529066108,301.548419783845,1793.98467339551,1102.96311765633,532.36902662463,1685.83324953393,1071.54525775895,882.017959870977,342.412684671023,1500.20314819778,1615.89146929994,950.24544262713,652.020976271353,361.304775600963,1267.89212133015,1090.663498399,686.870336925951,751.1679905397,476.463965477448,463.110816231287,376.773560184522,-277.059349900403,-396.405204933351,-376.132239557099,-438.419575823794,-504.441038612773,-650.507695943512,-663.895938290472,-897.774314848084,-1060.38794619819,-650.353900006398,-882.801625747322,-821.667379179552,-838.38882812514,-288.62430500214,-758.08450917951,-506.172180502983,-828.372177833354,-210.769446113106,-210.958460259404
-106.267262427288,-177.65800384472,-71.1110243823144,-141.623924280982,-209.399287192704,-10.8156988223421,-80.3685959000997,-157.953065814477,-29.4475291995258,-106.572219033157,-186.514427564782,27.3803472500842,-34.5264595456753,-122.897340090012,158.571443485906,50.7473118962548,307.27848531435,162.837699257345,24.8080279499551,354.092358994651,110.534183991003,780.491150854989,317.229205467635,116.269799822826,866.181848975193,245.025824267513,1577.24731629959,899.895780089697,628.960978386713,1340.06938435951,947.976768261185,847.221217346303,241.997631168464,1373.28917809487,1334.5324578684,963.356628957963,686.198449346704,395.693621870694,1255.92287325103,1072.69440067715,752.901365265448,833.031591022394,620.355706516249,600.17031968529,481.257065935516,-314.579640404536,-316.038310702556,-338.073193987447,-386.467689843229,-450.967510265404,-497.354209728066,-728.101025159614,-581.421407331801,-811.631737495003,-509.010508207486,-979.360236826779,-446.305118966117,-803.756418561167,-137.103652964413,-337.289802660623,-390.896700631357,-880.427164792492,-110.191044184443,-303.516929694182
-188.95775976554,-288.005000391156,-158.94564547286,-252.661220622434,-339.318499749742,-114.213493645868,-201.818104057212,-290.26111804189,-138.33358098699,-237.541195769118,-330.740646964538,-89.8354337932043,-167.65142503453,-269.096006766345,9.50879765914088,-116.112905901808,152.819618038435,-34.4747988266045,-182.480662988545,140.280522689973,-125.493070916509,510.099707104961,17.8767772700218,-161.584477172563,469.035061666729,-96.0361274925297,1099.44908091377,403.770954229624,337.05979759018,752.189657412765,532.790782472744,512.886382026221,-63.7168773819065,1079.55265559856,844.558859205122,607.974586576623,421.532214856138,92.5877843768508,1033.64849403043,775.058176214824,479.352350469004,543.50434452146,439.077227798973,479.271849167182,256.521803639703,-463.928397265462,-332.136877512242,-388.681727293729,-399.080583037775,-465.418244196144,-422.104404412208,-747.53270053727,-301.267048126805,-522.760556390925,-423.137486223677,-880.068669437836,-223.844461474006,-606.230872509668,-80.9469816833493,-151.084271055475,-301.779690792271,-689.298889726319,-101.636774387689,-333.477637758982
-297.498135140265,-415.617013702239,-273.90735094762,-385.893229144501,-492.581642601547,-240.099460016898,-351.112739132101,-449.187505048238,-283.047766978021,-402.873392948741,-507.629323971027,-231.151217439951,-334.136491336423,-452.221297889591,-166.937169887957,-325.460060731686,-36.0451903941485,-271.653025128848,-440.889890951415,-121.726391781297,-421.185327075946,181.337161302078,-337.346386216318,-532.221832131414,21.1258045747207,-577.094830146598,506.397103188206,-140.87991974638,-265.489204155042,35.3074875813927,-59.2167548076776,-108.224804924739,-496.640319058533,682.057780659762,200.833055591804,-46.9999552312124,-111.181974216442,-326.414205883646,595.549232636738,232.195345583342,-48.0766060719196,-10.6057440708304,-49.4574271515079,80.5892461549523,-164.522088081441,-574.061888217348,-414.730727215758,-441.237510950082,-436.687481644317,-518.09535155057,-401.377651193589,-684.228191863933,-208.44779500672,-359.73159314946,-410.086912362812,-695.384570668578,-192.782910795342,-441.369983053681,-128.09218460843,-208.112978379789,-277.631297639006,-502.323552427228,-177.61615849462,-343.170185954915
-385.517505140575,-508.763232275089,-370.37261037981,-486.876879323607,-602.302143735189,-339.141350074473,-468.295871493781,-568.583881524566,-404.012989025491,-533.516007364389,-644.449306178984,-350.329815268014,-467.110477464699,-599.023990373679,-311.593391819573,-493.05143674693,-193.663807115746,-460.014597036335,-644.107787545163,-333.097465843806,-660.750075388925,-95.5721766094345,-616.272253206771,-833.020158899159,-330.488196163423,-970.96458712182,-29.4838827184118,-545.62179734638,-857.306446958848,-621.555544213717,-596.041012779475,-732.424909195266,-872.127658133847,239.69034014136,-424.542777717072,-643.628505420123,-610.504189637908,-614.430201294796,42.6592985587688,-295.101267586024,-484.501685750346,-488.16872359691,-522.050954930299,-325.98735797877,-479.671043633426,-578.900959782103,-496.964361018426,-445.661036929411,-461.501564664309,-552.632694702606,-373.535712787464,-594.372935462423,-229.43879358082,-321.982674445835,-406.612640588412,-579.012833500339,-229.331392902636,-402.951631881578,-205.525117393599,-289.397318411068,-294.081223912667,-448.75481267791,-259.893205503605,-364.678611097548
-451.842914555311,-571.268227360051,-445.931863969436,-554.566689930135,-665.991664324304,-418.127525127137,-548.299717132941,-648.482004936024,-496.086397378399,-620.8161078465,-727.578377880013,-450.728859713091,-566.858695406594,-699.845701683488,-434.395091371954,-614.03379513103,-331.714600701355,-603.577236994924,-780.39132907945,-503.865338652214,-827.286890247401,-335.107540745726,-825.0349314116,-1033.23175262646,-617.035639320769,-1237.26169285493,-477.898435975634,-846.438223666913,-1299.9143635479,-1093.5610847239,-1017.55397197474,-1200.07739870016,-1112.12585096018,-194.463704601142,-897.308584157851,-1022.62508643842,-908.988373329129,-703.07428154042,-484.166193306131,-685.703577911188,-713.238142894645,-709.596518293561,-825.198992354962,-505.198841125301,-571.290175056757,-543.581927138277,-560.003337286662,-446.763711177062,-489.769827215769,-565.421543387951,-353.160358249649,-553.923311164064,-253.638573110147,-323.625606164008,-398.293582727725,-550.515385451127,-255.13947542918,-417.149153838732,-268.387077609325,-302.382979756992,-303.001358595655,-443.196397605343,-313.07022380325,-382.378143093655
-500.03832355016,-608.890082868336,-503.682879271534,-599.392473969279,-698.944911148204,-484.371141336911,-600.945676162489,-698.082374729505,-566.00913909631,-677.3996210959,-769.255968077883,-532.112477266324,-644.057588626697,-760.51088785926,-545.817598419483,-703.701517506092,-464.202579133076,-718.238644511147,-869.105425981704,-656.497685946081,-931.204160279181,-569.14804728611,-982.009794024747,-1142.36919499933,-887.399778337566,-1378.62786322919,-835.28163958822,-1102.38240919503,-1574.97588054028,-1316.1206588508,-1345.42095850791,-1549.12871945881,-1298.99250543508,-488.482485210747,-1198.50997018319,-1243.6537157398,-1114.68372346642,-758.800819433664,-817.713062603972,-969.774990859284,-867.992056048197,-805.232675364945,-1020.7441739906,-555.734227728354,-596.228550008487,-496.497001832403,-593.988126409589,-454.294226097168,-516.570818124609,-564.099068196954,-346.709499853232,-544.218658223931,-250.137254205766,-307.177359041963,-399.908504521949,-538.035700868415,-264.493194606066,-410.906691877592,-306.452354719719,-292.59643075637,-299.22522856856,-408.74691870911,-345.494455664239,-381.012710166681
-511.119340442578,-603.127458357606,-522.204605694451,-603.28702364023,-689.794328912539,-507.637227135079,-612.184722030054,-695.748887458552,-587.4281827412,-687.434330535146,-765.513607711511,-561.732912306958,-668.679061052861,-763.618646209535,-605.163154110349,-735.542617157676,-546.986492118707,-764.591214105932,-887.703436448236,-742.919891826943,-945.913868070962,-744.566383952832,-1032.50896878915,-1127.87773043669,-1057.18845149637,-1336.98111215407,-1025.68642054226,-1245.34594372281,-1597.86640378533,-1294.19201901924,-1476.58006867664,-1743.93198423338,-1513.04412387186,-558.710844164055,-1319.1188317075,-1305.69463153921,-1305.28398426588,-970.605130674405,-880.513638787465,-1114.48822409653,-978.876495396548,-967.839692294807,-1119.24443723589,-659.080958920104,-738.112229160966,-437.891975279179,-576.629919923139,-439.176451636334,-511.827276174821,-539.266261159717,-333.867906133903,-514.69709355205,-239.63712496319,-281.798320377015,-400.003609402648,-504.143933773482,-265.789057694005,-391.206130523977,-318.464547755782,-295.447779020585,-304.642098446801,-366.179888318096,-361.60424324511,-373.569039101843
-464.20163548388,-539.102383310202,-476.307751845541,-541.500839516555,-615.203992496783,-458.871594730574,-559.327353024859,-621.528826609943,-532.050939707528,-623.837932397284,-694.034451337761,-512.338950914845,-607.614226225991,-691.069178799052,-571.233305324255,-676.625509038296,-535.426793308018,-706.162778206193,-804.831078778474,-715.060138018841,-850.539881567287,-801.322312875525,-942.345124799215,-974.556484244279,-1065.28192963734,-1093.62618585999,-1049.70269172093,-1222.00873214278,-1325.7258981148,-1175.35377538983,-1315.96917912876,-1652.31598626457,-1659.4330458241,-531.759784951087,-1243.62856973887,-1159.85921645232,-1366.50907466409,-1251.05981452155,-790.729420191971,-1065.76039215321,-932.085432601008,-1172.70330700667,-1056.63481352668,-762.97128779282,-978.678578033554,-393.762339409919,-507.173367143464,-400.533634353648,-465.685777919362,-483.452820254448,-307.627574665408,-453.832423878187,-229.540972206304,-262.191499939231,-371.1076804231,-442.800541932825,-256.130310440482,-360.051261607926,-302.674324201812,-290.402141550703,-303.666961619199,-322.604678838205,-346.184420441295,-356.893739470891
-356.84723573828,-417.961174164554,-368.413364316448,-414.991805128477,-469.191497635803,-348.57490272315,-437.921994856606,-480.158475636136,-410.408191866568,-485.344182989563,-540.968409477719,-396.479166565867,-471.635819421935,-544.958446752037,-455.647124460438,-535.640171285384,-446.319929557632,-564.982259327038,-630.170474251323,-597.763933181394,-664.175237129015,-768.074152108966,-760.244312463476,-717.16810654108,-1027.57832051439,-716.154195571079,-1056.15306804806,-1151.24433989706,-892.008525498113,-1165.33906346947,-1014.65530566753,-1290.63911790866,-1542.4235578528,-570.317706204454,-1083.56622624926,-894.536810251477,-1199.31061906059,-1289.99656438375,-729.357953379929,-910.04399627596,-727.033076397633,-1223.16003759097,-860.77012608495,-719.856560818992,-1110.42679210479,-356.053184949197,-402.806426646126,-341.388878531496,-378.447087055949,-386.108803397391,-258.682014515094,-357.510582776458,-197.050444596055,-219.042787787669,-298.185611347484,-335.243901706697,-219.0000107705,-285.541068017862,-253.12923126342,-243.909197595328,-256.620344142031,-241.978223802578,-284.213557327925,-299.265783767743
-211.803771248413,-252.388759280503,-231.400139763251,-248.614169453361,-271.005059237839,-216.493768807454,-270.468909496173,-290.121398155891,-260.123776480404,-299.596481902177,-323.929402083514,-255.528880611932,-301.726728011112,-343.603323122927,-310.322948453098,-352.836420314528,-337.358023600391,-391.669084742245,-400.48530193628,-454.994645079525,-429.371375016382,-715.406560142996,-556.279759865806,-408.733213872319,-1063.50842262031,-316.855049318781,-1149.13215171232,-1172.27154222689,-494.432309857784,-1302.66116838486,-834.573076356804,-855.966176746261,-1077.20954795383,-674.253309582104,-1055.46080489973,-679.713620955757,-874.333493581078,-871.295893891588,-759.751485643944,-806.629229168961,-504.507857334321,-980.805396497685,-645.809321224908,-528.552738034099,-912.421798327414,-282.372480275499,-260.77944886186,-246.7122158772,-244.047059464071,-229.061216249997,-174.327175231449,-211.862917438172,-128.910813820286,-125.948264292261,-180.297474524409,-170.686849790112,-143.425021070165,-157.591664533735,-173.154407538656,-150.954249011311,-155.811094036154,-112.335322038019,-186.113352207589,-187.389528299108
-57.6124029899286,-60.8308088528501,-89.7383472979325,-64.3562248184485,-45.4708199447322,-90.148162231694,-87.1983816356427,-71.7239308508342,-107.478090290514,-96.759357091394,-77.0196226130207,-119.014959708095,-122.741176879241,-111.67256265856,-175.318854456472,-161.313542453529,-244.252490711105,-216.23576356457,-147.448528967865,-322.003346384875,-188.126228014111,-657.294556277267,-357.812690286901,-99.8813828497178,-1083.52585354626,2.89351613137209,-1226.04092761192,-1173.80319401399,-214.187355531109,-1386.45613407161,-773.515220360004,-494.573973856181,-343.247781123012,-754.129665774503,-1185.34139004481,-544.514352762535,-482.64220140411,-64.0630121535334,-816.997433640976,-781.689925369611,-316.087993349402,-440.68730200753,-415.517425749371,-263.183634970118,-335.263976022421,-156.912845349634,-56.5191897241652,-106.33834551545,-57.6047411289417,-5.59151955825174,-56.546680248311,-12.4336606222857,-34.2332428132609,7.61312383187924,-13.4976293494869,40.9780826392189,-33.7031769357747,13.1135262826895,-76.970833613503,-24.7496018249751,-13.7514375477837,56.0903846969226,-73.1481629411742,-33.0345804233627
89.3980654330212,132.749750133599,51.0046922567326,120.434121622376,182.172360976557,25.3301637206591,88.1277038282856,148.051217750681,35.4878698953049,98.4562549828833,166.511627369091,3.39340816312036,51.9324530601602,115.640298089453,-63.0337125121541,15.9793295905221,-171.061497502434,-53.9193554934808,93.4731135295921,-204.141597459131,27.097886712057,-579.11327238844,-164.342837746418,166.047855549355,-931.302150955235,213.049355178414,-1124.95104616421,-913.572857795184,16.4720731263476,-1194.22583387218,-574.379931405478,-162.77048787591,453.867128497878,-730.594996828968,-1151.85433198652,-355.350524652932,2.34532267357014,775.603134562471,-793.422614742866,-716.815496893292,-46.6421066355327,264.34583005183,-34.7542281396054,48.6865338472304,427.436667697778,9.38291317542174,201.708309655473,72.4369493947471,164.958641564421,257.681555515414,82.5408658789458,221.801360700858,74.9772621357638,161.198960878848,191.313971618741,277.892720715915,98.0052668141575,217.423066966128,25.6761891510484,120.40933767904,159.364650216997,254.826928872487,46.7731172157331,146.170783899761
213.841789912439,296.430028742446,172.92025804428,276.767741746871,372.407114528978,124.902314773521,231.94529958716,331.93617518639,153.128329289149,259.597229840426,369.607839667009,100.621590173564,194.233438796915,299.81640623354,19.3005218299949,156.244066809973,-119.551705756427,78.1306513875334,280.772473369661,-107.633112506703,198.805565363383,-499.986233947952,12.1742800202632,372.153484313514,-639.102002518582,361.862178700874,-882.378586830249,-432.790116469955,319.999210908449,-815.768352503294,-147.582446908666,270.008701796823,1051.16915279645,-571.157558703276,-684.633328602973,-41.8498646460716,597.132306061195,1249.05607915748,-653.445135724077,-534.325855263729,408.80050368248,877.746474526053,534.709838593072,384.366197017369,1044.37469916842,187.721098433336,435.385369536292,253.689816177417,369.210737316541,487.987985808214,220.023419740711,435.575638828622,177.556224765104,308.38064728547,376.321876754047,488.008014337826,227.327730155373,413.265205203109,124.882680493392,257.904276642984,328.344732934179,441.765123127429,162.430740577015,312.933401060775
301.291956498346,404.802222693218,255.191480021843,379.547192600136,491.197672778672,201.896602661337,327.721574404039,451.381369800051,235.288522617159,371.149679937196,503.177688065349,165.783934964422,288.026016431457,424.608513897794,76.3964243787039,253.845316937615,-78.6729208887948,177.362274282107,400.94249549577,-29.7558674136985,325.150719747603,-410.330306746194,145.712361239108,520.225035138736,-364.463718507564,482.509908384843,-677.246276098661,-77.4380163339369,693.727256126904,-601.034563901549,280.648755193168,817.853545802563,1337.71495158952,-359.273580861449,-25.1756338788409,282.137219464671,1178.95900711467,1279.88726040539,-489.305793725039,-281.682509965664,968.891849918979,1211.24964365964,1127.3843653446,695.97504315761,1259.66747291988,321.146189379552,557.396228620466,375.366944647044,491.623124936456,608.523526292104,318.905245596642,563.2334901684,238.917854413837,407.879735072084,481.149966473909,609.316260623852,319.909565719114,530.898429562259,200.957659476017,353.30007355986,438.686727223654,552.913008412112,247.255597488005,419.580720608578
362.285770693597,467.537824613676,310.889556908358,440.220534412501,552.930486819212,263.289497958495,388.349995384201,518.604616153668,297.325526278917,444.841534664041,578.175118486126,218.052136504742,354.474634928558,504.725144490636,136.772552694323,326.355057794674,-14.2855498687982,258.837009036993,477.844324011897,53.8503253216547,412.514432542941,-246.719011089742,233.648331742297,600.119851486497,-142.330585523058,536.439243437133,-536.229145241394,-7.57575156375922,947.676447303921,-586.844223348166,497.179067922898,1326.3747747925,1468.68697592934,-267.869651630957,405.658881910748,492.086818260237,1601.72869544958,1144.34987388963,-390.550809794718,-25.4925098641028,1369.32303155199,1310.57730860717,1546.60698258222,944.241607124566,1090.70840323395,370.429373228477,575.860148466182,410.012217077981,529.835609324372,629.038391643328,356.023500673703,603.866279739092,245.273939763081,432.320856498939,520.629577758489,647.012027465151,360.904869736304,565.890884070154,247.970180930655,399.703225746838,485.219646815434,589.470192659906,296.896417645571,465.612254634908
427.464202417669,526.28301547563,376.946131520909,499.590998969472,610.990335033348,327.734495313492,452.051427562044,580.104721585165,370.144059833002,511.453909349547,641.4244766969,291.134778615381,426.885968245645,574.620849787505,223.498399925752,399.217525955225,92.8994484506064,339.995568229351,546.665489368747,164.691427260573,482.872230074863,-5.97390380150494,322.109079819679,627.609558667596,122.502005394708,535.209396940534,-332.639621891438,55.4413892883463,969.026932991859,-352.539441553358,558.545344236963,1647.49330782856,1622.3517166634,-404.149516113176,631.320874192382,618.717824428943,1812.59646698941,1139.9124050423,-294.400602951607,241.840866965942,1385.23619548576,1328.92336051562,1699.80010665228,1116.08446536856,818.568135927762,373.682688466865,586.285966656007,412.390564621994,551.941745834051,643.624539050687,356.82361268846,632.821119232135,241.337604104012,408.067623600336,563.482293468124,677.521212191305,378.013709353631,599.75300027937,294.180012577414,433.447295752651,527.140531385429,622.285821664716,347.713751531423,506.541015245862
503.357644821316,602.291007314296,462.633029223107,574.259258873842,689.105640197819,398.859941128888,534.33219139945,657.227620384283,458.955783401334,588.341649225762,718.550935932281,386.250742082377,513.871478571901,658.099965512432,326.452310485172,488.136959924257,218.287236482791,431.573899377432,628.880993565486,301.974203532917,573.400422674016,231.612248925333,466.479641443075,680.767633763387,452.289309483446,613.343673710142,-27.4614579665823,395.80748694527,940.753049045558,266.907055269258,631.090137975044,1785.82972389852,1734.8022525228,-670.022013107311,902.818826699913,754.370806352468,1752.85044040708,1284.98901081976,-82.8771683514655,550.190523725141,1074.13443189313,1292.12613382007,1596.40044905874,1173.74745586863,657.783751904616,414.196335962036,646.917645377524,459.471205096695,611.590522671068,706.810396298157,383.289817178806,702.810923594593,302.041431871541,407.20901448467,641.733176243817,747.403033925949,420.800333985319,679.27375113636,365.921678497018,492.365201864226,598.855137346134,688.322047788359,423.195272447396,575.068408077394
562.024542257718,667.939133013282,532.268358641908,635.963639499856,754.069933209443,453.929648645365,602.782723244378,722.003292477745,532.351202976637,658.616563667902,785.60766360771,464.981576761352,591.304351794676,738.439613720394,420.635562883464,583.037125110772,326.877334741444,531.100779028911,720.955796147147,455.115739077084,699.575600924513,438.228250770377,665.980127617859,813.377267888095,790.785785364708,824.094808088585,403.040060772389,895.727330628289,1103.83016360773,915.976117004953,756.293102503189,1831.49714762287,1636.17773337016,-691.099612761741,1140.51340009287,908.140908197273,1357.89352329696,1309.52100371223,237.833870255938,869.007379328448,679.195728808444,1092.50041510154,1330.55696426616,1024.91103539811,511.564474043391,520.458405044042,717.048160889953,557.537567376063,685.684940972584,772.59430730672,472.081044044515,777.098664575326,438.458485586233,484.75773881903,721.76194067476,815.932903490976,508.779691284354,752.657451047414,447.317040463496,568.374383032852,661.849873401341,747.82580172478,495.627557063839,634.884120875633
583.997538337604,687.828056182261,555.308380649043,658.273912331082,769.306081561515,479.729958768355,627.971016134114,745.006049211095,570.173462196903,695.466829156251,810.713211395294,508.716775013835,636.389719489731,780.293336431855,504.588604435187,662.665385751469,427.532687805537,634.255565493312,804.40170122291,620.27328674372,835.965779839512,675.895892901715,871.347323330346,974.565710793337,1152.4133448804,1029.57018916213,1074.18824560929,1343.13016551062,1407.97143274121,1401.09056029246,944.628186249173,1822.432934508,1330.6210451655,-98.1497414309541,1178.4040125429,1056.07916747442,806.674406807235,977.100896311657,586.44811909252,1132.71628208555,374.495941324207,746.054724293239,996.740940381473,706.933632595884,276.204622440203,614.226119679666,725.179538978663,632.477530469778,709.284682249218,769.170757399333,572.711337593012,789.125591065345,559.066426951095,597.920963676136,746.990418865443,819.929792603641,592.127093242778,759.12818981256,497.456902926661,617.156484894824,671.853966178647,751.303827227148,526.937090458301,639.713227782572
554.671408332674,637.530533517779,523.34165096527,622.0688013692,711.17365474032,472.89852909982,601.046991439684,702.94156276788,563.561096587084,670.118299990119,763.985134889121,519.207108026749,632.545197814016,749.5695016711,569.735069170333,694.906138297152,528.757844723199,713.118056147859,830.938207253362,761.763020648736,912.464489457174,932.494319297619,1017.07417242992,1045.1313680718,1515.0703234564,1111.61657438962,1837.78067553266,1719.89899709592,1568.3566358934,1845.00161275599,1241.40950493338,1697.7353406012,933.508557002927,866.112944941892,1173.53932508435,1207.60399310795,435.754528982014,393.113811363521,895.417240618785,1277.245891846,215.224205482315,472.362346337455,585.544232752874,449.483499036177,137.427684882781,574.102553730546,625.230626527032,586.285825074202,624.443097026639,657.328147262903,560.051494330158,700.935113676657,541.21555390885,600.430771817404,669.211554514558,726.284299164317,566.0565683173,678.689103907566,472.001721680306,580.375171708887,609.135159497036,672.182543052797,492.541154189695,573.239656438496
413.125705518213,461.35756608389,392.571190620893,462.00400695609,516.080195526707,377.086620566589,464.611142053258,524.708507287661,446.321538823957,511.368800837605,569.038927061334,434.606478198071,510.009064028067,573.050349715385,524.846874757979,586.097077105673,536.27503110893,653.816370742015,681.9289904092,751.814875664695,796.380210690434,1024.12221167623,981.916891354241,880.713861577686,1632.56152009193,1026.5197760952,2185.50932336919,1873.4455428438,1377.38816627928,2078.60673591385,1458.37222426274,1339.67594421826,439.610052210971,1454.02046392407,1212.84177004085,1269.83693006739,242.013102184248,-189.454744849762,1031.22027220193,1210.14098946244,126.891579838813,326.521489892739,52.8516362889575,298.54592889579,162.242333771832,350.547815356861,379.736792706393,363.197910228061,386.472530227598,405.288851183896,347.471555258749,469.816483238162,328.652818771228,377.576868969538,442.590029284555,490.858695075069,352.894053194851,468.940073622902,320.204165469788,393.240844683751,423.269953819237,461.878739241367,346.024967659035,396.610581774623
99.0431731572394,104.776545410622,102.759599691493,113.476966465122,121.848609803307,116.685799967529,141.319575137751,141.178556021292,141.232026292658,150.472747294413,154.126933275239,163.984092186469,184.044378990084,177.601755338454,264.610597383021,240.747442085908,327.318926528816,338.449732023155,260.084882110383,466.429048139864,387.985746470556,783.509500272741,643.714998215624,396.658112855358,1261.9647490379,686.718186084611,1864.62292918088,1513.85237450009,851.148565626897,1769.4634939808,1270.50796382263,713.577982010187,-215.20279370568,1338.04373044753,1062.29595336287,1072.75110325907,-67.9286653281902,-768.089666601027,867.030366827041,899.555482671829,-17.023594944746,28.7697767434985,-491.201182491541,34.9519193561486,12.9245934210538,11.0443564759333,-11.4772492152123,2.99759772076325,-0.0155559012976312,5.49459598708104,-15.8565606884379,66.1834686572758,-24.8996108629331,-22.4512549249971,52.5937386147804,77.7450688696963,-12.8551462216363,84.7600354096926,25.3101396580026,40.448439983559,62.8318588271853,80.7661887660371,50.3599931413431,60.9770450406558
-325.691886713393,-368.374622889613,-301.15358444654,-355.939844038713,-397.094367842556,-265.025519243912,-313.972678164625,-371.877219324302,-289.153970866419,-341.257464570038,-398.249586805431,-243.768228390855,-285.398099619149,-358.827444787853,-152.42843184601,-260.066171166459,-47.1590467762224,-152.337869245552,-324.110658890856,-9.78307204144849,-195.434763341344,306.695952494918,90.1406145906736,-262.177442779638,561.933802348494,130.235342431986,1201.14198348307,779.2968108155,197.586053556726,1084.56628549953,758.80974448243,16.9147988774812,-935.856366622455,887.404670376482,687.057157446679,667.565589697776,-474.963356534514,-1452.96380066054,497.688910631718,486.102319839093,-191.010485257163,-561.007344831272,-825.075701368895,-378.065287704521,-484.427932948676,-327.362302749544,-453.235236012949,-377.923751503007,-438.009214225458,-461.899801999695,-394.278192735046,-430.476211159267,-395.780220197085,-440.191078253485,-419.137889059394,-437.570056360824,-405.094448678537,-406.844950286926,-335.655450436101,-385.825385306858,-406.518685240196,-399.262061202983,-329.282347499645,-378.727436544215
-680.071088211836,-770.05653363176,-647.527290633029,-749.848112307275,-831.555041929148,-594.305998336996,-699.437144447681,-799.548161053435,-648.690106512738,-753.681967308597,-854.383368079986,-586.450073694808,-683.704364801417,-803.523427385743,-510.348320756975,-669.446298670584,-373.13018342214,-559.379011507589,-789.17135808384,-410.651930310407,-666.003054598864,-108.661759758133,-385.587341785402,-772.740788574553,-4.11868838978014,-364.102018480609,628.485835862491,183.488457874439,-298.041532905449,505.589887634954,335.170676298855,-435.1085386045,-1487.51599512674,522.814732610657,388.213346272502,280.278566480095,-659.036804299722,-2023.48591182408,153.947326696762,149.104977955709,-333.145289538165,-1116.14872488221,-930.981247887203,-779.447336493032,-945.164982543567,-583.617547723054,-806.100021701423,-671.561656468989,-787.256806179279,-854.436749550023,-675.453786948036,-845.375503774747,-666.581185231994,-743.490845618398,-814.813267570289,-876.38369916023,-702.859035714561,-834.069119804283,-623.893615331187,-734.387064809352,-808.616930341891,-817.23836302161,-642.237170518061,-761.482133072663
-827.880457204291,-948.558492586622,-796.341999067202,-918.957250337025,-1021.02485138792,-738.553693898381,-860.230489655255,-981.750009736164,-800.164200542162,-931.291531961247,-1044.59796253597,-723.079746224105,-852.824004567211,-988.248049249851,-660.880669206911,-829.168457009714,-513.064298957278,-724.657628325666,-963.239191282295,-576.625243801363,-858.494071462965,-284.953156325132,-608.702786553737,-965.020969332635,-212.081893157227,-604.043680873194,230.355926790641,-85.2716597354888,-482.269214668733,179.069201061053,138.733063793234,-530.182328937015,-1706.94697824309,286.953739058953,291.966107808647,-7.9658561362488,-587.167511289241,-2064.04683147624,-58.4503344560799,-16.6867191695829,-513.760732793961,-1255.09663579483,-984.128204328299,-1158.09741567549,-903.172073078047,-722.693504129438,-984.318206570468,-821.854139122097,-955.104981911475,-1058.62722018643,-806.940824774652,-1043.80140151426,-778.286996583118,-881.618604423938,-1013.20053148875,-1096.09838053689,-844.710282839306,-1062.19757865283,-749.126458182716,-902.59950118689,-1013.10929842275,-1054.42954146694,-784.520009484932,-962.22118943988
-786.871560604312,-907.702535110709,-760.90824200957,-878.22817839824,-974.275631443443,-713.055644728415,-816.675553367572,-934.078493187391,-769.626915141606,-893.094288816313,-995.782279616639,-693.33244999206,-817.941214819224,-942.395396517366,-644.032607214455,-794.303875364014,-517.58523447484,-714.454962869392,-913.638912169249,-584.485292680432,-846.48714719624,-325.92854962995,-671.729128610248,-939.089231017848,-294.108866341346,-671.051350045957,-166.288281485974,-304.417974066587,-435.21596988342,-115.434755236724,-6.51774205097232,-436.427808571693,-1611.62862703179,0.900493957917071,235.296783157789,-224.301475692311,-527.892484019927,-1545.64830299047,-196.696674573936,32.1814579143055,-685.731018933408,-993.264367969209,-971.891342675356,-1455.79696078611,-358.628049075489,-742.448304081972,-972.889397223408,-820.252207643349,-933.898222020822,-1038.69971473443,-791.056317630167,-1014.30545825325,-743.095836092433,-863.414570202884,-997.611689506626,-1079.92375228629,-829.518593127645,-1071.34844391107,-723.014180327958,-884.961932873401,-1017.93406906218,-1081.86525649411,-764.932197243255,-966.6362098862
-634.805840691364,-728.925151252733,-617.053950434354,-712.298855213165,-780.350519751757,-584.71242203581,-658.2049670305,-749.139568288399,-636.208590161209,-728.244791097514,-810.321120779625,-582.054331256482,-671.986178239742,-770.411990113634,-558.018826130143,-674.394149230347,-483.050875165225,-639.944604576639,-772.154195589848,-564.422862915112,-759.34434492387,-420.534881207656,-714.782677484195,-839.946125375472,-537.546429315199,-701.753065395818,-688.581864183652,-688.083493402823,-368.682565218846,-546.424881406958,-235.935265574942,-380.269095043801,-1293.16746100204,-414.949437865956,89.463081198032,-378.283422867126,-534.479961330569,-828.102030520726,-330.995707455232,190.73567800894,-653.707792194072,-586.023686552879,-766.949831407708,-1328.12656382783,301.502936628051,-665.288563044727,-795.098212255814,-694.269873425966,-766.634153510475,-826.640730576989,-659.571959632621,-818.908686563949,-597.852100909534,-712.397445605374,-817.11470126214,-882.175070600832,-684.516110820451,-898.954188474312,-593.773350758855,-730.980638741277,-865.022323622742,-912.151662077868,-631.599529685727,-810.961361730058
-409.751969368623,-467.634958298308,-401.412259956598,-467.460018826917,-502.867726624176,-391.000829965307,-432.562285354615,-488.701909623236,-435.937338404494,-488.425196760394,-544.304533220984,-414.019875257896,-466.520592193058,-531.682832769015,-442.61834492868,-514.140310935263,-434.677790822341,-536.355424801377,-593.594207132499,-553.081262161865,-660.025891231262,-601.338104614204,-771.891306882877,-745.605540277875,-914.637321734905,-803.536098299177,-1275.89602628683,-1147.49777072508,-542.359344882505,-1046.08363070961,-642.28984848414,-543.767900713242,-811.03300753956,-834.564308472713,-198.251544192407,-630.293061890728,-445.171235689121,-111.849840070064,-472.625079440471,138.72992452292,-519.746190840188,-220.23328666731,-540.43608607859,-677.364530781767,766.795951641892,-509.452026461182,-506.319710973128,-485.752045300658,-501.768590177467,-497.819452580394,-439.715933385583,-520.05047199929,-368.300031934475,-452.829750971492,-532.073757383862,-563.00051745562,-430.34394829871,-597.742058917281,-384.867915067136,-488.100132884951,-578.356582224342,-602.486605723923,-413.722046438846,-545.520410980523
-163.350141700666,-185.247390840028,-165.715443523346,-197.032004662694,-206.58050135933,-187.802493324248,-191.99496666976,-213.320359864056,-215.030426023024,-228.821696997956,-251.366903213665,-225.744375158766,-251.834628288705,-277.303078429547,-320.869257872952,-350.338421321993,-377.063258976903,-429.478606087687,-410.815010807085,-539.296277586982,-585.001208974052,-758.24870572353,-832.750137057193,-718.147450882724,-1194.78366311952,-1074.82144534725,-1681.58445551822,-1536.96193986656,-1101.22822116386,-1468.88859147015,-1319.68125749191,-1066.45555114983,-262.199901215321,-1113.18650149819,-721.917875568031,-1225.38877418043,-350.958429844198,644.527804563384,-632.279846611859,-352.337709066429,-641.309906547825,-4.05010252739678,-569.873490191499,-24.6212998336593,1003.08415422514,-289.651908329489,-190.374555477336,-238.21439070485,-196.476233486616,-149.82849735023,-166.301430275535,-185.744788230073,-95.9361204519924,-137.973439893903,-206.215818420148,-211.296011059851,-94.657056433279,-263.884027910233,-132.824061174308,-186.030781824636,-218.825199358274,-280.171166768801,-161.428867572947,-265.897938132867
21.4932971474857,34.7417006172643,6.83843918543512,15.0463703766697,30.735511378269,-45.36720334593,-10.1955442555567,5.337953475176,-47.1582014016988,-24.7895025626198,-7.36495293747505,-87.5944907201303,-88.4921236561737,-67.4447447682778,-226.069376548362,-222.994441258702,-331.198822668433,-348.882153281676,-261.122962921751,-513.298453536186,-531.899636620927,-811.056127881273,-864.127580504383,-730.814324005665,-1246.81978058489,-1390.61473289041,-1698.9979599192,-1785.44962401422,-1752.50629595145,-1741.14599125115,-2090.47779007134,-1811.3623830565,187.731131015652,-1240.93835222156,-1433.31641435376,-1991.13975479845,-560.055428123391,1329.26077868917,-806.193322304794,-1072.93090811742,-1017.59854009885,42.8275258976078,-740.384249767145,129.797583470072,1020.47981444181,-48.551061193356,88.3032186228927,7.50538458409054,84.3449143664191,143.326725574458,109.955896959152,109.809035017271,174.882646697944,173.744885549279,103.255367942035,82.0792278068822,266.12335103299,14.5490148971906,91.7489064561796,157.002617899426,107.471078043701,-42.8015388248395,50.0924033564289,-69.1025158078382
107.852309445013,149.442918694282,81.0184152324638,122.439205822263,166.121423805595,14.847996681251,80.0829048524865,128.2719030731,31.8724213939611,85.2095630122031,139.112041385466,-30.4653557787475,1.00668097170285,63.2140316460904,-178.009468115425,-139.375989540159,-308.976834212357,-292.337832409946,-155.966901027275,-478.06607922416,-451.212749700146,-811.811886281866,-814.533403431799,-656.928237544875,-1165.24157367378,-1407.40409624777,-1503.20558907633,-1803.80113581404,-1929.1019875846,-1829.12852215376,-2442.54692191592,-2278.40676366475,426.336835926255,-1259.45969126913,-1958.39291092541,-2322.87043438526,-1036.6906809284,1593.16994372319,-896.243059817497,-1522.73817478951,-1226.07372107188,20.2046270705806,-731.12866220297,-85.8743058240227,746.049618108261,142.286203997004,299.238310620165,208.364493333307,288.966432687971,352.84668640779,340.152290418492,324.208720577317,422.507761324121,455.420399662006,348.572211138575,301.592760745056,564.972724825123,238.660918766798,233.490437070305,481.341710906145,320.529948347215,141.630099144885,176.45172836999,34.1214455582106
117.30168622475,171.593250489965,81.4143893541415,138.861799393003,201.056979662285,16.0642056901288,91.4524027893385,156.529304139882,36.4819219779852,108.137551866597,183.633018989955,-34.1191694537109,24.759731068887,106.619149773099,-179.057370157974,-100.140837189921,-314.050632117252,-253.049410726524,-99.2867860790145,-453.502586076392,-332.484943164755,-850.021168071035,-684.430643345007,-461.818730053261,-1123.01576887968,-1011.23020717618,-1459.19323983586,-1533.14758509987,-1495.47084604012,-1716.55352198535,-2033.28370878247,-2103.40937973117,456.331270005314,-1167.03207226288,-1924.03262885619,-1960.69904859585,-1278.61712376311,1231.26440719487,-795.615980260363,-1439.22065759906,-1033.55890239299,-50.4552246690664,-554.922794144811,-259.014817674699,249.818612557026,242.987138610219,413.886032748317,322.87164008413,390.437373711627,464.085804186341,477.18994183931,455.813206553895,597.646565837922,666.829208190052,481.631097203972,479.172523058603,696.429111296133,433.49124384894,272.716225451736,646.915803299071,396.301205184679,340.296245766429,211.074447291328,96.9367372207607
96.2201130825466,152.894805333629,54.610690272766,118.610531133003,184.373247256719,-1.51346057740876,66.1360463962164,137.024688263773,11.8563791452646,87.4951970185207,171.916364642862,-55.6045315047248,12.5635773172211,99.0526027856694,-194.134391384154,-87.9578543924894,-329.367581963053,-215.558387408179,-67.4271656262201,-429.804672397043,-205.810139367692,-890.487013495774,-511.527419443214,-232.001684126551,-1135.90975515396,-468.788604700596,-1568.44832013603,-1110.13339553134,-852.266195484128,-1466.02495676898,-1175.13888287556,-1446.41065738855,379.38670591794,-976.695192158304,-1459.23218628853,-1313.90304489377,-968.559327139412,581.628809729985,-578.747990179258,-1059.02264134616,-669.100704227019,-217.743968014039,-493.672038786204,-257.565697205178,-155.89995470163,321.436106111188,441.242559433401,371.779112936849,419.859308598899,490.187503145297,513.269087688116,538.413769813663,632.113113119482,746.836602418252,499.8598801809,625.91362426031,623.334486584745,566.55648539867,225.684986773875,565.926008718107,369.11029524985,524.048684543936,173.262421861321,160.799684755548
110.530100640163,177.950992574396,65.3881976738396,143.396350411484,211.296929200552,19.1620922106198,86.0980615144546,163.304591332852,31.6798945873559,109.974080659732,201.202586226916,-31.6215378604224,40.6283367285699,135.094062527899,-146.988331464207,-24.2227829909956,-289.931049297571,-118.572267246963,32.2963947017685,-333.455728893788,-39.7760340482478,-795.643467381688,-275.249854181083,22.9316027591926,-1023.93067018834,-16.4253967397735,-1488.79104882486,-734.551305981494,-292.030337717772,-1129.88474312215,-497.462195666731,-649.199505883147,425.202403997148,-757.227439895574,-1017.09764392557,-793.913651702244,-373.974607973314,362.144720141777,-457.085600041728,-744.893586595269,-358.727954522432,-246.245500920091,-587.72768449841,-130.494783299485,-187.7084041401,491.038087024123,458.883406945614,448.571510750006,461.653503860107,501.83383993514,523.54192698406,621.819283301032,553.215710779566,704.298114333335,481.695686333248,732.322104723974,464.43072614339,610.654029167439,168.447910413744,369.051437382954,329.442773818254,617.739130129328,133.46820259875,244.372933848485
224.496849775549,314.026072999225,182.790798727418,281.086153108684,358.607441170011,142.334601897546,229.889578280689,315.128777677523,167.406117463451,261.27775260213,360.436775990203,106.609045720615,197.268058089572,303.640628137197,29.6438252792962,180.500172837504,-112.380389670195,115.976228731677,293.638540480614,-73.8969241885573,258.178769425513,-469.611542590153,103.418852177175,402.695420130325,-591.633686268499,403.473881409565,-1001.5847336849,-328.198427159172,254.943680842314,-592.482962607334,-112.686976030967,195.158748730801,834.55841598292,-501.629576959403,-674.649305909136,-298.082395033916,223.211310789625,887.55236753926,-472.464328581278,-492.007528948974,102.667754090184,223.93815210845,-490.006257022143,235.810969081505,149.598938257094,732.888186395958,527.834412272798,594.776208227835,559.294148966667,564.904960465806,589.507172944379,721.028462851076,494.8488291014,643.294132771216,514.86947856648,791.272353325667,403.065940282796,611.254566539444,206.32264064395,300.77935188713,364.746744414581,630.606647778609,191.607618103257,363.082491665407
431.780738225329,532.437524544643,404.351256356071,511.53860995096,596.821667874306,373.675181251621,479.036494724874,570.668332002961,413.638834482046,529.205124766771,630.762478152488,361.827131613996,477.431294520195,589.001223508415,330.193074335108,512.837602766826,213.941459102106,487.331330367314,681.8123689569,347.670975176755,694.967250727964,49.7451454566979,623.68399803508,910.350066386806,121.893596996307,907.863638532298,-219.767563051652,310.261109347831,872.201646183308,213.71425174353,400.882901495426,1097.4070382634,1511.20203351916,-100.383085014781,-111.131246178669,449.824596834113,937.679379078028,1624.37502222679,-412.166942219514,-72.456681310339,949.793891196967,1013.69380839987,121.84404615411,881.173354451179,564.609838999929,883.798048888855,616.377820004599,723.234359538757,657.331207778047,655.520814867405,681.853287317864,790.408009098519,533.181134172499,640.605315478297,596.37491660762,799.313023604901,484.358342283457,623.573745101213,355.730382006856,428.15193155076,471.391999646274,637.821745010016,362.643413158864,504.053968677475
625.073738864366,715.649215279307,616.111579559317,715.57016822327,796.396811908477,605.86603937858,705.002929685844,798.927732760564,656.991417217105,777.492850712452,871.561842240594,621.210326017378,747.23316424478,854.631678683152,643.644851125128,830.485081106191,564.911486769648,857.387125400703,1023.05268795139,774.644197919649,1108.22754327603,583.255823999062,1113.91553960772,1361.73177241192,789.267138467082,1413.18164410783,547.974228312411,1004.00007052144,1442.98884423405,1015.27994699415,1116.04611221087,1858.72929002041,1983.04187597085,403.243319143652,681.345166101336,1326.96695935689,1717.90886101331,1830.31767022233,-132.602049129824,462.509609837023,1835.49687262883,1466.44864061972,1094.48586365906,1414.22787800315,739.143260211609,846.561358878902,659.251207336933,733.796296934161,681.512145446044,696.147310162347,700.891900259317,780.063773290735,590.376440278687,655.019230942276,645.47493830166,762.454103759345,581.259408257938,640.218618756655,503.72386253729,578.298842532081,558.443553872798,657.397365987653,530.985402668966,605.71859226528
703.014060894543,783.423076802971,709.640718167548,797.185919545997,867.227388094608,715.521994285661,800.455468619504,892.105290456843,780.026655105884,884.071404565995,966.176349694769,758.455663892908,876.511493030059,974.871005472669,831.077609600313,993.79322602067,781.169619543415,1058.64814969756,1172.43939991874,1023.15211649449,1311.45704263003,943.052373390129,1374.06322702182,1566.40658954952,1134.96689824506,1714.57394665607,1080.4098893945,1357.80217633156,1792.80298602075,1473.94630681743,1560.24854230569,2191.96678947838,1931.60280393394,778.933857024215,1276.93666531088,1871.97936187277,2089.00507600693,1444.89336087777,245.553505638483,843.81533868374,2160.38338129935,1307.86889318377,1893.16215235112,1432.93997923164,701.31735832968,723.699717361141,665.365230945732,663.77947122604,654.723885967313,681.357139980007,636.116131799184,722.359412751616,576.355091481687,625.597576364986,629.344466150701,716.974916800539,589.074364647424,635.411190625108,552.578025504245,602.37709726656,570.044937201048,654.542649374092,590.98317051805,626.633695554731
672.287203990739,755.842229002756,689.014727630105,767.696905098257,834.123526340484,689.572822762005,772.948319103733,857.644332236646,767.942258648246,854.578275571078,926.117663229007,754.359783106178,855.979737487364,943.888521900007,848.977050626444,981.83802294264,822.306615807657,1050.43198129754,1130.76002091033,1055.02269982612,1270.53231043583,1081.01346636712,1367.13594068685,1494.09104355353,1215.41927032349,1698.21510363332,1365.88707419348,1341.80341913218,1836.52773099064,1564.62914816884,1523.69674640989,2056.28243164389,1537.97584281711,928.994449984362,1440.21355302672,1882.96886324732,1851.83420546044,987.815199450093,534.877830730891,1025.35680886648,1864.56530723165,933.135988810133,2138.55503951577,1075.62872913174,735.532592793586,666.88456886879,683.749520894477,623.219616385037,648.573050084999,669.035678314237,573.565095451189,683.803315433913,516.674713182003,569.509200522391,592.082986893208,687.884267502137,537.083671011788,606.862352589989,522.233785532289,539.617836919187,533.52249231055,615.004964681083,557.348773896019,587.953605625735
579.215150694511,656.85235458482,596.152007114907,660.335826735543,725.56566610881,582.434051597934,664.002409030635,732.4590188671,661.416222832027,737.184256542146,794.516775912821,652.624480230361,732.483224411952,804.113977212729,743.655884001376,842.328362431069,746.079189675058,897.898161990872,956.364910560441,942.242029997928,1064.97279871612,1052.20938895334,1184.46911323857,1221.52968134881,1195.36718220164,1408.43277357123,1431.80123471679,1223.29300229132,1570.08322852242,1431.99911515168,1282.68572141665,1650.84646548582,1134.31961640334,933.601054320393,1326.91947571811,1565.86670964029,1355.04098003974,755.955143171857,662.883722848409,1117.82888599007,1368.73798801128,708.056516083781,1870.50255254273,675.22306156391,825.442293812946,649.126383849464,666.001240010416,597.093021793826,626.902903192567,631.056524229935,528.292908120723,627.02985692399,452.406452016012,501.172567890239,531.896850902382,616.617272279488,465.908979013987,529.008486637446,455.580963805773,461.341169862305,459.336971107586,516.759665553959,476.918523462415,500.815743103165
413.829952695715,455.710754877826,426.164343087841,456.218499306736,502.186672657114,413.411863044957,466.999051756642,505.510216026346,471.961658768769,524.277551774653,553.049842758772,473.170001104172,517.586677121444,557.431469075388,556.414396844104,603.034638933784,592.298792417254,650.706870731619,663.685354210348,733.909086861865,750.53682011693,909.989071853419,889.945288644921,815.313734958683,1073.05654089331,943.575219739983,1276.81681891489,1093.24323633841,1060.23192786542,1165.07793144452,1018.88224742925,1141.46144012111,757.578961054466,830.255460952968,1119.79745926214,1133.25428084846,872.706265771415,518.45816467642,649.615375872161,1083.73468402114,917.190142970949,487.105437494122,1346.35481430851,222.306617005072,613.037145801326,510.511879242538,489.561340306643,455.935526979571,464.622198601054,452.742084836516,404.10213552422,438.947296216042,339.740735651387,361.958532915733,369.845610853465,412.469236881468,334.762378476986,345.315462493482,333.493974845896,330.226190487338,299.949576317843,311.75072295891,337.154135411898,329.441247419873
156.447163259841,149.592475506758,177.114832328088,152.901814448988,157.264543811693,180.974977261615,181.291775659496,176.336384664799,205.16772022789,208.560004188874,193.711531011096,228.746110032282,219.568830641443,210.234851609979,304.734223370006,282.232466601753,377.626484410282,328.265885079099,265.602620023763,448.226320025968,345.94784706461,696.632593748841,497.895713761629,319.962265482513,808.038494280774,367.915528524465,1010.86593540965,876.930614859004,472.213417617089,874.836582142864,731.167333329133,609.606010870614,234.750417554284,647.727629154678,920.300952894472,720.002337888377,359.583552369746,-18.5977913477786,578.226703810394,903.990044090777,506.962530373131,60.8548828929142,844.999098042794,-359.343405030378,20.3236978873675,209.111271283355,138.617935005706,164.897500664438,134.763956778581,107.476294757626,152.136509278546,100.282590472486,133.550603192881,111.71650531607,77.0160508059898,74.8072890971721,110.97719715628,47.5770858297828,135.585694455822,98.1282169482005,39.2320430317458,0.267369867500991,122.928630422256,61.216814885188
-133.457354293779,-178.032259214676,-89.428704034297,-168.401772395247,-213.668645837902,-64.0423007915207,-121.941808100304,-180.153913649315,-76.6975304733248,-135.179542806858,-198.218831692458,-24.5470175711118,-93.6858752091037,-159.783166279133,38.4694332423239,-55.2531356473737,157.950616051505,-6.50548952851704,-150.447283960443,144.270607779172,-82.4750753387313,469.532612182871,69.621820874318,-184.578033263673,506.218524432592,-229.636396691882,790.181515828227,619.524545481765,5.98613280619729,717.495728051637,527.855270511402,184.456662397028,-444.86621187172,499.685937121939,864.406259417334,511.960465048246,-152.083414587471,-766.646772613078,552.239415220871,759.255524238648,230.274105306919,-407.91155051563,556.939414450509,-810.867278506507,-565.412098937173,-122.471488213779,-253.590304235285,-161.523084024149,-236.292540991872,-285.899065565595,-142.644043205018,-272.532441348886,-117.303465641049,-184.484224898855,-258.946224792504,-296.289919859085,-145.888534099454,-284.990906320141,-91.416082713801,-177.124445118678,-254.408202555281,-336.229936986787,-113.14869885321,-241.83115072336
-359.75681064942,-432.654794809881,-297.673293654292,-413.685135845697,-504.184057535778,-247.914725221035,-354.81833564169,-464.630501644286,-291.28600205635,-403.483246070581,-510.031091320419,-218.433018860861,-337.279872099481,-452.795296862686,-168.818787867943,-322.832401902755,-0.763607386521017,-265.522547711703,-475.064316254228,-95.8355114601279,-431.228753829753,274.922780416406,-293.251380270427,-598.908224370687,283.996458091997,-727.290329654393,604.360742303031,400.818264266556,-269.206323374239,687.513941078129,458.84435780218,-53.3921706593293,-1076.90889784078,432.642501300842,960.760298433752,513.002584738102,-509.655193168803,-1419.8474017659,570.257315641883,729.123566785852,140.067536045103,-719.090177757617,416.240625078403,-881.666083975431,-882.592155597041,-372.799636747455,-562.452750916716,-418.529924529493,-523.870735607073,-604.812979663809,-376.257678089617,-565.893163840137,-324.749509252262,-428.52248600576,-530.700005422454,-600.863185109639,-352.550574609121,-559.002299431287,-276.651969415193,-397.817344015949,-495.717109226732,-608.102570519463,-300.309868143043,-493.781296412857
-493.026058409698,-591.052950115654,-428.495161104367,-565.081629411633,-686.440414542048,-357.500771695562,-499.624915445922,-641.780996683554,-419.441504851312,-565.737421373919,-705.365129201372,-337.217172009197,-490.44514814343,-636.896256740422,-292.861340995694,-492.396002456553,-95.2348052281767,-430.144309761407,-682.033430922025,-250.489020956927,-660.673105810323,116.461075650272,-552.794482911832,-884.526380634382,105.498569324092,-1070.98866278947,373.170190987092,129.211101711427,-472.582657974849,601.677446120222,332.31749166392,-231.745510924495,-1535.03520649661,363.114607004775,958.297331236352,446.935326285955,-772.054672953594,-1852.20718570337,530.738413862991,643.361691166477,0.97183889650794,-973.283544987893,172.860978936789,-757.175893837923,-1103.9322079336,-541.001974038715,-758.237131258354,-590.337098360058,-705.156540189301,-811.291524506715,-529.285710559388,-754.174117132736,-454.764217989857,-586.567221103848,-701.924496727596,-796.956479252442,-488.96252826046,-735.450603947654,-394.430995859095,-535.14956237554,-651.422787359086,-777.164648490328,-421.914631819931,-652.376441178516
-564.387238162117,-675.74997182609,-503.243647196334,-649.822280814614,-780.082268915319,-425.899277863853,-587.188513737668,-735.445267361895,-493.519522018921,-654.007057758039,-808.209305802369,-407.025760157332,-580.43624146458,-739.678751761383,-366.283240732974,-593.703162065709,-167.15670932839,-542.597964746043,-808.37899413155,-358.4528173125,-800.614181849348,-23.5870818534006,-735.667783238999,-1060.00771527767,-95.4744422125497,-1256.97349375749,162.517403859415,-280.161442697374,-729.090110781064,398.982783249117,21.1792860500323,-522.592964795939,-1882.38134046101,244.371508882966,651.019218847828,169.697309770804,-1133.545323236,-2137.76357222851,424.044516570964,420.096049093108,-411.861240535093,-1291.23532468437,-265.449437983519,-766.17317966777,-1397.25000436083,-627.176173530048,-830.888977669935,-671.820044634904,-781.928361650748,-888.241816632151,-613.272142111658,-834.948774954826,-519.850007171774,-664.667137976651,-774.4215629119,-872.693243042418,-568.118847987435,-807.492818229021,-456.212812183917,-608.999611714487,-721.729592515031,-837.523974208026,-493.605670279592,-715.985001630604
-594.107852382893,-700.88558874895,-536.752960584398,-679.924351117728,-802.813643943022,-471.550556034577,-629.415440635107,-769.214321444245,-533.875686598977,-694.012447315443,-841.223518369472,-446.00512122052,-623.827185052646,-782.618135184627,-417.024950728807,-647.158688845081,-236.881131755449,-616.300053131995,-869.483986711815,-438.294165237759,-866.060533137891,-150.450624987197,-838.192061507625,-1124.68606010041,-279.866150467052,-1248.02992192187,55.0034502425136,-654.581821825508,-977.963862823308,236.905955896381,-311.056901652674,-897.265583806207,-2157.95399788175,131.109984124267,186.54820761529,-141.539036982066,-1553.94219477015,-2319.52021664296,372.787237510199,198.961728791744,-983.610066518264,-1543.30922659865,-744.861030452008,-908.148118217563,-1631.60237227076,-604.949663495285,-774.407402423381,-646.840381521769,-743.825252658075,-832.358078031072,-615.693559715002,-805.604359287151,-526.650261930112,-664.259066189454,-753.722732303568,-840.370186719554,-587.588890454176,-784.050989195079,-473.441094837281,-626.655018120117,-715.528283604678,-807.705448030129,-520.390588457527,-702.892286402069
-580.737082679528,-675.103821062987,-532.582040821338,-660.145469067146,-772.97162311516,-490.241901742937,-623.566738610755,-753.266379385456,-538.548529511642,-690.239616470521,-822.314741439211,-454.383924597135,-622.697454886262,-769.28346247502,-438.676776667235,-645.993607498905,-289.036767456842,-625.249504960897,-854.871473112933,-466.0121439876,-841.292355861334,-257.894195872931,-814.65218202383,-1054.12843921397,-403.483075382717,-1023.96433196404,-30.6966107637267,-766.094805339328,-1061.41249830872,181.764258611097,-476.859397465211,-1205.24440307053,-2292.1192518322,81.221867384563,-159.334507251836,-350.44513606871,-1811.9978148448,-2369.62155414422,415.382324931151,19.0380715454952,-1464.83359049769,-1580.21982347447,-1131.8239636954,-973.575432217032,-1647.0735229964,-508.242107558738,-658.075827133131,-553.360054877052,-640.798295641066,-718.863888743183,-544.75253534303,-720.220961688721,-476.074098021375,-601.921193759684,-678.787846074396,-760.280380545212,-551.942762227905,-711.430360127282,-455.165050592659,-592.438500860585,-663.045763887655,-741.696657903486,-505.110440557161,-650.421255238627
-538.525805070489,-624.964291206755,-502.989736979897,-613.717549212764,-718.845394971514,-477.501126647499,-587.22045773064,-705.635047556912,-511.797513349426,-650.790438990158,-774.432199910173,-437.451441074784,-588.821638965868,-717.948136835335,-427.905854505885,-598.829975834138,-316.163193829407,-576.297787510833,-778.423153752004,-450.030864840182,-742.86978662028,-365.680008336716,-690.878519221102,-875.165033662747,-538.185918232207,-687.844655248652,-217.699390420561,-692.173330003549,-946.613616846817,5.4163273243801,-505.725578121747,-1393.34550286779,-2265.90412679551,85.6188133818979,-389.506708870761,-545.690351469108,-1854.60734747655,-2274.04035412288,412.641120021486,-266.524231684926,-1742.10710644206,-1476.02929840813,-1436.57391221718,-901.780509197635,-1459.49933451905,-418.875412023349,-581.972825192114,-467.850709226469,-564.226140248115,-643.382706427384,-455.165522528735,-656.24077542612,-399.334847215053,-515.897592872471,-612.375666284921,-697.994940867918,-494.262979613907,-646.718926995882,-418.558435340498,-534.707036077682,-602.968980126479,-683.688101443896,-465.597381940724,-594.380494421118
-485.631917261982,-564.466799015984,-456.853472697123,-552.800202169364,-650.015126185648,-430.862083474946,-533.171506505054,-636.254870079137,-463.635492800312,-581.339382667126,-696.927810929013,-403.13772255619,-531.65404692878,-645.357835456523,-402.154339753549,-531.583631260118,-336.239778179251,-511.104021400003,-669.109799698445,-445.807807433693,-619.073444306936,-520.980828776183,-575.45316156468,-659.56811967753,-781.233030663645,-388.036054817282,-548.581848175733,-678.503908517043,-717.31205171716,-548.559319293425,-444.59579255978,-1469.07964880275,-2102.03969200847,76.8501805534891,-649.405012312509,-739.250773741995,-1728.59305860879,-2009.02050564146,265.252102196877,-623.954098545978,-1729.35777904209,-1328.8810079856,-1604.37869645713,-735.699488589791,-1129.58737160312,-364.621672728854,-539.896838889978,-407.873892428494,-519.218910798475,-593.426950959155,-383.038981503498,-606.866308336471,-337.975819435763,-425.459670098094,-561.837957495105,-640.335429771855,-435.880721735042,-587.862148432316,-371.207689880047,-474.056282094671,-535.116027865475,-612.808142464364,-413.865453188909,-526.972316466208
-398.71809243457,-455.137625173355,-371.896413130043,-443.70926856201,-528.676481045324,-340.239887841053,-433.429650327161,-516.695480384103,-381.234420715994,-461.902203938546,-554.391601586507,-336.120927605168,-431.182401275014,-523.358996581696,-358.6574971718,-435.541872826471,-351.770581848325,-429.609747316617,-518.20373083642,-461.242990579429,-476.121627589292,-721.909855635173,-493.307325483193,-430.570001652652,-1090.60259234438,-131.796938421651,-1019.12876417336,-749.480461084495,-442.726489166992,-1401.44346040585,-243.286679990208,-1399.36734620459,-1712.9108250187,-53.3252591312293,-880.026085046224,-803.98583640758,-1285.20009611667,-1546.80492366468,38.6799946238912,-815.000190575488,-1361.71385114718,-1032.18511331752,-1474.8964268979,-426.94625834024,-692.94007297588,-303.191570188283,-428.433738020731,-321.579925700691,-416.522976200569,-469.080844270676,-302.976085286013,-488.776916422162,-283.642595295113,-317.781353091634,-461.134447957614,-511.379664734965,-354.702790063668,-472.68663499043,-293.168861500601,-383.582287613098,-416.874204747836,-473.840265819916,-327.95833051161,-398.361837878517
-237.753084338568,-253.700087697877,-216.859286784518,-248.900547500383,-308.680345335579,-196.054163832876,-252.010629401266,-307.901918525754,-232.553945701775,-266.473734106492,-319.67036727722,-211.032865952655,-257.670453883476,-308.086706741852,-264.794545195586,-271.020039583538,-330.652523279186,-287.168557601132,-288.338465156083,-424.760296587592,-271.109604762737,-862.521577601536,-343.797107257335,-158.740280775191,-1262.05733818161,161.26857881895,-1557.77908854081,-730.985793289939,-232.863005949027,-2104.98132303332,-27.3523491988613,-1256.67976822069,-971.446120519817,-413.413927932192,-1035.79136275779,-807.421608367165,-408.978997785228,-863.09757619472,-216.839352654213,-844.909262182612,-845.080226840247,-440.83187395071,-1086.64581928459,73.7724570754555,-210.286283917257,-198.978240732587,-203.552248230789,-177.341217918184,-211.381988460304,-227.426117878781,-180.947094265891,-263.603484452906,-191.287866161338,-181.594486153775,-260.491251420206,-277.077159926862,-223.178732969887,-259.083615559982,-161.388345618199,-223.459642245028,-215.349784251759,-245.56774517072,-174.171110038984,-178.107470422709
12.3811776961936,42.8381866286144,22.2893035795653,37.8846771286458,19.7693323858442,14.879862474056,23.076964508892,5.98834955953647,6.75600550297831,20.311316903599,15.9553030077691,-13.2160766556731,4.76098228104908,16.842547673748,-86.1541439289085,-10.3324203179024,-223.0138675493,-44.9522915834927,49.1562937877976,-251.827744785931,37.0513101779079,-793.190976750936,-47.5922971990002,180.471140265625,-1069.08872542854,472.52042132057,-1989.51459763421,-499.507139901969,-228.34868397017,-2159.3491955863,-58.7038871545358,-1174.28214466866,116.132264043143,-946.647612318383,-1300.69346331341,-894.773396298594,626.533464578492,153.702742118622,-499.153294968381,-895.823501755971,-405.899294898627,432.711850070137,-663.130803776891,701.598058686883,318.442637231423,-30.222070864231,97.4457272310563,28.8600520188155,71.9547405550945,96.1637999335821,0.439196535434203,45.5086469330922,-26.4687143801309,1.31383960139295,39.3908795301188,47.9827214512131,-30.1858693090974,56.0777926463567,37.4382488684213,17.9770846280569,81.908642609378,72.2877683852681,59.452321423075,130.028668690635
343.899742745008,418.386068254984,339.11261667306,404.869605714568,435.355398324861,304.495008690926,380.455278992711,412.338733362261,332.02113922345,398.80958829244,450.054307459126,260.442002406903,352.004136953455,435.26428192005,185.610824247731,343.738186437486,-1.27286923655999,296.618364084327,487.716367315841,68.1284781471017,442.744114314074,-480.70932701564,350.689125015702,583.554899671396,-526.112030162923,705.072655631758,-2124.19206168413,-95.462878885658,-360.812990673349,-1529.17820965541,-321.07764062053,-978.730647091849,1369.09410663178,-1358.49275987186,-1649.67926797038,-879.994672054374,1487.16088185463,1505.6957935745,-687.884928006702,-849.499518440761,151.177721205732,1429.0575536652,-230.835495306926,1368.78266221853,970.967416619014,242.623843140297,462.47198439267,322.29090717693,427.913541228236,483.306644094087,266.051268439709,427.827164328616,219.898766220209,268.730006523438,425.513036561163,455.351189549189,232.552013417896,465.645759116808,310.446472302833,331.298820458756,473.14660571089,483.276108113922,360.778294311531,521.053325507385
704.216421072709,820.274096408121,681.056138526823,796.099398808066,870.894141519295,630.944187110712,758.540696370284,840.77666551281,685.386518617005,808.533093305972,911.536408563227,575.257246971513,727.540754523115,873.281019174349,501.385417065252,731.096267659449,287.549751659625,663.050234510485,941.287937093137,434.965762878931,859.076051912434,-61.1398002520102,717.319381825364,987.119341567301,60.8028396678399,807.970075587228,-1806.72926611074,284.311669842991,-362.814636439472,-736.494317611482,-565.970477929374,-368.945433703737,2456.68337855189,-1368.79185833859,-1667.72962572086,-534.330175069768,2075.95887092932,2769.51816948471,-643.415131023037,-498.737057741852,998.821566570265,2191.9308925655,355.926764159106,1940.60063500731,1657.721862442,593.945266856759,872.452744136306,680.724781710096,827.434286613886,909.320903418875,593.014813066197,843.158505594119,504.129481965846,599.418031161039,838.831628523137,891.48273595928,536.567990414577,904.204700760259,618.891301247038,669.383989203109,886.834618223417,930.670889941657,683.381081184573,951.508155203387
985.878457503108,1134.22793384745,951.096532527689,1096.4414312346,1200.22677300576,892.176530493203,1043.84008830708,1163.21294127738,965.631340868745,1124.07182697539,1252.45085682386,849.715003096583,1025.11431006834,1202.90634442181,776.778683650617,1041.58235642396,559.784288812735,945.74274838445,1268.6964267546,745.148711065972,1168.41025539119,365.959205776308,979.374693098374,1281.77024737288,533.304010116828,833.193481196161,-886.054343301096,540.209466098582,-89.3111659716583,-125.436103572065,-646.547631346987,424.686454852,3013.88515604213,-933.561191312057,-1116.44032109153,-80.7166875970935,2165.26019751289,3399.70190984324,-379.80575993414,-35.435615398857,1693.15208641609,2262.94470176299,1049.66956254296,2080.34472094048,2029.01994525803,878.08873857238,1208.13021541521,970.988144167424,1144.48539733689,1255.50504839851,858.470901980025,1159.17037380344,728.314990560575,871.143657528104,1145.83276224795,1218.48088481836,789.374039706192,1228.19664528335,862.199284057099,930.06627708672,1183.30532288072,1275.33264722863,939.0754618638,1296.27584868442
1082.89895435407,1239.21391965908,1059.9186111639,1194.24205194539,1298.24476750044,996.850615791349,1136.81704633901,1263.27484251213,1081.52240190294,1234.18913728944,1346.73096053247,995.622651109138,1150.40550771931,1312.47100458419,948.248033703829,1182.1214395384,775.628148798149,1089.03411443448,1370.08821566963,985.334351554259,1307.15782953103,840.20515350142,1181.48640584725,1387.62111064174,1083.74790114948,891.736882121158,559.565992727536,858.131645526723,329.89041243584,596.898290720095,-474.487596091731,782.596573456254,2850.55079805157,-177.322387787694,-223.403029031725,152.488025707647,1461.58793714832,3241.84780041455,51.5985173187754,232.01089190884,1650.09472929546,1539.32136596019,1555.3520039332,1463.3070439411,1745.54573790173,942.59650327395,1303.1091103091,1044.90039903124,1228.30327564052,1354.70930308334,926.889041977596,1230.25827164183,798.843675148999,951.00540699491,1214.60053621634,1297.07341209147,882.540977825194,1305.88919571071,942.043645802242,1006.39204969552,1255.59493692328,1378.12247155843,1032.69795232136,1411.4356739202
954.44741807352,1086.35394425011,966.052641826362,1049.8106047012,1121.72262813286,914.543407197832,1007.79884066539,1100.86706192879,994.099306549318,1100.51234464996,1162.41990003185,957.508258489057,1060.72720780925,1161.37499524472,973.110764576566,1112.06271653728,904.532644168513,1073.47507557109,1219.32547458911,1125.71283113753,1244.78010343711,1300.81409208838,1306.61651243456,1264.67335544737,1714.48290203637,969.579141763391,1952.71266928279,1333.02878003944,595.357027254667,1597.26767829337,-11.5386438201458,552.085047703362,2035.53879478401,682.848827796325,646.911460140591,216.810027482489,262.86751598929,2434.21581119147,618.538156437487,338.720634553245,922.628326978992,426.043320852463,1599.23079672626,272.549340332989,762.401756558182,752.524054596686,1078.24067993927,859.99722337416,1017.73823302744,1124.61284158464,766.966869879988,1007.59323048459,680.135753437539,794.761853753688,1002.95041816208,1073.14477929583,765.33590273059,1094.98322949282,829.832525241764,858.339967011902,1079.01699130753,1177.0197227139,919.648332054786,1234.5480131817
643.451338066375,724.023695843048,686.98520004676,709.134505633373,729.825878256897,668.934395821769,695.607752951555,727.582467839094,726.131770537224,760.077866403131,758.09819605547,735.640202447631,771.752978316991,790.664760590497,823.070595329351,842.887473463123,878.973890991009,878.799963448291,854.014488247011,1066.43777371684,966.365844698781,1508.76878654499,1219.19950374795,917.739359338503,2009.93671911503,897.525066953141,2637.56873210738,1668.59262103053,524.297122585429,2304.0512742244,500.248135204685,194.490712245227,825.238694345763,1355.75677089941,1208.96411352046,285.566993844562,-720.728752006273,1102.68108503178,1125.35170521401,445.807441775367,96.1299239907264,-635.47063306292,1171.18498466185,-847.826420376006,-575.133621687719,399.585952335529,609.709967695058,492.62718216465,583.292341427727,636.09122097149,451.519781343453,561.135121198917,408.181121024617,458.324097920639,581.765473933599,605.021479412407,474.451983363714,654.079750568754,568.171018660049,532.165335322888,692.084090011541,721.351585939701,632.06856005096,819.836457406963
244.840309918265,262.223849560695,296.827963484132,272.025968656026,242.069122213903,320.664377585071,284.77120771271,259.238495672448,352.498936006037,311.056751960174,256.07863942772,392.43264373163,362.758317570945,313.937037509969,531.680882853471,454.042300467964,681.066161557512,546.372806386733,389.317842066651,801.764361180224,553.844944274805,1366.10715446051,905.453426678242,471.015484648792,1776.21102540639,649.589768217792,2588.4646863314,1599.10677567333,321.321358961658,2211.90030120186,764.378757752884,92.5034891050234,-400.521253979039,1654.76702757852,1314.83165962078,385.224044087333,-1207.80230744519,-501.521899076993,1288.3097415465,526.902961849121,-382.898858633234,-1460.99685119782,532.669969096423,-1464.01195128924,-1695.02854273964,23.5106979519935,75.7945318193597,75.1799151092696,80.934139688746,64.9597982468632,79.9232892931282,35.5746836266339,67.9146829837253,49.7323170287008,90.8297537584075,43.5230760548707,100.977373632634,120.860074883753,227.788463076186,120.441679415889,195.897702701983,163.074849780096,252.455903443636,301.714020940748
-132.521762875714,-169.232773069102,-88.7124315644292,-140.187762490123,-206.252825914328,-32.5641111974552,-107.841192497472,-169.455799072159,-21.803281441454,-114.005483966782,-195.746063740423,31.9610464793795,-39.4661638521899,-123.904827527599,205.095460031901,72.5459735101779,402.610706438139,198.547824443679,-22.9537413578698,474.408540250456,172.558309634509,1049.33021468128,544.746156423701,118.290424280428,1341.28969886411,435.397254295814,2271.29051063886,1282.1326993269,335.382492472817,1642.38086007476,869.858858007224,208.051593674886,-1224.3820481593,1644.69015453842,1127.84657964086,560.078459814485,-1366.82826197772,-1784.87247098935,1099.77263558688,536.763181169948,-478.067359849369,-1860.70655713293,18.1923523689569,-1629.79558302919,-2234.50675615619,-268.101041405911,-353.481334030543,-267.123231669208,-333.779350933397,-406.141932767299,-254.204402853287,-409.356311037329,-236.663765265158,-310.957785699713,-325.872685034099,-434.450759684088,-240.859364336305,-338.040837932916,-107.964275819398,-267.846189393509,-248.737773444015,-316.970670063337,-115.247563301716,-167.126110059054
-399.951305105769,-467.226123791017,-369.084135395874,-428.779899277545,-509.611184507179,-296.416801138165,-384.858054527417,-464.545814182118,-311.465626178753,-417.069030635665,-499.623326596866,-256.815342368426,-334.894892648422,-429.866309736647,-70.4365538397105,-219.74617154967,137.59669091952,-78.8882749268031,-307.576613545782,185.308208056012,-98.8319186670864,712.075700358636,252.688390949302,-81.0781501821977,982.513509401835,365.968216127919,1895.45291504471,991.801450650073,552.646520231722,1109.29167173346,1049.30712807773,381.017473199404,-1440.30772516115,1447.32460000906,960.362499994767,837.678861167839,-1231.20638763525,-2209.10776403983,785.798513391366,536.30381297724,-330.348866627562,-1608.06331589704,-200.796792017052,-1492.82135088942,-2246.98067888978,-434.202905876939,-596.8842626511,-466.067397313365,-575.867115180215,-674.050584797939,-467.961968562813,-671.683134427985,-422.696745892844,-528.09333676959,-575.878652379563,-720.276192481008,-440.167674904684,-615.379508300051,-349.536227722604,-517.365585657618,-506.005175695899,-620.213554918707,-374.835070198718,-488.202897986753
-531.168536368394,-612.342098055904,-519.702697861415,-573.366962356072,-648.307482675913,-449.035951215915,-534.154561590857,-616.020799766049,-493.284026722583,-587.959770276185,-656.586302098412,-447.260553218167,-512.623140894789,-604.831095453269,-288.764675167413,-427.922838527569,-102.67363930532,-297.648868011215,-494.902753590443,-89.2469615827913,-315.166435281015,324.695270252938,-25.7941277764833,-230.654273603085,585.050046721717,306.59720056125,1275.66094310357,708.828540362185,663.031136705204,596.942111778938,1178.60570305598,532.638291481394,-1247.13311083724,1027.89157468619,798.270136643851,1022.816317651,-724.907973274921,-1892.74403554547,407.76524954051,477.500560772869,-106.572866052551,-893.339848106573,-238.14193663922,-1081.17113900588,-1890.25126605359,-495.006853563201,-674.855409338401,-533.01473070377,-656.357754124472,-751.323878758595,-529.634973295175,-756.164733201339,-465.740802596179,-574.416096378881,-652.056346756353,-820.623818890077,-454.146869161852,-717.471022235742,-449.245511763185,-559.067762795658,-567.648266703484,-763.356143754748,-490.305273598564,-657.051498621491
-561.175943675291,-655.615706441072,-572.890664088623,-616.260932240071,-676.036681613527,-522.784155155199,-598.38094210486,-664.110706612267,-581.668774329249,-662.188311335979,-713.097845757284,-550.200515196646,-607.540390900347,-685.942992362136,-457.385222634533,-569.685278080829,-316.62133367897,-474.729682311364,-619.587855752034,-356.443499909047,-511.735154251667,-109.910254292992,-326.597929471912,-396.021697364411,27.7520159341601,129.728734040792,400.739212538768,253.572944753708,525.27797268862,-51.7767810796878,937.211894403909,603.246405307753,-1010.85562797588,380.435491010884,373.151452901683,880.316234724214,-66.6101342514228,-1393.18675465773,-107.346525232785,200.478337858633,8.48675453319274,-290.703372731914,-332.49043994029,-510.609293389147,-1229.3225807648,-490.137376287782,-659.598339049883,-521.104922819946,-640.36265550892,-720.944210818015,-475.49670241906,-733.375522017144,-387.351818530316,-489.155789610166,-608.748751217918,-798.555077276156,-342.975480528618,-702.44938265386,-434.598106785436,-434.16275794215,-528.734313666833,-783.709695218569,-497.863368957799,-717.170818447024
-545.811824675842,-652.172073773479,-571.506166645559,-606.964843090568,-653.93023193879,-543.327080897855,-610.014842264049,-650.676549511143,-597.621944167487,-672.625787240988,-704.859387502336,-581.375840313432,-641.203780028617,-699.166478242467,-557.204750261054,-639.239651794076,-468.885707492784,-589.934177978764,-676.902100519115,-555.358310549848,-647.934592611912,-463.731005918844,-575.206489993127,-537.424481721027,-533.640833528632,-134.926937781317,-372.725371048981,-354.232142827987,232.345580523268,-655.33510517209,301.335010235991,530.719564837487,-866.411553312323,-257.327400071822,-302.150360007734,445.080225082988,328.467037636388,-1002.86700452329,-646.246445915908,-261.314516509218,-69.1809155386956,-90.2334316326323,-534.253766931757,-64.2487609659304,-464.925526752362,-466.022962982093,-634.914933633191,-492.618348808962,-601.68990839,-675.814668062506,-390.98571328183,-673.310896749822,-257.286253161632,-355.597224456778,-527.686903899654,-706.28601221684,-234.926355694273,-616.318043163519,-387.7732621241,-290.73105562492,-486.697914157035,-690.287466701865,-466.498688844231,-706.807497650382
-518.671997621058,-625.18138941254,-547.5930225881,-576.95886266872,-613.474047074835,-524.715585274235,-586.264940794638,-608.446084578087,-573.676747479708,-647.253478964222,-658.453363943733,-567.616578917705,-627.355887624707,-669.665255009095,-591.361493233723,-651.473167646662,-550.837402539746,-643.901270235139,-679.916730503919,-661.49876544843,-706.37292647353,-677.724911164587,-712.304816800626,-629.474892566811,-903.003604192426,-407.4588767644,-794.501772959019,-876.490482465696,-128.394506330168,-988.089453670884,-409.382010513313,289.159849842369,-716.491754247032,-622.404280580562,-873.164727552592,-58.5491673598413,296.702326392134,-666.558023259822,-980.392921084095,-661.658558222956,-242.258919169888,-98.3762001108933,-675.374722843593,71.1912175481758,66.085525032872,-479.769854012355,-653.172062158873,-499.657571195505,-591.54445534837,-666.421416877684,-365.801675187286,-612.008740694476,-193.597582322954,-275.983189680721,-484.051481625927,-580.997404844391,-237.632529105931,-506.541902748253,-381.291841395564,-272.639753137724,-479.765619129354,-526.416768985643,-450.743173564609,-650.208760691651
-483.084408392924,-580.931338822561,-516.930362246478,-539.470455826234,-562.624231385613,-490.902577866809,-548.879230043706,-560.806344312212,-548.534061401436,-608.826273487942,-602.013629689064,-546.639053146912,-593.512449139632,-630.734877140138,-601.721169122206,-649.680556070164,-600.457337268179,-674.247482504167,-680.792139573014,-727.195487859074,-738.904115580989,-831.577080857742,-793.048081920177,-714.845768658489,-1086.23114725664,-663.452161856257,-988.167194656219,-1169.59489346424,-516.807229157664,-1128.30282303247,-895.25910635143,-89.6714012897176,-556.19570227797,-728.451056022021,-1106.45803756025,-482.000843824528,32.3102940127177,-419.690731965289,-1052.34590457172,-860.747198445272,-379.836605737213,-137.708788745379,-647.1373253562,-7.68846598708656,236.92206689702,-540.617670789803,-683.795969356675,-541.489469209809,-602.322139955409,-665.016250584074,-420.462906226811,-550.007567279244,-267.606852501007,-309.770154011949,-495.443871821389,-465.053940044887,-352.906367820257,-432.544900276461,-423.611919418222,-388.306234266856,-493.441166199491,-391.687474672698,-463.158826227991,-572.595218963465
-463.346174938824,-551.405464782323,-506.426889095309,-518.954575577296,-525.667687759619,-486.342968432794,-538.009013336504,-538.974914704219,-556.616140897992,-593.114624826388,-575.617943920714,-556.786325202739,-588.845833450124,-624.812908683964,-635.803427108633,-680.123495292534,-665.038306845283,-731.199410303047,-735.286448191229,-819.785568204185,-818.934181187791,-997.001079909797,-931.199218700028,-856.838434860531,-1220.74610900251,-945.123378222693,-1170.76318544494,-1347.63574013435,-880.39075982622,-1290.91589164356,-1140.95178715381,-542.181114733612,-586.729356515874,-787.48941509909,-1131.33924254799,-838.185352755816,-268.102056668479,-473.595355352652,-981.979143065857,-955.152758422466,-531.029448336102,-312.547529265919,-579.832483011383,-159.490695051456,162.354115856942,-597.617358050848,-671.096021277798,-585.126098908084,-605.961386766885,-632.021464665072,-512.689106187513,-503.584937928953,-438.334716227783,-440.02788257164,-538.918082596496,-419.650347995765,-506.049414825974,-446.887789135236,-491.803954931545,-535.390132902151,-524.754393093573,-378.865674179969,-499.059732378785,-530.178889155088
-493.331167838974,-567.529342112559,-541.188958711352,-539.949755134801,-531.181209695002,-536.767706051406,-575.412105141779,-562.425482867468,-603.069061372614,-624.857655005878,-596.629765424231,-605.785088737149,-637.802379433049,-664.721237429612,-705.703625007986,-752.314394357941,-756.948815486343,-832.219703880268,-838.479108370119,-945.48265266909,-955.187088722658,-1147.52815651825,-1145.65494127513,-1051.57246211425,-1386.66745374134,-1257.22346811667,-1373.40772536532,-1535.74884423551,-1156.87636335525,-1540.71673085604,-1306.93495952007,-997.706763904415,-911.46088536953,-925.895771781029,-1180.7353843983,-1199.06643859291,-634.26281542744,-845.321074379259,-890.171175955207,-1064.94625364444,-861.235146353502,-685.648830472856,-689.039230341208,-417.621892412049,-48.0593317824217,-618.492749823078,-619.330706282158,-619.745277450678,-605.954733538929,-584.924783798951,-604.516766877665,-508.261706246008,-608.453329451175,-594.257734188114,-593.059334110007,-469.719512772739,-630.754699636089,-540.907809935522,-571.38801050694,-630.911248295587,-586.563013251711,-480.357029505374,-553.200039266532,-563.092155099393
-537.375474379821,-592.225340373634,-586.470032798528,-570.287506784891,-548.826716819927,-595.587372416606,-615.027049475854,-591.053423549398,-639.624332131084,-658.808513058478,-618.256670617825,-644.606858590692,-686.832000702967,-697.398477760402,-764.22456553516,-808.509290194648,-826.66860805223,-916.117751824115,-907.300228155752,-1029.52232433537,-1057.39868998841,-1210.08756630601,-1307.83200497309,-1188.55974603858,-1513.51017180692,-1465.8792449877,-1490.23157603905,-1656.89524835729,-1274.58619852796,-1786.66859639813,-1458.59244758325,-1348.52161727774,-1331.39907415517,-1085.01570616241,-1297.39294192576,-1537.05795265612,-1106.08721642237,-1252.03764812512,-837.334164925159,-1159.35330200186,-1341.60190256454,-1056.08757903053,-997.912308685877,-777.95055372586,-348.908969117624,-617.463893758969,-568.022816875924,-643.529474136456,-606.356416781705,-554.62618296341,-666.210960727609,-548.344601925306,-701.241558606578,-689.302448015812,-628.375223754845,-548.063023419684,-690.381478316699,-623.528547053338,-629.181307561479,-660.598750566961,-643.507623897015,-579.795541331517,-594.874724833468,-617.26450537535
-526.394505420943,-566.506457680515,-580.034374386778,-554.134214186574,-525.064485686496,-591.693353555984,-598.358974482616,-569.496041053438,-616.729223037508,-633.48395381885,-591.114435689821,-619.636700819516,-666.859289723201,-669.30925881359,-748.683503129018,-785.971966050498,-807.985470169392,-900.288042029278,-878.760348485128,-998.245064225666,-1037.27910757912,-1157.58074698203,-1291.4749957491,-1167.01544605754,-1477.32668255655,-1436.52502635417,-1473.59561462509,-1602.01102195402,-1207.04966434323,-1932.87987037575,-1507.74008630582,-1460.67595077647,-1606.02507665643,-1151.11833193888,-1390.30557928821,-1695.05711163378,-1506.95646547157,-1487.90564038799,-838.546837807608,-1172.70509307912,-1670.62121260895,-1238.70232340006,-1305.13441045093,-1027.88869518494,-717.431497584469,-619.362010604685,-543.544338105973,-646.412339743944,-596.393701570962,-543.447374725357,-675.017064181402,-571.910523645587,-703.539925907928,-699.454556715313,-623.797454102087,-576.573617987647,-680.119905192648,-627.001583551513,-625.030710089714,-646.715077399613,-644.818762601548,-594.468431095235,-589.203224071048,-616.848254550666
-461.286821110629,-498.509349081259,-517.402984977193,-492.342730557784,-464.719817101392,-523.610526115478,-534.442654712757,-501.468349842378,-547.478899907231,-559.634214024852,-527.549731672672,-542.159482557475,-584.343637047876,-594.67044033568,-656.070554001254,-696.242432400318,-699.104141049584,-786.289805155408,-779.586533009972,-869.747850484743,-912.279019806869,-1036.1044030928,-1117.70359756298,-1019.42103544819,-1287.5793322028,-1228.82452337596,-1373.27678520199,-1397.68931469826,-1034.6653703937,-1909.52732917576,-1378.7164501938,-1271.49931172714,-1687.22986489982,-1077.51409249198,-1406.7077092516,-1549.44612336217,-1586.96761555991,-1617.29622223289,-844.047892294722,-1142.69983673717,-1591.1066261139,-1290.510081499,-1401.90413771405,-983.832899073867,-1123.36641618786,-631.704481867201,-537.802115048023,-627.281774537183,-573.707741844302,-535.841019565047,-644.906231420894,-559.634090653689,-660.294999647927,-667.119446085891,-592.649295762323,-554.252388410365,-632.59590468721,-583.045289046503,-572.025219898443,-614.960273695024,-601.825649449404,-559.610125729733,-544.365482843048,-570.539634448096
-393.042670197077,-429.616018029156,-442.674147902298,-420.290170406507,-395.538248258966,-446.380705312072,-463.090133549166,-421.608071814225,-474.456516005243,-479.810159954457,-452.020274957427,-462.686249237094,-490.362036073508,-509.162380647663,-539.627447662154,-587.263428914709,-564.463494481598,-642.760040868513,-658.544286677424,-715.418746516732,-758.59768832943,-885.238653353018,-902.192751183835,-850.933164322722,-1066.12256826854,-1011.95655024492,-1199.93068397738,-1134.52784342963,-869.397109732538,-1670.25540273563,-1142.68073773036,-875.088476571103,-1569.32839691964,-910.916293628079,-1344.83415136354,-1179.26381985025,-1307.58587511786,-1681.12620306725,-790.936144030618,-1126.07372442358,-1186.73996754885,-1270.56614416836,-1252.46841973859,-693.451878521618,-1407.5023235785,-622.489917705596,-499.880466648209,-581.792740363623,-524.65884787712,-497.023977740982,-596.658107277834,-506.935932867151,-608.900163609458,-620.012113393398,-538.089267139966,-501.084386147807,-576.103381480835,-529.09522003237,-514.924253624421,-567.567147078908,-542.903577717245,-517.567882248989,-486.747371835067,-512.642176618683
-327.916273734348,-351.35814179813,-372.351953139018,-337.172305218692,-303.135080636859,-382.553807405716,-382.253147124791,-331.183182883215,-402.255705612596,-391.815850085076,-350.508482306011,-396.903590332761,-399.746640264622,-407.171720810902,-436.462929561397,-471.698586131388,-454.748355091057,-507.912003150889,-520.414082129595,-565.491657513834,-611.560671174392,-693.113900973815,-715.282144528819,-709.827944653798,-856.827191775344,-870.563550117359,-944.959323296494,-889.058299038006,-762.999616819336,-1280.89401383135,-959.390200993327,-524.447322507754,-1165.20787903335,-796.770392461553,-1211.66638320989,-858.963806777521,-870.011165592066,-1489.56785499423,-718.431374459463,-1113.1415484684,-781.432928236313,-1050.64043930332,-1009.52769308713,-308.489659662613,-1313.19977106958,-536.237641282016,-387.086359023752,-483.896737944521,-415.580982918246,-386.600556185703,-509.595724814509,-394.619569398565,-531.374134027992,-530.583456798737,-428.334123014664,-396.277399508324,-492.245675728221,-431.011999684783,-451.31324748994,-477.594144706699,-443.333555792719,-431.68982244619,-409.571620551435,-419.09308388443
-226.23511778261,-227.379677514724,-278.579115946458,-216.956115469452,-165.875316895263,-300.68783560628,-266.452291269894,-207.559292279991,-301.344513528655,-269.41568582021,-207.19844834452,-317.365125605251,-289.634652492938,-268.922382863586,-337.724207079915,-341.229885828842,-363.123196218509,-374.987815427662,-358.554507547719,-414.310515410228,-460.486075504215,-485.136932356465,-549.515308011959,-577.485499673382,-617.959398365268,-785.759004189242,-733.232751521437,-681.558633152922,-724.97474188964,-837.842831804325,-878.755866200799,-460.120582449735,-521.176737475562,-893.719607849428,-1015.21166393301,-800.925888598902,-503.209112130886,-928.629186498478,-712.799477086469,-1100.45665652337,-553.358825604085,-594.087665807646,-851.932000925834,49.4553104409366,-843.368864415481,-357.539622796783,-224.102612270674,-318.122133289496,-244.637729447275,-212.094526213081,-354.271119203037,-226.815697510235,-392.080120106495,-375.108285718616,-256.66601748377,-229.535104560323,-350.613237530309,-261.010202839992,-337.890280151462,-327.250983645634,-276.167885511203,-267.141883495322,-289.523185778972,-259.979981936321
-78.4512968814774,-63.734734273888,-143.772581944321,-63.8868585280215,-1.74180320153339,-174.987447895988,-120.417761991595,-50.2548271162346,-162.465380205461,-117.354264610891,-39.992464254363,-202.700860700629,-152.219669770092,-107.155595646997,-223.609244769802,-201.228295167213,-261.902207970457,-233.969802033455,-187.003141663431,-265.712524444103,-293.904295626743,-328.442579724315,-372.244644243731,-427.084160688699,-329.432800406724,-682.352451898757,-661.16243973593,-425.910226160591,-699.093036441548,-308.831753696924,-736.429708231952,-573.342270118588,52.8292699912987,-1165.45481760997,-738.456577022268,-815.953593943766,-249.136211229372,-260.766165479426,-743.722632733283,-1097.84928497578,-315.82543186288,-128.784292781401,-709.413428940026,297.645900943857,-373.69697291637,-112.320180854788,-51.4439115993549,-97.7239509398707,-45.8229079852423,-22.1593355074076,-139.360979378583,-36.330573475525,-192.810646880135,-169.957557839817,-58.1054352083547,-36.4769313995333,-160.514506110905,-56.6358120402779,-165.135658343066,-135.714562950727,-71.1542096247911,-60.009181886081,-131.816116106583,-61.1315019531599
77.7816661692743,98.3437859264366,8.16896153391382,86.8696350155132,154.342091015682,-26.276674015396,26.5936326791509,113.739151576561,-15.5161978682679,34.9438280133218,118.854259952318,-67.8597264130897,-8.96422585517567,49.3416967280852,-94.3443642391901,-56.5987391012799,-141.004872860631,-75.9587162983681,-14.8940206254274,-114.76574044575,-102.599356882988,-196.032916551289,-151.805217557546,-222.745375840312,6.88603368204938,-434.92776851343,-564.74293127497,-41.492850247835,-491.762127963191,255.185434191508,-329.547189565364,-404.914780500824,322.878772129492,-1312.00437057101,-364.192812599398,-452.257647425408,77.7280480538065,183.909394433194,-742.123443700976,-1002.70334556171,207.73888949432,183.885412999915,-279.03599972211,453.433558350776,-163.712668827938,174.697059255814,138.770797657667,153.193079087076,161.74926010961,161.314444973499,97.4804828166807,156.250792326984,27.744344473514,52.5807362038369,141.015549966728,148.715116348294,41.6919504469022,136.917760494062,24.9994367937757,60.0237794368165,124.62861558542,134.643195278628,34.4209342658179,130.644898563623
216.954336225547,238.57809663589,150.538892894081,218.561602154779,291.478936563635,113.680741092961,164.591752340118,263.747769023386,117.353215345234,178.984941184938,261.248296647238,65.9062674681677,131.938239656003,198.912631538247,49.0602161832608,110.114945287785,1.01386155160577,115.453041137142,178.615572043967,68.1089198784041,137.910682629546,5.89882311688819,133.42279264661,92.4296927882438,344.71728306198,47.5581550050108,-309.142728686676,369.631303767722,79.0378752546973,554.14667757975,306.828107802568,271.458613291782,447.558537435869,-1073.25492614606,45.753078604389,370.56185436795,625.868537002473,446.29919101544,-776.401707400179,-636.464474224064,964.965915479741,451.607011266067,503.862424898172,657.694021713062,-17.736700330382,441.378023091622,337.778825336623,384.307574840332,357.566243415243,334.422530372718,307.832288839512,333.523337856913,223.030097007455,253.832277680924,321.939576741776,313.645210844386,223.699044206972,305.285685004636,190.267458291278,230.957101891347,290.554471302344,297.592526223716,188.500656144088,295.384848689624
360.75487779189,381.533929391672,297.379128176114,362.305741022478,437.845239682638,258.338660043177,322.836607008393,417.259672319157,265.689497561145,345.704080546987,424.260743702801,219.592056082275,302.843947169273,377.789633718676,231.382637968626,327.546428677681,175.134961537298,354.787244327555,433.591241946185,304.172269873594,450.250235154778,271.7314408547,477.48745592023,532.783317255072,591.230610507737,682.821504337343,-71.6133621376072,659.880427269539,898.970678093678,490.539695906192,922.053545040923,1122.270739007,773.754182687017,-569.091555777772,408.814183466464,1196.73886002857,1260.72058404987,832.109307495004,-880.726103869441,-4.63646518620624,1646.20333107806,797.492020784376,1266.395224603,996.534879386616,349.893677149274,588.950453576142,489.824929978667,534.085046384617,504.979051563667,478.770465433666,457.243212162121,475.108095469808,369.242780599277,404.979916174692,467.225995561462,458.041493735009,369.926215687937,452.283150386634,328.512514279407,374.021981335196,434.839485774171,444.127403474193,332.298631364338,446.309260124561
539.909258497511,566.681101548327,479.444676824425,557.49662183534,633.563910173664,440.050713444705,532.243638850488,615.200929521208,469.260256683499,566.108611215467,651.761642883568,423.473891372189,530.1159404125,618.703790978775,463.151643962661,594.539498640317,380.642380788575,628.34791864985,756.726533836376,572.784651362369,807.859334272728,506.96257121674,838.309487070272,1006.40460774447,751.303761938167,1244.25677681336,30.1590539106198,909.331826599407,1585.41368079353,494.009244961183,1337.55664659313,1690.92499227836,1448.90581338622,-116.759053865388,780.595012479264,1617.63568104113,1745.84875921705,1539.62873131531,-813.839349753684,656.371601387545,2017.00044104129,1214.86635153546,1676.819776954,1333.11178178369,929.130229634508,621.718338691078,604.287468656402,617.578320360615,620.760228801668,615.540495239046,564.622550017387,608.954288336407,489.558320805637,528.639018357832,605.119940175634,612.406816562379,498.480715095031,606.039900505846,466.619919596043,519.926073192618,591.002860911887,608.905679697768,484.706831252251,613.534989993217
737.925120703591,787.928908262037,682.985023755298,782.502128169069,870.209181013534,635.271175287357,763.525166096449,853.747481571933,699.534555261707,812.457494285567,919.483055525091,641.140471076446,774.351827308483,888.815420125137,686.261962126474,851.754383762233,567.647346678669,872.746128416335,1072.13402859824,803.577782486619,1119.93355582521,651.086314362915,1141.47759424156,1365.86790178242,917.180263532201,1572.32191610284,205.512953486267,1279.87151059099,1859.38365230244,964.298575881081,1537.33835178852,1812.47824202176,2284.35163273079,186.458974042866,1290.31485331193,1638.47983356195,1978.66027922039,2472.43088652529,-330.158752147632,1207.31405735995,1957.56264189314,1678.46185609317,1791.4397051409,1436.00605257156,1557.602739805,662.051275231557,762.08280552904,717.773895429332,767.004434769143,798.43769675234,678.485526142582,787.36806608773,624.692743065174,673.596892278273,779.017863207267,808.472383552214,642.362850713247,794.490794032133,617.601797529584,691.982944989713,777.775698025976,809.176241374684,650.846249349387,806.979429687167
886.143689472913,969.482709633259,837.305488226251,953.870142496668,1065.02173499506,770.721927264556,930.354834979995,1047.69593335462,866.843142021539,998.584607806672,1126.41539439403,789.461117728339,949.361854698648,1090.44458378517,815.349503108948,1015.07810065913,665.972478416435,1010.37331697485,1269.08184524991,922.817399233473,1292.88482085837,709.151785505564,1313.80197099671,1527.67270005064,1084.82246042676,1675.24915046509,599.457701456932,1652.34976703929,1772.98823923728,1642.31242713018,1511.83227520342,1531.05955572295,2915.21471406153,478.471389227125,1786.2235164314,1414.2085664777,1906.78890930015,3267.12513383451,386.805363284823,1686.19562413737,1450.01019034025,2095.3702537457,1751.82558049522,1213.9933558427,2101.62705906082,755.916019367193,950.459927913736,845.198179727384,927.494620562307,990.545435545331,795.210864528203,970.989051658424,757.61692791702,827.609862654839,947.393922433285,993.580641388131,781.645027121725,972.088033343222,745.61637029605,846.070842677988,942.719863913824,992.114686163889,786.566103435901,974.450629623685
921.498013327019,1025.40622232318,877.560764157515,1001.20549408247,1121.63295218188,800.374666449429,968.884604891138,1101.30367273784,908.313962257363,1049.23287978931,1180.13305919356,825.84058258523,995.354335910822,1144.44221609238,827.88943652342,1045.74365544895,669.802064625116,1021.24568754329,1299.44036067341,935.193842853462,1301.15710315918,751.719447575462,1340.33367177761,1496.12269184884,1218.14957949136,1599.61229357921,1095.2410300315,1756.75891977086,1481.2170400143,2013.63721716367,1254.62211598125,1005.20887553198,3101.40481504983,904.236562750162,1872.21719497645,1030.95404883379,1521.25094754925,3545.44814972553,960.920513366252,1984.95332073692,757.616796281923,2240.99654848342,1524.75961228102,739.131290046144,2430.4551786681,809.527579065667,1034.91596313817,902.15628907428,993.878252341594,1063.31360442172,847.962346027796,1035.1991513386,809.540170750992,907.280850119964,1002.40389565005,1051.64360648697,839.261274322803,1032.23903167705,786.103220123432,897.917927559206,993.626931847595,1054.89632441863,825.646871100969,1026.22122743701
843.905582861947,939.640730688919,807.127548678794,921.608623139854,1021.24086646889,741.815938091618,889.580774962286,1003.8237079405,836.51839916458,962.405649306143,1075.27707738167,770.875063675667,918.143229738189,1052.26135752336,768.066181421235,966.131064749196,643.666120608405,949.248145252081,1183.7201916904,911.42673697157,1178.58816487119,881.213315681912,1271.31190611678,1293.45420045956,1412.68608708631,1350.4334947115,1642.55721348035,1629.5611679875,979.151520024979,2174.3753025642,925.130193104546,582.622020636636,2879.65516213154,1437.81501739179,1652.12503517805,679.51154987457,1104.19116804484,3240.3682235813,1403.8214922038,1965.69614157329,374.844265836171,2030.2798215961,1132.42208467785,211.411657738036,2513.51032441258,743.697257322211,936.564413128857,816.771807904828,901.862972945215,955.663368274735,786.731344100964,925.191677411267,734.633063565801,849.641160751719,899.554108151188,937.481851240842,772.507484299624,927.62838944724,716.950669198311,819.16363790798,896.940417768946,952.724564065353,752.237407386321,930.108743298804
698.092358930565,759.806796468606,673.492821602786,757.034412591071,822.765333274361,637.627891504043,737.41544565805,812.394937183573,700.999605951343,792.52606944293,871.133442161996,664.375138241333,765.702370780109,864.591972779494,681.909442785768,818.576469332813,636.845664919987,839.098279980626,966.170067764367,890.14802441153,978.120248585553,1108.12499142621,1165.36636122364,975.664187716398,1736.42279493995,1000.8874078761,2278.93555366631,1551.21453044087,350.508451349511,2561.94841302299,753.472598641045,588.890962937889,2394.6200714524,1841.55923724506,1766.20696881184,621.173190334091,1018.20858497182,2588.68147425465,1935.22428415949,1801.3258085133,479.526028218767,1662.28430561405,754.940360880071,-107.728917927317,2406.49206775658,567.802635079131,706.278739777162,613.835084277567,686.003758206411,723.203985681035,615.779584475969,699.516795643631,563.084181327163,662.724442853649,687.165251959413,707.259172620699,609.197399449146,710.197781576373,574.204278639595,651.463497456885,698.858794345679,736.634553035567,605.58587047194,735.231997198625
505.111206621949,518.295486507034,497.569479048247,533.036036900819,566.331766674832,498.372633371752,531.305404061989,561.995140508338,526.56699683966,572.934324401079,606.489651415673,528.339630406831,573.849095512767,615.898803807785,586.943245884043,637.398659603286,641.739641645904,704.564657812531,702.53953518322,855.506339139767,757.381975124511,1318.92127337677,1046.38943103862,671.569300605176,2019.64818486777,719.148021548656,2822.27526538621,1571.79345611494,3.09400937205473,2947.429159608,744.302388410716,895.631978381245,1687.92411296944,1952.35583987579,2274.3631817293,772.448142942714,1046.28584362644,1790.11754862013,2406.2177443662,1633.9704729272,613.052179264469,1296.76505533815,452.99906304777,-155.69877809888,2028.07451267674,306.173154386898,402.719904664023,336.904552638621,388.738204206054,417.642991909966,352.486826889801,406.057734010482,332.351097302645,378.534862789634,408.605445886957,407.722889575986,377.654487005093,431.040932477453,384.945435086091,424.16432996256,442.157836743607,455.170372041764,410.151869889569,479.86001020551
258.050693416392,216.283764732226,271.251079826559,251.329223419449,247.867288769297,307.284581060482,273.510330095242,258.34995897794,309.069568093323,299.323323276601,284.379660987442,360.44337959245,345.772449482297,317.064574585453,474.208161616698,436.475389255834,620.83118628094,544.099629400359,433.98528555634,781.986999770988,549.205036166586,1410.62095113442,903.478698683086,468.215410527037,2029.39604973116,597.335453286959,3029.76889636112,1507.39998221243,202.650935543649,2748.36407463044,760.936802443671,1059.32120584027,829.317080846902,1946.83717971173,2516.91651374996,806.968420310729,668.051852190133,876.630494247723,2510.59992510594,1341.05211276273,337.183024938634,909.457156819225,138.230529928467,-97.5274492432703,1317.74293756356,-10.9347952187932,45.2708134974856,13.6906695410917,33.7632010864014,51.666235341548,29.6318999954491,51.244963992291,56.0980556777934,33.799450191122,77.6337327192666,48.9981790498275,87.9107859683605,100.319635076297,150.864871646376,138.792223406295,133.200394753249,116.364963213371,165.86452515977,164.026898210544
-9.12704233101414,-101.162659708803,19.9771013977161,-46.4338235928644,-88.9470751371275,80.0915315851158,1.05661096802506,-52.9837789006883,68.1159491670844,3.96514775001032,-51.8630361626147,162.605938734564,96.4589786350821,5.9216982386829,323.819371325461,216.395574679371,535.343564103962,355.073423683791,172.692394125399,646.935592619441,339.715879529035,1355.11972307361,707.354929401057,318.432509686841,1739.60935259098,550.368261273903,2934.58674654174,1289.67586240663,636.015266331388,2122.18211531681,814.058696463926,907.528999400617,83.0347222895879,2075.3429820941,2226.56319370212,686.415154643127,24.4688085134877,-40.7617158832475,2297.73402171896,954.514529168619,-140.88176698587,518.719573775381,-212.980503835526,-43.0878247756429,522.237117214242,-288.976940585391,-285.104326804543,-280.824145765221,-294.14641983294,-295.87757257419,-264.226430207774,-292.712437529446,-217.410345484024,-285.921057788833,-242.184131372786,-299.793740697752,-202.267366657434,-227.241394718555,-92.6271549008442,-153.32923745067,-180.769774868418,-219.796846726261,-86.0100844229937,-159.069256320234
-214.939869327171,-332.109818637113,-185.851945887559,-268.254107929231,-335.961160065974,-119.797447503689,-213.48544332542,-285.658072116772,-134.841542320651,-227.953619218913,-303.996763818607,-26.9282694062316,-118.682295403898,-240.21187981602,144.918624717495,0.42585630512554,374.179843925922,149.281547721949,-59.4015122740117,438.063065173454,113.31097772382,1132.12903119073,438.794028702647,146.799782586956,1251.58424447756,433.373757719383,2630.00444389436,941.458541745694,815.578414785452,1640.67668032199,910.978614326156,630.341441151366,-333.189188798016,2253.08613499606,1723.79982454095,545.366457212507,-285.346695361583,-660.926106540659,1979.22709463151,672.304834429289,-418.462455342538,225.881713164343,-565.600585563872,-11.8357408600129,-25.8139340518901,-427.182304717414,-461.992849240173,-444.365336067281,-476.686546422271,-494.351684297863,-434.600365484226,-500.51064094104,-401.595124728535,-473.813020748023,-445.669742353621,-517.98647985123,-396.832324726214,-444.23321250352,-272.23614494208,-354.207197490397,-394.411737706348,-436.564012007139,-266.393770834661,-374.161591194545
-313.693522029756,-422.663565077078,-297.779710179338,-366.733248191562,-438.349812726349,-238.305236713654,-326.284704571151,-396.349582790681,-254.326488530103,-348.530209723583,-421.856154799021,-161.547572815612,-254.725016715987,-373.371903960309,-20.6246418665866,-170.233452477165,173.443310969639,-42.7102126130225,-230.596034720716,178.477768383459,-107.160765172614,733.307561054496,111.099829144156,-49.5963595907477,614.295345103135,192.15222963475,2000.69616589599,412.80065434747,634.667632946758,1272.01245569483,837.981787056936,441.549457905041,-472.692879758494,2148.48750748779,1213.42105976061,323.657640433749,-124.857952652885,-801.917524844883,1551.39498835624,487.143146171738,-409.985653281466,102.713543427052,-834.765230207765,18.7186328519429,-211.247172308359,-445.733440480465,-485.591552455572,-471.233653152894,-507.058312298234,-532.16754753672,-475.430056503482,-549.681792503218,-458.674559113596,-513.065471202357,-505.978995122486,-577.776136168056,-464.542397373787,-514.406884694512,-349.66084320642,-430.202120121133,-463.42578706976,-497.948623987441,-342.72852825654,-434.506201767787
-343.212132706739,-431.068711373553,-338.587731834727,-396.627672511654,-457.194696492159,-286.079613978677,-369.591438821528,-431.017135388258,-314.089829641931,-399.032119372997,-460.310485987117,-245.354837267384,-330.657145469678,-429.515361706478,-156.409323454386,-293.298268992805,-24.0622669397764,-209.019591159504,-351.403171475298,-91.7724399573645,-299.584372970044,224.701892691771,-241.43029059081,-247.994488767762,-116.853580693805,-130.837866910239,990.033141893244,-267.500928145512,289.047787229984,603.122749626159,414.703369284076,407.572990615494,-483.734528841623,1594.99026345445,661.912171850962,-34.8674832394511,193.550218366708,-641.141710913887,934.935983775073,267.830847681237,-181.575616190949,175.211615326734,-848.315696313206,217.938135963851,-76.290925473615,-447.571130465505,-493.409913437652,-456.957924490138,-499.36374824056,-538.115942694995,-460.01184115787,-546.452408587947,-441.238480360367,-493.624452971261,-505.678237635187,-578.967190814175,-467.339563406011,-518.722673685367,-359.832342123126,-444.15633532714,-465.007382068209,-496.209369848009,-358.893190083094,-422.25503992781
-360.495531928018,-433.267930291305,-357.784813307039,-424.31051854755,-468.117185905299,-314.245878459418,-398.896594896129,-452.71362539048,-363.070986588169,-435.44831420276,-485.282343368464,-315.128247401745,-390.822102194825,-468.016109570485,-281.572923347593,-398.649103461436,-209.80039585011,-362.470323618427,-452.769804762147,-348.010025649073,-465.051290166214,-279.432111608784,-565.29383783511,-427.239950593366,-789.246501788908,-450.551124318009,-131.758855952393,-870.037979683631,-30.5492733649944,-313.343357217638,-217.119897333456,460.235080191085,-413.338547141238,763.87449575975,88.716579040074,-344.030206128427,454.876276740264,-423.164473418466,237.033772289888,-0.617403808989346,195.762748048965,407.243235241554,-541.003689377102,708.16681376175,301.131686898526,-429.461466628531,-526.299549049796,-432.799713569082,-499.034635461952,-562.682854627334,-425.423040805862,-547.824766256683,-407.076241795849,-473.373804889929,-497.873217011824,-581.765021058455,-454.009283453583,-518.667587323902,-349.618327996457,-443.189636999309,-467.275840910219,-502.153152005242,-360.643107876453,-419.345511839882
