17.1816557868726,16.0942092180832,19.2840524865321,17.3266486627112,20.9514705586759,18.9215702969357,19.2115560486128,21.8214278137074,17.1091593489533,20.5889883690794,24.2138102650441,18.9215702969357,21.0964634345145,23.2713565720933,20.733981244918,22.6188886308197,13.3393445771501,17.9791166039849,24.5762924546406,13.2668481392308,21.6764349378688,12.0344086946028,13.2668481392308,23.8513280754476,1.88490738590164,11.599430067087,-11.6719265050063,-4.71226846475409,12.1794015704414,-17.6891308523077,12.7593730737957,30.3760074881841,43.1353805619798,-13.1218552633922,7.0321544781715,29.6510431089911,58.2146396491929,31.5359504948928,5.00225421643127,31.5359504948928,51.7624566743757,43.4978627515762,59.9545541592559,32.4059077499243,29.7235395469104,20.2990026174023,22.5463921929004,23.4163494479319,23.9238245133669,24.0688173892055,23.0538672583354,22.3289028791425,19.50154180029,22.7638815066582,25.66373902343,24.1413138271248,20.0815133036444,19.8640239898865,21.0964634345145,19.7190311140479,21.1689598724338,20.9514705586759,20.8789741207566,23.7788316375283
85.9488474609108,81.5139026788484,96.7946290943692,86.854324662836,103.474050363666,94.2771985568385,95.6531743331732,108.036956320186,86.0398321443428,102.044066394925,119.17126716119,94.639680746435,104.814506193107,114.554353012263,104.399472355236,112.183371894703,70.0370544378927,91.4726953558944,121.906187012478,71.5054714417914,109.378868693759,66.0925530198845,73.3178823897737,117.958772506206,21.8482084958102,61.9261926557229,-43.638602054548,-12.3550979325771,60.400854371154,-74.6549783027501,61.4853878516798,146.235859270724,200.326610454636,-53.4908348909128,40.7620492438856,139.751069437277,273.399776020348,145.070090087488,30.9852259337038,153.044698258611,244.741718820721,197.116822396543,287.382849273981,151.445406991991,135.672780668284,101.030572808186,111.621888636861,116.257291031301,118.012780698613,118.555775710942,114.827307062559,110.517410366691,98.6965681816518,113.088849096628,125.906153167025,118.174805275832,100.50606604137,97.879162574895,105.031995506865,98.5686070071942,105.013507261352,102.386603794877,103.637531485017,117.397289248365
176.827434033787,169.719254994736,201.029406097065,179.54131812745,209.19489686681,193.439447467171,195.643308983286,218.812898772607,179.101644917414,207.489811777364,239.188865935713,194.796934997993,214.117737500814,230.939597711616,216.866085438943,227.572189574252,155.190494354776,193.862524283086,248.318281463293,164.580561679346,228.865223645198,155.066972543822,173.905374660632,239.168230619792,87.1554519687303,142.510320270416,-45.3390497473074,13.2895844998656,124.520003902048,-106.136054668784,121.015866220353,282.33452890026,363.043269293888,-69.4471589044431,101.979113296352,263.464576027247,507.051850960925,255.805213775136,84.3416695990748,299.516759095805,463.06272709935,339.180416503932,555.497646249267,279.895275754489,235.673522368362,207.005919981667,227.402922902399,237.002436562684,238.886943506881,239.010900625093,234.789876407802,223.992352281803,206.991470657953,231.083534485027,251.62258232778,237.028132037276,208.159711861723,197.017793349935,214.932230019307,202.959222594902,213.36449526936,203.672505515958,211.160633753246,237.259049437875
195.432294368265,188.347723577593,226.082580621956,198.788410485827,224.304616312484,213.97668396951,214.344099714378,234.34452010105,202.783768294016,224.51935950862,252.498587238697,215.55526442863,233.901902167884,247.386259033895,242.792559153016,244.185463188611,193.323268401602,224.251171848099,269.49904667289,216.831141817298,260.110303592508,207.014279421928,236.32885352831,257.643413163473,182.576490424988,191.170234612701,31.1318127159841,96.452288848515,142.426378102098,-14.7185584064551,129.437807524338,271.247228134852,306.524651322926,10.3973738808997,149.63503423689,251.949321606182,453.590893125777,198.97465581354,137.577377432305,300.566212240869,442.180088459657,246.725287503163,548.270701362546,255.473216670233,175.560418035508,228.392947636242,250.435406798009,258.110115019516,258.528214682237,256.487753552991,256.859354300015,241.469193051793,236.240218399976,253.862888018268,264.152013276349,253.249357190828,234.681695099848,209.598605866822,235.429021946709,224.176105190423,229.442277646412,213.123974680967,230.452294222015,255.275019925261
139.948356155189,129.926863594474,163.392236522215,137.364955368185,149.726483976854,154.240971435109,151.077160307542,156.134995447156,150.566351150191,151.274711612508,163.12673595638,153.891024969881,160.728637495391,165.936050643198,174.26073365321,162.74191726226,166.128800593249,167.095561044028,182.233034138731,199.314501142705,192.259325324137,188.406741033459,219.533110101783,173.723428517365,243.268661411801,185.264587612556,125.973237441194,184.460354855469,116.315191025158,144.052421114157,102.651402624566,128.118247746919,100.166325248224,140.860993604304,161.728749631786,140.572324499494,179.908902123663,47.0062002093018,164.660139763622,177.848052416166,231.475545585707,19.98002347819,297.948767954911,127.800252766277,29.881232118608,164.831401682172,183.985585062739,179.173490089423,178.802134278157,175.927893473218,180.938150936403,164.922821194724,176.33239392943,180.977540109469,170.546243665684,171.750485972282,174.67498259906,138.645632826476,164.285571299788,157.220118157529,151.652485441221,138.921121939699,160.772210003043,174.296738905095
103.200361296524,86.2296447704685,114.362956056952,90.4058803387653,99.262263380905,113.933322760077,109.820214825915,105.186407695528,111.038586924546,98.650792530998,103.777349236074,110.859071815272,107.325480389,110.910758391811,122.613757162847,109.624036002777,141.005903402987,119.045192699369,118.830990666492,173.304644236556,142.600352684588,157.777250750077,182.639602028366,120.422204717622,247.047605580417,178.17769229585,179.224316732208,225.020297579773,113.118908220015,241.820378004164,114.82946116651,38.1796079686736,7.19161101073099,225.356835723945,172.939072851412,90.8941639813395,15.115559042026,14.7715549152627,180.181296018287,117.761778123065,100.948867696257,-66.072779986299,118.749305726825,76.4008894279353,5.72974333073449,129.305539494486,148.418743308965,129.820502063807,128.194750831005,128.275723637302,134.217243194365,116.795486191848,131.216974568169,134.210178802375,113.59916636403,121.549700250828,132.234562279185,94.5529863887631,116.458981869141,109.881100921542,97.6123580480299,95.6864969364216,112.522955242716,121.101112948457
102.791576903384,85.2749622861905,112.038943136037,89.5135984843882,97.9678838028848,114.497382464359,111.265359078453,103.302215233488,108.748257943229,95.7098344362046,100.671493896887,110.210700743503,104.169076838074,108.000649906009,120.989814889174,112.617475079859,143.225761894852,120.965414980794,114.598301754226,171.181536706822,146.603879488155,156.259313964256,172.429624830691,130.140326561971,230.219789943769,196.651539350143,217.24636535779,233.963320539296,145.816067455184,266.137042723134,165.244860582749,53.9430251676579,44.8246825775143,251.26515841872,196.83532122514,110.518520494845,-2.08638963986367,93.6701616507631,198.302509003128,141.786823160139,73.6247057740133,-16.773802432748,53.1138512614444,102.336245350388,92.5656470594109,150.33857006242,163.113485544392,142.033805289135,134.82661631917,136.211208973982,143.324781364475,121.033426952071,134.93608882147,139.020527838852,120.751448346751,128.98363529181,134.674092205831,102.13578712603,120.9074433756,111.356146007985,97.4414966901774,100.97537272206,112.576392127325,119.33393293785
75.7128382935624,65.3926924090958,94.8174427965773,74.6986618499803,71.921191144709,95.1765583994729,87.8789619626388,71.313377919158,90.5295905975614,75.465199361059,70.9360687215913,92.5859678184534,82.8619103599928,77.2218783984974,104.859115621505,90.8813668082041,125.446623620733,111.802362143945,89.2348559951218,147.005195183536,124.244410887694,144.506000205066,150.10429328099,111.303448509403,193.993618147486,183.986226456755,235.108846052915,214.172527340862,150.111228603067,250.58165220464,176.241499169806,68.0760900183035,54.2877301761671,239.859587021467,183.609146412271,89.6413673577711,-33.5353753960277,122.856362827471,190.838706005746,116.964935169944,5.26804995065872,16.8380817711367,-82.4587135746309,93.7791809979576,131.42828167343,145.577645567338,131.686828248321,125.281876192721,106.334298269501,102.930522500308,119.294074966708,88.6626538882442,119.783575617096,111.50414210144,94.4858664042945,102.639830423991,111.652327676416,82.5621763495478,103.146964987099,87.675751378362,71.2668056195443,73.5730630077286,91.4873542532997,85.0488937166615
-1.94617621565965,-12.1153207543659,23.5220725978669,4.89581338784697,-13.6711612124241,32.806542448105,14.861507978867,-15.5381994330314,29.8613417542657,2.87847320251485,-19.1812670425272,34.6158040823427,8.68882861839824,-13.5382914646448,41.588038899544,9.92724031948,63.7991484170741,44.7727728401079,3.8464013204368,67.0369207917551,32.5700796489038,83.0166810419871,69.846091681181,16.4343455888186,105.414923246779,90.0167927026354,182.081132664241,135.097328106199,79.9817447956455,184.249734109856,106.603656164569,11.4968003675767,-12.2763156445987,185.958790878961,102.722245854447,-6.75378900895532,-110.088752000671,55.6755390548655,128.121488760769,-0.517216924907458,-127.558249249909,14.9825208567351,-319.088113953764,6.57688913772052,71.7676043763499,49.2524334684907,-8.35948829279113,12.9955889015625,-19.8878411977902,-29.6866850161623,9.24135845534357,-34.4043979260398,29.3807981844888,2.4449084345336,-22.4683558782294,-16.9600035440116,15.6245270177713,-21.2274416038464,19.2416781775626,-7.25292932434089,-32.7384039062903,-32.2434075440584,5.54128372364831,-23.1119481348317
-89.8683832919119,-113.105144485386,-67.3329223472343,-89.2736009775326,-117.204904706601,-37.8411882878299,-67.4801083217381,-108.692942331793,-43.2564834315153,-85.1712951003723,-123.799077300279,-31.0741191907483,-77.4135337373095,-114.502183078546,-31.9171412747142,-82.6380739656942,-2.152182426476,-41.9926682418999,-93.3058604916606,-27.5866633913264,-71.8489448475511,3.22623814370231,-36.1669647932977,-92.5062381768825,-5.29158166210373,-31.2531264518386,87.4327590150469,29.9425099087021,-16.2466728738385,89.3373237366852,13.1520527128857,-69.810190594827,-89.4705451583133,110.940606761841,7.23203431962214,-109.869457357495,-165.544962064296,-38.2631059632084,39.5059486699956,-122.356681134666,-244.893079570965,9.3600597304934,-503.915470531064,-126.644157501524,-20.39708049095,-121.59249060315,-210.967243629137,-168.045305310413,-204.322378505435,-216.996586111946,-155.893472813322,-207.674031374743,-120.889578926841,-156.832235528767,-192.599831932217,-191.772135942145,-124.902302751166,-178.361921649315,-100.852009011639,-139.539206749946,-177.294948893547,-182.047934576684,-115.871846922739,-164.334960482535
-136.375848874288,-173.156402762961,-115.027909624808,-145.334767419976,-179.709583480563,-71.7189332956204,-112.23860773538,-155.991965064071,-81.1803658899166,-130.498418583182,-181.049939972284,-60.5211792129875,-115.104314419239,-165.367273153952,-62.3055792114225,-124.610950714667,-21.2120331171303,-78.7687925623199,-138.725275478074,-68.3636319105179,-110.765965926707,-29.1453780899594,-88.9516623958579,-130.361966010042,-55.2695347445218,-77.9798488869993,44.5156220569557,-13.719443453659,-48.0246403285036,41.3268257482194,-16.807873972639,-95.1650203215879,-117.107119614027,74.017723101332,-24.8332954266893,-136.406839076181,-162.145856751107,-91.9581787389092,-4.37327519057613,-151.652714058073,-276.979344453946,-0.729908977216692,-502.147467976692,-215.442075038648,-74.7046694401085,-289.682346739423,-361.744165990835,-326.588295353475,-346.578870335105,-355.376427539194,-303.681103518577,-339.18493948942,-258.806950692811,-291.47962942478,-328.736873904872,-325.121626042003,-240.002801848324,-297.552972604201,-197.706321543748,-242.760164954521,-280.0524227488,-295.822886391944,-205.304014268055,-266.779614181761
-134.520218578494,-173.097733636571,-108.263605235963,-144.863844246984,-187.278383906066,-61.7103415057222,-113.199093480051,-149.114102394701,-73.8877019637613,-123.294602694886,-176.231256732429,-45.8197012505201,-98.1977338174122,-156.811664757332,-44.4230126471656,-107.966331201633,1.51520471403048,-58.6008073868872,-127.490279436898,-48.2159936607542,-83.0962436605896,-2.92982169964648,-69.7341577062561,-96.5102882040635,-31.6639331100933,-41.8657476446876,68.4750352567908,16.3938403022304,-10.0244795569355,57.9059229097363,18.2188771007732,-58.9951149233599,-98.5844260451574,86.3266004201413,8.97791555210548,-82.7150542384823,-119.912122965226,-95.5505994895787,15.5933168555358,-87.9630048048445,-220.922984244754,-16.9652603782871,-338.710400387863,-198.009310330722,-77.8717274595046,-394.449295517252,-401.928071150656,-400.969173937904,-392.924305904312,-389.464702029238,-383.385523439465,-379.520516469628,-328.987211781133,-349.614616571801,-375.062082154028,-361.068849360389,-293.621519062308,-326.545036249782,-241.935387140427,-285.743129304119,-304.573757008269,-326.966027046466,-233.837440738833,-297.202492543734
-121.453685686118,-152.237324315188,-93.3413270170108,-123.860847642893,-171.166732206927,-45.3841726010728,-101.298763045734,-124.949576434202,-59.9957662325151,-104.04455731996,-149.753284545204,-26.7471565434376,-74.9972172442463,-127.056634205307,-23.8471819522396,-79.7111928576668,14.0472257993989,-35.8679532892263,-102.866400789184,-22.6283344735505,-52.4433633438381,28.3755354116902,-36.9682631360122,-59.1583847442877,-2.81484096342938,-3.58116076838766,89.7484578097954,47.8687449550854,22.977472710109,77.9163866315631,46.9090760778527,-27.3691769817892,-80.6955794777418,93.8305365249651,42.5097586746417,-23.5241804502724,-96.7506625398345,-80.6923216982021,43.9529563243628,-16.0221669129205,-146.214311531968,-46.5529813081349,-163.826280072925,-142.261661987512,-64.5575652034603,-433.628330278343,-378.350304961977,-407.923285157719,-376.282332899712,-360.305433244516,-394.56784039041,-358.230790531343,-337.078678291748,-342.838489463011,-349.005438616843,-331.258856585172,-300.599554012834,-298.737389392107,-246.643525448479,-283.30737273352,-283.95561775875,-302.47096279613,-229.606865301797,-279.93171867684
-111.239256892352,-131.339808764112,-90.112219679962,-100.110351411558,-146.110301859574,-46.0713883361227,-90.297894475825,-108.148150256909,-62.8272969392643,-87.9906670478433,-125.243895682991,-30.7050119155718,-67.1752025391958,-99.8182585250576,-26.590666661408,-65.2722789206383,-2.30735537867848,-34.152031851273,-83.9376905101654,-20.9018619813527,-43.3054841037439,32.5103332278923,-25.7698218528942,-44.520112025927,0.406186009100813,3.5078853885137,82.1878436132091,49.5276927422568,29.7654419348228,75.5735370206095,48.3591576918286,-25.5556983261901,-78.475607639869,76.5810637355268,49.6401658178006,0.984865055680054,-111.725646056623,-68.7480728786694,48.1262815025187,13.6320316606033,-108.029977420095,-85.3565334260478,-72.7223209426737,-137.406366701936,-59.1786638927521,-406.888936574504,-327.600719431337,-363.46765158741,-322.7090544851,-306.155232146038,-340.833757379981,-300.382453154199,-290.035050406084,-291.632612022777,-280.724182727901,-270.974680021649,-259.709181691998,-246.519834483268,-214.498692225775,-240.428460505118,-236.726971447879,-247.977916938539,-201.229433925792,-233.558321678175
-84.9991868710791,-90.784816997365,-74.613607725375,-60.0645940147552,-98.4452877025651,-48.5889748392258,-67.4753230003723,-84.419475357471,-63.5466134804318,-56.9970481216734,-83.8543679446114,-39.8690916215282,-53.5317660544124,-64.9802253813691,-34.7039014542439,-45.5153250467776,-21.8870122210253,-27.6526548596084,-56.7204515266624,-23.5192310606809,-28.2753240673128,27.6960509295935,-18.1753993282608,-21.3384862274704,5.26142737194021,12.2889412422228,77.5740611452471,54.138691555104,51.1137438079046,82.5906163136299,62.6771624659479,-14.5637968192845,-66.6295543995435,68.8048473978643,65.6707077059167,28.7475862942223,-122.208963920537,-65.4302757861783,54.4143350958913,33.4199395145184,-87.6316795389713,-104.533761749446,-26.3577724956918,-164.289271348028,-63.0427687933007,-295.451679837494,-228.726741611124,-250.900288538571,-217.357193688167,-211.828818775967,-219.133846506379,-194.372573607562,-177.744449095681,-190.706625294119,-174.653691535834,-173.957360944351,-156.088608071018,-156.159839384645,-133.182006023845,-148.222267230162,-145.848914402984,-151.473350475153,-127.049669305856,-151.855527721062
-47.5965128535406,-35.837420087538,-45.3336064024212,-14.5792091928289,-39.2960285169773,-41.9353097844011,-38.8094992080122,-48.485407171446,-51.2633786019783,-19.9361399513534,-31.6308326408035,-36.9415338623671,-31.6606410657095,-27.2074164058494,-34.4965776453988,-17.4264828441473,-35.5626459995374,-9.58707994085272,-24.7801764172039,-23.5737874165397,-7.55943199643365,23.9977211198356,-11.1283109516719,11.4258539730406,13.6048332937945,25.7973940453303,75.2051762718287,64.4647033228017,79.257669172208,95.0953806922442,86.27277865944,12.3983221875231,-51.5819562035189,69.9347271665662,90.7521037120239,72.3372459655634,-111.8798440205,-92.1268923587516,65.9632364887662,62.7185110555795,-71.2724107579943,-112.236112591793,9.37433775758251,-189.426590150959,-90.9749149169823,-147.853395968483,-119.088767115514,-114.836196992739,-100.389774408409,-105.051228762055,-84.7176124612412,-77.5805970287401,-49.5560804384425,-74.5104021044579,-66.8042193002392,-70.3890276014439,-39.3621611396844,-50.1986104974909,-37.8154360424053,-43.4424697667451,-40.3319897279183,-44.0545972901166,-35.3616144481342,-63.0079572074463
-24.072074938745,-2.0639276916784,-28.4677757583441,7.05725744132226,-5.73589226039813,-35.2342466982315,-25.4335130094464,-24.0320146629003,-41.1438048512511,-4.0607080726563,-7.05908032988184,-32.4462771160208,-22.652025201972,-12.8191310273731,-35.991222678866,-7.92652668569916,-59.4476682630602,-7.36191269301032,-14.0517662401656,-41.0464694219036,-14.9341320622396,2.30968912201948,-29.4609176236939,9.66274975229916,-6.13480274603023,6.10229096214343,42.663845421443,41.2703026405683,60.0960483542936,67.7124851921529,65.7508617948193,8.21258207204475,-75.3664121320265,38.0189264002984,72.0493156869487,72.6073917936806,-121.283840938262,-162.73438193473,40.9798576032378,55.1016121336542,-97.1813485701671,-162.031513248527,-10.9665959968869,-243.14562151101,-158.221416630104,-72.972876230766,-90.0893889473597,-53.1936092323058,-57.1703583437372,-62.5356379490537,-25.149959176302,-29.6467684727992,8.01050522392471,-17.0457084175567,-20.8433841592485,-27.6704963245598,10.6732995343231,2.58400706220118,7.18652764622807,11.3533054252578,14.0734464168643,2.60013213097252,10.1716888137421,-19.2194631122627
-17.0155884465053,4.33168095860362,-30.4327748717148,6.41925627550564,-3.7234155164484,-39.9973889962105,-27.1960356495144,-22.2854780341132,-43.88535760952,-8.45743876935487,-11.647078310023,-41.7448940253973,-29.8769206177491,-22.3128601890117,-49.8397225196883,-27.2112489710881,-100.437207099313,-34.8642400880927,-33.9322686313168,-82.9003298099315,-56.8546525985903,-46.953089701188,-77.5099495639128,-37.483229894997,-59.6747508393182,-51.5562807274289,-19.2185775173654,-18.5523533425471,-6.67889616833649,-0.112023405021287,-1.800984131968,-39.7195400392584,-132.883073240865,-26.2101905451714,1.6561212185306,7.18143644115155,-159.768102022491,-231.907582647823,-24.3615305212602,-7.31184992353933,-162.366004552,-253.655206102361,-81.7591607513896,-308.090419517444,-227.069334021891,-64.4044865071987,-108.528647837067,-51.0249322850605,-60.5012177936284,-63.8250282223475,-22.9385795219311,-31.6955187882595,6.93538486140748,-10.0619744467583,-17.2591654333362,-26.4785357466332,11.1403549307876,9.4563300991638,6.06864720236243,23.5170154543296,26.2863900052353,2.5313899436697,14.1603077935127,-7.39670583951811
-10.2552532800802,15.9046507812568,-33.8840248013288,10.9022480381979,2.84800004290418,-58.8462749542129,-28.0538712556975,-20.6675156529381,-54.8035846436524,-11.3326260313672,-9.05632796144191,-65.9655982316722,-38.3381438832643,-26.4049378849429,-75.2968458886166,-53.6741551111658,-149.801103421074,-74.7008526920771,-60.1770618427668,-131.544808343924,-99.9204500272999,-106.721899035387,-125.786105524794,-81.0157829076094,-117.278007591878,-101.476949538507,-79.3920848188056,-70.5397045713314,-57.1772298435516,-55.9229436492003,-53.9304222483804,-75.7870922869082,-152.159823786374,-75.4510602813009,-57.115598171654,-52.0939055330574,-163.800171323766,-221.233319965696,-74.5026888872323,-53.6060481119895,-188.29723816536,-291.262073904007,-99.4673178147293,-284.872480965552,-219.335128237214,33.0795384447311,-15.0235121607951,39.868510256978,31.5645384891446,19.877613102809,48.0713494989937,43.4025762537188,59.884648037916,53.2634832468373,52.9496242583299,43.0564543965495,62.9173855551077,70.6599408812245,35.2058612803856,70.9913219204718,80.6232142076726,58.4732126525421,47.055930180022,48.4625660554835
12.000920218515,57.0514140458056,-21.4849893689503,37.0085018084068,42.673164878789,-74.4835385236689,-15.0258467435188,6.4296649645484,-58.4176263214387,1.48939469705711,18.3545957122797,-89.5383145101207,-35.9387661338447,-5.2424658640377,-98.8011255185881,-59.5906231182004,-186.761790226953,-97.447193393955,-59.7732958706775,-160.607614759348,-108.49007706929,-153.057863929615,-142.123752867136,-76.7698248361193,-149.966159468165,-106.694500837343,-118.357997742217,-85.7519026042147,-47.8749079012511,-71.471056297868,-51.4493337948062,-46.9090290973349,-83.6556576125349,-90.412642414634,-58.3491799048932,-39.7086758140417,-79.4385698859766,-109.691763583855,-81.4376147167151,-22.8492273088266,-126.648774751703,-195.092805490004,-8.66409561168106,-135.418872103401,-105.988730843798,275.431672988744,229.990290799292,272.446264870337,255.634625103006,227.203783444027,233.850598872068,237.148694176292,210.730260735374,215.881021449163,227.357463868873,212.322898632337,195.818841162494,223.759093079914,133.336845096083,186.178216214323,206.116349547823,204.031653713509,138.250767037484,172.228904614199
57.79463078558,114.993034302064,11.3063252154384,80.1369925322752,104.671725824074,-62.1242425207513,17.019075802111,53.984085428963,-39.1979164025192,29.656313596359,61.4646423741794,-89.6297058918039,-18.1170200711946,34.6107596544726,-100.678745506676,-35.7067287722591,-186.263051591325,-84.5020929929586,-27.1819690477282,-152.827516251687,-77.0406205529152,-170.327122229803,-120.951956972502,-34.1117020793086,-148.67062982166,-75.1184917108085,-132.349556571788,-72.7257162936388,1.64764528084159,-65.9997188357653,-17.0752233815685,32.9052387830862,34.1946565835455,-91.9732946752149,-24.8358003352881,17.0338005931609,57.0538892377284,42.508455450712,-80.9898925038788,43.3408625701441,-17.5919213800374,-19.0552148544886,118.593372926196,60.9157973050551,51.6317704507732,497.576785812464,460.180495917399,493.586267860035,463.160082127695,425.026896316244,418.580724515552,422.883621982422,365.408462247647,379.859534309453,398.897706834798,374.527326549234,327.706090432808,376.028277553312,249.711021133975,306.304530412535,331.388194295925,351.553268353573,239.893319386717,295.392594975508
104.100770945715,153.434709977415,43.2200909363019,114.374711978197,149.729322245437,-33.5674449604819,50.3781667642076,88.6761499748741,-11.8712862035568,54.3646958542696,98.9472732971152,-69.5112151354848,3.23784100327551,64.9038124723269,-86.7731265513995,-4.43070527540515,-156.785336726024,-53.5951828725414,7.43948479750983,-124.947211501202,-38.8627013070402,-164.965987491537,-88.0745938601147,3.41240208407078,-129.250285260821,-41.0710029243526,-130.938601279387,-54.6476939940551,42.4742377422702,-63.4054367628975,5.70108055522211,99.1931501030261,122.568202278125,-97.2750151720972,-5.69700039025702,42.2162909754076,154.9732394364,160.049265703411,-100.772167588681,58.2027399979768,67.5606524228026,109.149983347438,171.009649261865,212.771937244015,171.208525425939,552.340525795337,532.087417604176,555.785442659774,525.453061426515,490.172449672623,485.628832750572,481.652113115015,425.0964503254,440.779928038539,457.422596385953,432.980544568785,381.125926785615,432.649648783203,311.690466652892,357.441561800434,383.50553062747,414.307068412111,289.558495580157,348.064654695707
104.963733418696,147.465016121206,39.3826610541776,107.92690181486,146.529286414337,-32.6586599139032,50.8288781242705,81.8457838778514,-13.4438134719864,48.3823919686087,103.04121611324,-65.0584897335554,0.767287455091886,60.2008608552934,-91.3425043838659,-2.41404071065358,-143.36782483579,-45.9582047976642,11.9352160881866,-116.978895854854,-34.7570677989004,-165.50897883326,-75.7500500721511,4.58767564010243,-123.109246753262,-33.9961327560773,-136.865026405617,-52.9193611677557,45.1929471326041,-70.165419012619,-3.20558507381105,111.385171558563,145.05556314684,-104.869396484245,-16.9490041049771,4.53342481066879,174.32243596833,209.034644796769,-117.839666610002,3.10408124008448,99.0327472796473,144.413744321595,113.127174087002,298.135597061627,222.949049024823,499.103475555972,488.374989592195,500.217364252963,480.175663355301,452.875888782896,451.399881613969,440.626099254264,395.67485521105,407.754242002348,417.149027259466,404.067942001792,356.035763266424,401.102875960746,298.13537551409,331.788134636683,361.600154832168,392.003981313668,268.304588717714,327.790801499417
54.0104905002486,103.661720576719,-4.3371676861574,61.1006614514189,100.307196367159,-71.17073940573,11.8009231221482,38.5262656661689,-49.5599719044525,9.48575871964377,65.2089305076371,-92.4644338382064,-32.3009287453097,26.3622410876707,-124.425484296646,-36.1332188152653,-164.621438431007,-72.8972460730665,-12.8775923223457,-137.626383756565,-63.9920833663344,-184.497590199787,-92.0090658556219,-23.912287351014,-139.845837708174,-56.1544650785255,-156.101450030475,-74.5626337299293,13.5566751340698,-85.3526711139729,-34.1465280547121,84.2265825555727,113.742692535847,-108.780795453171,-37.8102508865877,-72.1164741400777,147.383033233654,191.385220456555,-109.764211764698,-66.2109061140982,92.0939295640261,132.03416324257,8.85051622315468,328.209139600977,210.380453262617,446.168750843593,422.859838804758,430.201576553374,412.39598394082,391.14717908118,384.157275238359,375.352551515754,327.85676491984,341.016872875425,346.707815228156,340.927831258577,285.902616705698,332.772797411451,232.98170734896,264.477609414982,299.118805556527,324.878026812125,199.521632804558,266.532225184615
-9.89728878136709,41.7607591370488,-57.7404692891846,0.908133463411759,36.7348160120567,-118.09149982634,-38.983069307031,-15.0586561468237,-92.6817476370076,-40.2391917772374,5.77299032433027,-130.616982990766,-74.0524104370434,-17.5345881821843,-160.180547355588,-80.0424805152671,-193.630948429823,-111.068412567724,-50.6826038946658,-160.664659493358,-98.047316091581,-204.768807741562,-123.969429458173,-61.2880015218838,-160.297575368425,-89.8401136156751,-173.298552205397,-111.07999660965,-37.2770509261951,-112.38771648625,-76.6996588321902,41.5597484789604,43.1328198926129,-115.539343754344,-61.4525300999092,-173.833818987563,97.671100701479,121.641960871384,-98.6245276070111,-119.204196977421,55.5314728755529,97.0346326118592,-71.772856812834,289.204369207894,136.850585722818,376.869506604169,334.758569176623,345.748982587198,324.901391109312,305.361054278886,291.765197705505,290.212429675936,230.233285878718,251.472477438595,257.285983957382,251.032126329272,185.332531291347,241.864418198443,140.273543601372,176.780792719359,209.237566634619,231.676697016283,109.504268649161,181.223263827276
-68.2435730799413,-29.4961121077609,-105.450244113474,-61.8071017524348,-33.916202020077,-156.232938498424,-86.8592951938215,-70.8818154622323,-130.932161737304,-92.3478515104329,-59.4938070023547,-165.362215172547,-115.172353394041,-70.4589052921786,-187.933993577196,-123.585691588393,-211.132099338074,-148.653490554288,-101.953837509555,-178.736409232932,-135.626558971499,-220.205074808126,-163.521774740423,-107.798999436459,-182.464659962987,-128.447703199739,-195.63251219865,-158.862018322199,-96.7270355406419,-167.786873372275,-140.764044747019,-6.27434997740828,-52.6082650893268,-156.434989838491,-128.613864140793,-288.953384637576,17.7517780330512,31.4677683713673,-133.487810332607,-192.924455662212,-7.55957729004991,35.787656414573,-137.859017872569,180.382595133878,33.448093593219,233.79944953268,194.459003908688,202.611934680856,188.178726600668,172.221102726623,152.307629813188,161.289269720162,91.671020211073,120.590666259811,126.523356065142,125.195261695545,57.766717980246,121.526002448064,28.2428803477782,67.0474271890353,89.7724936926901,113.153193331566,6.01049676871512,73.6862766733383
-131.33024166639,-105.730332447169,-158.563213104819,-129.433305066181,-111.7880189444,-192.731099064129,-140.689009918537,-135.700399899473,-172.070662129549,-151.522573097618,-130.189031543813,-199.192914033762,-162.965052004503,-133.618630916671,-218.122802772899,-175.830216711158,-223.256862156424,-191.178981800359,-165.24809690098,-206.466549421595,-190.092730075343,-247.186756121123,-211.336448681155,-168.233214200761,-229.349283456893,-178.644205847792,-253.902476161721,-227.608805685418,-153.915386983049,-272.46378484813,-236.951597893782,-37.39088403197,-132.830450038157,-265.311878989075,-290.465602803417,-345.108987308555,-65.7880605254157,-33.2430092269617,-249.224726855443,-332.321439823372,-57.3753985895435,-18.1826893791816,-217.778723446359,69.6873936131777,-41.1073265960781,41.6851832591536,28.7225817294336,21.1893638803388,21.0942173166914,19.7684488942712,-15.5229300419282,11.0967700495231,-65.5248131013776,-33.9886659802269,-28.1586220866881,-16.7599754287978,-79.6747364386432,-13.6440152536628,-93.2283068084207,-58.7035583330736,-46.0082130859905,-19.0553594871237,-102.622953986251,-46.7431250570504
-190.53154039738,-171.585203158593,-211.095254927564,-188.790707003512,-179.760932780697,-222.262363582031,-193.254911913745,-194.017535949131,-210.676926934604,-204.827636206777,-192.343579011525,-223.665249795521,-205.662719022791,-188.016442580363,-243.727780705634,-225.607952793544,-230.81014084319,-230.679174692073,-214.726587784697,-238.634243979079,-244.363816689433,-283.430749028574,-260.347746397344,-223.943357194012,-297.972541468759,-236.134468627038,-343.386137886103,-317.361637307012,-198.890530233705,-413.923125679234,-354.059024494899,-39.7750624727534,-152.105860990999,-416.803432080769,-535.646061973621,-279.162885934791,-100.966062920512,-44.5894237762474,-425.736561356674,-535.779006801654,-63.6101700640989,-9.28117163856504,-280.587255393406,23.6351730404045,-56.3989852203481,-125.933833068025,-112.849276033644,-136.095099226903,-122.926162478981,-105.825568217537,-160.12052249764,-114.423380653646,-197.526084995428,-163.793048014254,-157.03177664313,-137.047881554046,-198.426059653071,-131.535648487516,-198.634182060063,-170.31085977516,-163.000662743796,-135.630350651452,-193.732472835755,-153.539088509222
-222.245954978889,-209.467459070983,-235.96545216131,-223.187624234001,-216.082356039605,-233.919535542889,-222.243611574564,-222.934256933274,-230.767281438852,-232.026690374735,-223.953250949205,-228.02476227027,-223.205385528634,-215.690623031001,-250.621791872915,-250.187692959821,-226.195720668163,-252.811628403461,-234.854732071839,-254.899027951692,-273.175608872933,-302.100089812942,-296.446071764643,-258.302448189699,-353.932029094571,-290.406762436826,-410.052893774266,-407.966196137108,-241.693502764617,-534.377471685745,-470.227974596074,-69.2408710503387,-121.645146668129,-520.748177414599,-774.422056545328,-175.650794737456,-108.875888410828,-16.7602894757995,-588.858608173558,-739.362010445362,-83.517000272987,56.1893691672702,-298.145128363317,11.6762268009409,-31.3451958074208,-229.574449347007,-205.023731602535,-234.458679660232,-210.438685853007,-185.825628633361,-247.183062461171,-195.788014938762,-278.154042397622,-242.535988686727,-234.103824603606,-213.257292910659,-276.387346714956,-210.104516168992,-265.327275856513,-239.622861600652,-234.232109392551,-211.584541314564,-252.362335633817,-221.807916940819
-226.313380983854,-219.754725107226,-231.391000819988,-236.062478060067,-226.059381321787,-235.492682804268,-228.591227986705,-228.635276262401,-229.934946869326,-235.87655656744,-229.741185199527,-220.614016395664,-222.087276610731,-222.950328066462,-245.93358636171,-253.152594884279,-213.526367945849,-262.476568381611,-245.108137465804,-253.672495227598,-282.372731517897,-294.110509372072,-315.793222523477,-284.474926565115,-378.227127716709,-343.780274442747,-411.480850888847,-475.917498223306,-311.489064681125,-576.904234181859,-564.302679749152,-215.078172732443,-120.888606660086,-515.28360269498,-901.733713197632,-207.125621225934,-182.948485920062,-1.38205774441325,-670.545986589359,-843.432436613808,-199.877150043185,88.8123213577536,-305.733317881055,-43.9639628633223,-13.4336245622316,-278.723740472221,-249.88155312781,-280.591569149409,-249.805552595543,-224.544559705177,-282.973381734674,-237.461327667414,-312.922656396183,-281.58909017001,-270.809836816519,-250.357246745466,-310.378467265034,-248.669462695969,-295.842390801009,-268.784677820782,-265.100910579245,-247.311122469247,-284.739063726457,-251.790383313579
-218.512472130494,-216.484252999831,-220.50336231193,-238.542709827057,-227.4347148924,-232.553172468619,-228.292861994681,-226.818705089758,-216.810402453416,-229.835464287348,-229.187835195887,-209.52654859439,-218.392193519872,-222.921901769959,-237.525361377593,-249.139870158314,-199.511779092707,-267.600228946461,-258.493074747995,-244.490959096528,-286.634734835162,-271.589796898935,-321.811805437241,-317.546689885912,-372.252926104793,-395.641137045024,-356.225735189413,-499.654190971509,-412.717122574783,-530.24680274452,-609.643374281071,-470.366725520603,-215.553558492329,-424.998257655694,-868.808340148529,-405.384504904026,-362.039512201945,-51.521451237455,-648.516316730715,-796.845791546773,-389.81899852974,12.4744826843354,-331.313349561495,-163.568096956071,-51.5679890145051,-296.149051022747,-263.241993692414,-295.801441209483,-266.847583976588,-234.716216671369,-293.744257336851,-248.063410851294,-323.992698725086,-297.360877791516,-283.438739210602,-264.417285362814,-314.453622411433,-260.032162839207,-304.028948262205,-275.288958703304,-273.336033216272,-257.749117221552,-297.082785604929,-258.756492542933
-204.161472315202,-206.687461162464,-208.778776967586,-231.46256983253,-220.672447470174,-214.387632479444,-219.411659720716,-216.193511074612,-196.656421292914,-214.118009747751,-223.600035636144,-187.062242021544,-208.660416391345,-216.828747363359,-217.30667233363,-236.788645345218,-177.641688827589,-258.628292728947,-258.097156480954,-225.005618831636,-281.370190690197,-237.323825235424,-311.871929051662,-347.178287852656,-340.259006102334,-424.564949514299,-280.803298132636,-469.691516149212,-504.560989929392,-436.887618215841,-587.518965397415,-704.881566205246,-373.234673215104,-314.108649925285,-717.410357525531,-604.852163797046,-578.475951739123,-171.46443325266,-548.064882939784,-645.663465612171,-540.988180724375,-148.90201389341,-340.762965471492,-306.273829834901,-161.220279789781,-297.038358588217,-263.675618788542,-297.250523445851,-275.241433480602,-233.24172445896,-297.499859359648,-243.166034637533,-323.865554672867,-295.21740619548,-280.291151851924,-264.992154322436,-305.069933475844,-258.880683994565,-296.525361400611,-268.912001285348,-266.363799766565,-253.728978190148,-286.44967824851,-252.764118046434
-195.764252499235,-202.107015113369,-197.812105858491,-225.774913173697,-213.691412892741,-192.304076317814,-207.17959378591,-206.612701369731,-183.580714744255,-201.317483558397,-218.552523113273,-164.966513299911,-198.429719366273,-215.838079349665,-196.02334350586,-225.748095506419,-155.237433833186,-241.480858150549,-249.455697499836,-202.039833701283,-274.026335690465,-200.489091990718,-293.524429221074,-370.278103429529,-302.390472167545,-422.938805106975,-220.551623254532,-413.152710292849,-561.312794880005,-360.992785652923,-526.591913773732,-829.421254991012,-518.229637864393,-233.529206342758,-555.452657488883,-674.812130332728,-756.294648801445,-321.675662046976,-444.730390193001,-488.727844875555,-601.912709532138,-324.209798574439,-311.652463929236,-435.867611341076,-318.162495320247,-306.049937679939,-278.276238422361,-309.04945815587,-289.396113097027,-247.927906362869,-310.199342530337,-254.555674717821,-325.250410829611,-297.126916683612,-285.420048406365,-270.660933018795,-303.528905785439,-264.995432655508,-291.900666501747,-268.334339205933,-263.460706924633,-256.508668819885,-272.502298848831,-254.630350291398
-231.01095701132,-238.177230492108,-223.541574093731,-259.148744795903,-249.801054518834,-214.196804312077,-237.941325739982,-242.090170627131,-211.576000235759,-235.641674315907,-255.55064955472,-188.451718439564,-229.549563361536,-259.215869143645,-218.715110632417,-256.213825657904,-169.403270504126,-260.113083684579,-285.769734927207,-212.556732003593,-305.606967540787,-199.583201439878,-299.752277518321,-418.250166165316,-290.475858596729,-429.858054497818,-194.78948760508,-374.702381690092,-611.238539052827,-323.504285358037,-495.181233008038,-894.545357281924,-662.517342448277,-201.832242808102,-462.957065003487,-678.701922041481,-901.604445861219,-493.20230323584,-403.086478237996,-409.174811811348,-643.063932497432,-502.819956823445,-309.69894214739,-564.426277857719,-504.540504628393,-363.65379344694,-345.574184802564,-371.847818844555,-349.545226041899,-319.00213539716,-367.117294857302,-322.372983982561,-367.138004711782,-350.72076881325,-343.616396851694,-326.449679748371,-349.258678100415,-315.396714911177,-335.017064916673,-315.864241833778,-312.469893664689,-311.495562415129,-308.22175685961,-311.307307154292
-325.024252245086,-331.0731661045,-311.470653634647,-348.65328654051,-353.078746440292,-300.521550331956,-337.922539557752,-346.022250717295,-294.636081002726,-332.429396390944,-360.869418464343,-273.566468494919,-324.70811845809,-364.763157155176,-305.222560403817,-346.227966853096,-234.028205756726,-338.004285282312,-391.346795610176,-278.391176552391,-395.047011909979,-257.300864572096,-353.396205963967,-507.851517540224,-315.248954286861,-479.76341663852,-197.964340957759,-370.003669232021,-663.291733689121,-291.578735748638,-516.452594004746,-953.801622138613,-854.553882117488,-199.25122981208,-424.638607274288,-712.389007276957,-1039.62271212389,-702.783472844009,-398.531386907161,-419.57900426609,-738.445091703968,-706.774278298274,-412.255744639909,-712.64761761536,-713.632679530336,-483.377531456393,-478.793378436181,-501.056893986349,-480.129018380715,-457.537477501237,-489.261994642485,-454.949278071535,-473.278588537753,-472.050351719511,-471.220193376708,-454.351887731637,-460.062208730212,-430.536042597202,-444.599385150735,-428.465177866994,-433.597778694201,-435.474445777173,-415.232848033501,-440.281148933248
-423.824622905061,-428.933963266059,-410.889963830964,-442.74496239552,-465.025767044573,-393.577216691198,-444.540362509641,-460.0329110795,-384.538018060708,-430.526148805756,-477.675227393259,-365.128855131823,-428.036722255983,-471.304262593802,-400.455158089022,-442.783906463713,-304.446715129861,-425.258543228192,-501.422754863601,-357.965211082567,-489.172765081945,-332.709444189667,-422.484283085939,-590.429961382727,-355.739018188804,-535.976456352116,-210.199290731076,-379.90970577341,-665.864423981614,-249.283658364656,-531.181628565803,-955.930450962247,-1000.11817081942,-197.047469028887,-382.247113554761,-733.228176844242,-1105.79026773234,-877.756789701972,-366.782028617121,-441.9321927663,-836.71760960563,-864.9815434442,-557.014383634082,-827.884362764056,-877.065425482615,-609.564849330558,-618.09687702529,-635.73590033904,-621.821901759291,-598.107322333275,-618.063911109174,-589.773973486625,-590.138459277819,-597.14657267995,-604.844646804319,-590.753624745478,-578.121421719635,-556.455193581431,-557.681484308202,-544.031935474315,-560.147820781788,-560.299446133489,-529.998858453737,-571.675401701772
-449.478596314878,-454.04071121934,-437.845537030134,-464.372372124488,-493.945356915809,-412.080166069883,-468.260480177093,-490.796040081587,-406.559236048675,-451.286913772155,-509.670345482523,-388.793091670046,-452.694908527249,-489.209413523958,-422.999620186582,-464.204898816213,-325.166276433849,-443.47504864614,-523.954683716504,-384.46333598572,-506.703871443135,-355.354603024131,-440.677334043134,-591.63408151729,-373.762701276764,-528.994234032014,-212.537329698194,-375.200851733895,-589.086895310158,-220.542867450429,-475.60603420575,-835.531453629275,-929.376010849403,-190.653088385568,-307.740857401614,-646.076441774006,-992.010553458095,-881.811472748022,-289.080641443329,-373.328804255342,-805.648558175171,-847.382419296644,-569.189956526481,-810.817220009133,-882.208877231789,-650.053402397853,-659.063974201716,-675.431264539413,-666.584073309247,-638.98687067609,-650.208198089753,-630.561810223686,-623.011749710301,-630.015984733416,-640.413288936049,-630.813996512606,-611.431876319984,-595.75569838638,-580.839390126946,-569.9755681529,-590.555150920532,-588.639594168107,-559.949825824687,-606.158333797856
-385.382994279226,-388.45893426662,-373.076052347052,-396.124998693259,-419.898744311841,-341.804673261051,-395.980271072843,-414.773465723264,-341.5313400646,-381.405937142853,-431.688134982972,-326.454782266361,-378.298842901037,-407.180896071425,-353.113387616184,-386.98134971983,-282.408601187437,-370.48897610885,-438.425219745945,-337.950536630204,-425.606882497701,-300.779359563976,-378.920236041375,-496.281239610053,-338.956216931584,-449.348843554765,-192.147520178413,-339.358368244481,-477.331400779614,-210.390836769375,-357.852497759537,-621.991334125487,-651.944031998621,-186.976324643611,-204.694843544288,-456.91258215543,-698.996091016323,-704.82682732644,-186.851529628074,-202.958397554425,-605.14906255292,-648.777829439658,-389.778957238266,-644.023532303777,-719.52586172244,-572.327702069952,-568.347244571677,-588.217603166183,-578.506203500348,-552.086543438966,-559.540159757477,-547.996571486297,-541.358800688165,-544.309368640079,-547.910942214199,-547.077280698589,-535.029940636905,-517.40192922126,-496.844157066553,-489.510795216177,-502.800788106559,-505.094047052392,-483.350242229594,-525.27444605417
-287.230512598901,-287.333987419682,-271.31914270958,-290.642409096665,-307.303204544756,-239.253986925174,-287.753197896787,-297.566531623272,-242.141384978551,-275.114640038806,-310.419113058298,-228.087874468005,-265.370020595656,-295.388311013385,-245.064953986564,-267.788478353734,-204.365417725127,-256.855679857162,-306.912324117628,-250.872531164285,-301.909236442158,-206.760685613663,-273.002065129074,-362.624154895384,-250.286651655457,-348.632204067422,-147.209657898958,-272.356939327456,-386.968049299622,-180.619366917571,-235.302514045953,-414.411868045775,-360.184114984526,-175.461011121815,-86.6795279296068,-263.927551490993,-365.968086482309,-486.95053246987,-81.1132704495245,-25.9892807579814,-349.562850706968,-412.890919916404,-168.618819704868,-424.265983022966,-511.506024303925,-441.648032823182,-431.646025750894,-448.971079702626,-435.400217345708,-417.457793065422,-422.267369871668,-415.095196065236,-411.343228445987,-411.824169653737,-407.686085614151,-419.157383994556,-412.033284184528,-392.553172461959,-376.492803569161,-371.760454663896,-374.074997265152,-385.234691323965,-362.414923791881,-402.561559303804
-199.067004648085,-198.987535731899,-179.225370546956,-192.821857422851,-209.47947468268,-149.501200000621,-189.315513893646,-199.73424812449,-153.056386933618,-177.799176544976,-203.082596981986,-140.721533561657,-167.308996358738,-199.006614928493,-147.820755135082,-161.578315229582,-120.435145712517,-150.304523150416,-185.719651908464,-150.766757180268,-188.171294780149,-108.778549418175,-161.114755127411,-235.438798680132,-124.142829688309,-246.25749200641,-79.948997868284,-164.800382132065,-306.023934965064,-85.9746554641114,-126.57621861511,-250.712362319413,-168.29033713913,-129.082531814176,49.0547377389598,-115.913814733403,-107.208553178276,-322.149940957029,33.2577702423452,96.417307641082,-144.856555039637,-245.140500092735,-43.9374347113026,-235.989620766761,-344.724402171101,-329.413876466049,-328.216456595855,-335.509290838356,-320.007594055937,-312.027534775909,-305.830870487186,-305.960506807579,-300.058107908657,-302.088494648956,-297.388915641405,-318.645970339218,-302.653765954794,-290.62609415986,-275.383202078719,-268.514198370009,-271.134727959769,-286.400598957647,-255.068697645011,-299.650202808939
-90.4608464636596,-96.3197262682876,-78.2747784185314,-80.9225363863907,-96.786169579084,-50.6750213338149,-77.0238621618177,-95.2360671997821,-49.8879445980147,-64.9818946585508,-80.7889602570674,-41.5405048577616,-59.6637171770454,-79.2822245271783,-38.7191786415408,-42.0121720472284,-15.9635642294595,-29.8065613243603,-48.7663345856997,-22.0407163456617,-55.9268751893876,8.52140490711194,-21.1647949918784,-75.656737199222,39.6872277253517,-89.3197045563244,18.5984281495387,16.6673493444638,-153.110884426831,97.1627376326495,27.5588261930191,-49.2760002503581,12.295580408758,-38.0497566631457,248.689915369417,60.8496617236954,123.600102609935,-146.874984714677,193.970021253123,234.332030723058,61.1357665152695,-93.6129232752019,65.5228752415536,-46.8397832558663,-162.03255985968,-217.22872391583,-212.705368143113,-220.301235322984,-205.516072137841,-202.532920415627,-185.324881709814,-191.711757983931,-182.579801765983,-187.53088245749,-185.344593577657,-208.419584629105,-185.607782295336,-180.657278575359,-162.597647408343,-148.86875088366,-162.383757133125,-172.559678118943,-141.087110642603,-186.761562542234
80.5799352588612,71.3519333369361,73.2747584539434,85.5026859775122,82.5785122089695,97.7842230712287,91.6878331696856,75.1506350299078,107.008355454842,106.652472922785,106.624899360553,112.126079337328,106.830851364832,110.736750426657,127.750053978118,143.28232193152,140.696142792087,147.613122711364,156.917879033052,158.839860383366,153.233507377637,168.310327465758,185.49927865072,175.010998051321,247.356972650973,167.778251637554,146.82724783578,282.583244007591,136.639963784997,353.726116451616,284.637007521836,264.78970281928,299.777351550105,63.1136805362595,557.511675241468,354.684951616922,424.735936244988,140.703975875945,432.480386248981,484.56976693819,368.328460310353,143.562890885513,311.973992067923,219.941670660361,130.262666659412,-45.1064775980447,-4.6687196471664,-31.9625030302933,-15.2769778594284,-12.9899118691302,-5.06081444847375,-2.16385834343326,-4.55424534331713,-8.55582882550043,2.48594218767922,-14.4186237988714,-10.9368876988236,2.30573582631247,8.77270326812291,32.5734278480356,15.7199772955725,15.3753604007426,27.684393371877,-5.5733672962152
279.506998862326,278.398104861067,259.275926875513,283.259449201626,299.930284099734,274.827522169209,291.525939999836,291.193422051929,290.724527387286,308.610369426443,329.180070176994,291.958660587333,308.173796643506,334.008949120235,322.503116534196,364.848369414833,319.920577991535,356.56358567406,400.709464934071,358.955541797949,407.317623371914,331.773809869614,422.018253467578,474.998672085781,448.15779617369,467.203666835137,252.336405756649,552.36709823457,508.503282849602,593.361059004806,595.722004038878,627.12874303375,650.134041995864,126.046570436757,905.607800206911,716.993553818462,756.976257897033,516.608957732659,704.095499346864,801.006609009556,724.805011406364,455.943108941565,638.651420294598,537.840352663425,508.305748848354,173.143994029152,261.590029619801,207.512176989142,232.339092699773,238.573406903682,211.762707581577,240.196296519153,205.105747586236,212.012429535722,244.848053827135,239.659322571857,199.042668391032,232.329396577562,207.215499795007,241.566374547226,239.664014421194,250.768084229013,228.893727560231,220.974968080679
434.932711708147,445.953104762105,413.626328849364,447.284235589213,474.826627414768,416.398851548757,450.97052009748,468.51548136747,435.414000495896,466.116837590777,505.792457947622,427.271980038339,466.56306296802,507.145207768985,462.517503069772,535.539103664442,445.631356867574,515.367071362429,589.716341191457,498.414932946853,594.638585670621,418.859483325899,587.548444825736,700.098989211991,540.274572734308,672.981536756433,264.607716235338,684.010432167913,786.20145340853,672.930229193149,819.123758551324,897.099196784761,929.250563921595,154.592107216512,1101.16054747996,980.065781701874,986.977426081553,851.782632133734,894.641386239354,1005.7354731255,966.361680313805,738.304233243889,833.975580710605,778.703351146352,846.29644707894,356.865480157285,472.759238318936,400.986415896744,436.654939417272,451.403777015065,387.136798326815,437.881546957422,373.485904975455,396.045410315493,443.857302206276,451.516491163899,372.727866386281,420.2215842918,364.643194258874,401.892221607535,421.932462105564,446.687221107908,391.032052369222,408.837717529614
526.30922812569,542.883904213849,502.352011475098,549.106628960082,577.037594690644,497.492135293235,544.653556424746,571.049714200977,518.368073554597,551.226909805994,604.830575353743,496.629280550001,548.602900729608,598.238397707073,519.359460519786,618.95598685084,492.041480541056,580.629558928921,681.677411130949,537.818041301828,662.261001246378,405.768568866699,629.182603793002,786.373245359694,488.875989302374,712.337984632301,180.75152103532,615.727967909572,837.463401156247,540.565274281952,853.990948303757,1012.73514821225,1093.10687506523,187.59580193676,1021.75139893555,1037.14670081364,1079.76367587157,1055.68366160471,932.758768302058,984.983797212958,1023.28066133347,927.114524649279,816.539974688711,868.687605137391,1050.51648573485,465.970773303213,573.368866603994,503.289968198688,544.949209510981,562.966190095962,493.551073162339,544.156185045324,480.851939791406,506.488360678997,551.035067005727,565.026860318267,482.881712012733,526.301131625813,462.44693626053,493.434212819751,524.374908584638,559.904892771541,485.374615853664,516.683345991799
571.775107973792,589.391048224257,541.384412874258,594.570007915338,625.764278446786,535.784623604876,591.892086571254,619.459102377901,556.295445572486,586.15111952413,647.113519408505,525.505361344823,577.992387376546,629.86305462513,531.736452342877,641.605753138907,497.163590695908,580.685154151813,702.776281760875,515.851865862755,655.53015018272,355.699656248263,590.028131346309,779.136851726226,380.534744446644,644.267246518164,79.5329682126534,435.126854400988,722.976202335274,306.362044965884,740.877726122441,1005.61656483808,1171.80705811684,217.133682127746,757.012873967749,938.162157960039,1095.28638202425,1117.12780723534,847.552327420397,805.876815564974,950.972683183486,1027.26680771598,681.817335738869,853.117909536137,1107.90449254351,518.68494414337,584.737310141878,537.797654816648,575.050889817232,585.555141506887,547.98227419001,579.332833024303,537.792279644833,551.248712431969,584.298104731739,596.272877459726,543.354115445643,565.891625757142,514.710380780213,538.771155725487,565.388432081065,601.603202924403,528.119223898195,561.086057756836
568.604870234832,586.098264923429,538.713831481574,577.839129339947,618.862047522438,533.920155761775,587.823691959484,612.259941358354,550.576425243901,576.174522981481,634.233026132275,520.68857177376,569.299124320923,611.238987309215,524.164625461946,618.346187584323,489.722753042719,553.285067729535,671.306907758877,482.678880453258,615.577586077429,333.485537104564,528.463513309601,724.666068194225,310.829103488188,546.238797025504,40.0812696306408,264.909225410263,573.719907196146,106.653814992889,575.59857794031,897.334729634014,1143.62933868735,214.505685770249,480.888372645984,769.488168904774,1028.35990734137,1042.7445712614,697.620380841852,593.397203262322,786.658754980412,1023.73280313488,515.2010638384,784.816970520288,1030.02029088345,515.877621048996,531.873152981667,515.10023841411,540.139187163105,540.444492947069,538.899740554566,549.810496261152,526.382291450406,530.034209028438,553.070757094213,561.017696422781,542.838934352505,541.930986559911,510.952371999117,529.26078691745,543.862833102209,574.334960807295,520.280340856058,548.151435496526
495.882918460861,505.897994579338,473.665630930771,487.494530235564,530.913180441932,473.343844616134,506.980626251606,526.642999913422,486.066385056393,498.125004321287,540.608226512755,461.996799175477,503.139774957911,524.589695828551,475.727696717832,530.55637605046,455.316368941843,490.115447668075,569.943145014161,435.835063643294,524.390576954055,328.530772737629,443.913603839673,602.229585047431,278.707216654518,411.846571747413,67.1859165234622,136.35213142436,393.072969070117,-7.79232954246998,366.727207523663,680.627119306979,960.074403848293,203.772179063969,264.272761488237,542.140299444976,828.209951558148,841.988726746302,509.967276970167,375.875547510794,541.065678532932,869.710106236992,330.309738438446,662.670797443295,830.103390424284,436.227878455247,425.526920552578,420.878047313105,434.871661473277,431.174278133605,443.397519104244,443.385570955631,426.349192408388,434.726739876547,449.087557117456,453.956652655328,453.640114857079,441.42344183919,426.084185813306,436.293263279051,440.212565991404,466.155639025915,440.597715494784,458.941246099533
361.718567245882,354.55416271397,346.560308295846,342.59310758816,373.139821132933,358.645445581652,362.674395744148,380.371294575192,368.09541071497,355.479609175358,377.007287640676,349.185169446636,372.855621863764,377.808323073624,369.702310163223,380.594677979882,373.291368769536,368.470981102458,404.409792059373,348.208153240019,373.837536694526,286.196953775474,317.977093230341,409.095801189086,224.383085270971,236.65683016182,104.84045474315,21.7302443594255,155.176994383264,-40.4959117972406,118.275621988672,399.886343791982,674.213619517385,207.086622727411,95.8351685487309,291.168867251374,559.088325368906,579.276729141344,288.853792496412,151.387744956381,322.56145076161,604.048672365902,185.167073006715,522.716548088168,575.374008852329,305.200006438692,301.233431251309,280.537756401535,290.189069526598,289.499019757237,293.006314154765,293.551866744872,270.108976255329,291.820351944304,300.431696061759,302.814477141623,300.069416338433,288.134947212038,277.978835891498,279.743118630357,279.638236520472,302.935604489675,296.999972438123,308.416396705405
216.245121896804,192.673826599116,205.614756242675,193.927702091148,207.11456831886,234.860534457731,213.430564420022,232.262466420021,235.040670560391,201.153323764074,210.149812697352,222.290196346136,223.04597521385,224.863365374085,238.906924800107,221.968458755022,264.844703089811,218.152067135567,236.528254403105,232.717529147893,221.361402069618,194.274934594185,181.316501580348,227.105664645595,125.701021972595,98.9814873241765,111.381072911668,-71.4461193004606,-26.6724821777291,-24.5843502296968,-42.9524723397779,174.392123792619,432.837435022091,183.429210731872,-17.63800764671,151.311712693225,379.702004697205,373.612315631636,21.6043007739028,3.32586798788483,289.505505494753,388.017922837983,195.301020721346,465.509600558154,384.779947517041,189.953218227291,209.586686446924,161.798435851107,173.454652176518,173.878459446289,157.647890032716,168.116714733981,128.971447716737,158.922040889969,168.847187353779,172.032989496088,155.590210272336,144.763321119493,134.859221831728,128.023450400522,128.624836201803,152.227707601202,147.553810158802,160.178297800003
106.87912720621,74.5818274627636,99.80593766071,81.5780347691025,84.1434779475459,146.635281293198,105.345971811683,123.903001462242,129.553315387663,86.00415385451,91.8766605869433,125.326148359422,109.062194430597,109.964349415292,137.03852150624,110.19124881639,185.159434090197,107.239668379385,121.275526809675,145.266097158216,129.423393850029,110.360690001109,95.716208569282,127.114548730531,43.7554802883163,54.9141865213843,106.843194568603,-96.9511246651809,-48.1909735975727,-0.0185616470862131,-24.8219408617172,96.3509314775567,310.798977140075,109.366125039473,-53.4213677911007,189.228329162122,350.392410644123,277.960856937304,-285.102044524983,8.3266538311802,442.623116523496,326.213591560541,361.466288279424,523.338433961829,300.594186876191,106.313950547736,144.451553910636,81.7983385895298,97.8970415088232,92.0243518559637,59.4870171038097,80.8104633615612,34.5583599310952,59.5542335616171,73.980314046027,79.1192702575258,57.0390934481824,41.3258041479328,39.0121662331597,19.7048837808813,22.3780660101013,46.4326067338689,40.3936158694531,52.9119889152365
36.419272601096,-4.86910467371575,34.7297468717483,3.90107544863891,-1.90254971716442,94.3834973263857,35.0346157992339,48.629707949317,63.390114351256,10.290108824889,8.57681729293055,66.4170453871394,37.3481330966313,24.8554067247249,80.2837133802948,46.4542505732881,162.488584571073,57.9327059539347,50.2516647201637,122.342038953792,89.8042610069732,92.3452979116973,83.1633541305652,77.0611221946114,57.3410967909451,58.2119338976703,136.768436788086,-34.4633529888503,10.0301408060554,41.4192806962855,82.9782361312657,123.467098634654,238.850058896825,43.3192555469166,-2.9542467822982,284.748319154344,370.415667903518,207.017401421791,-520.891944422788,116.903733471011,597.492065772569,323.877024396178,506.873814838197,584.402530821035,227.107406569511,-5.46127962804282,35.3983637582911,-24.9015283909675,-8.40735049934456,-16.2798079800907,-48.8573941982265,-25.2262402673276,-54.7124256580056,-45.4197217934381,-29.2190700745089,-28.4086326443348,-30.5281928097911,-57.7944378381871,-38.471316219924,-72.722899179118,-68.6173007535043,-55.3352581445764,-39.4092771981534,-43.5743854043829
-19.5142473702643,-77.3171873436826,-12.3470284299831,-61.1875551717645,-80.4724308090066,53.6264496226074,-23.5243657306683,-18.0661936429609,20.6160105253495,-51.6421715338979,-69.8479614454326,28.6700363602623,-17.5982080769705,-51.3579442201488,50.3367117368655,-1.70301222731284,171.331895326248,32.312588689357,-9.24736115565037,140.339644287882,56.0405431290612,128.486647652714,103.396388921377,17.0677192866479,151.358397714358,54.4138512320533,205.611401357787,79.9586964947206,29.7961986418514,129.65899454784,166.394108443306,136.337194273704,128.075169256339,53.264313970289,117.517907967919,298.876359904514,324.851910789628,53.1705015980599,-523.324216703765,220.154452564144,596.974850107619,216.379078446027,470.976259835255,512.439826233878,59.2559918616086,-175.426883552947,-148.382064024278,-197.228327215242,-184.780760617694,-183.835892382745,-196.93223246997,-180.072213288557,-178.446136337601,-188.637888279076,-169.698655418614,-175.911356358711,-144.603261765944,-184.349959304423,-133.343855711153,-180.902107299233,-180.969913584462,-188.35456446579,-125.879856718369,-161.931371461431
-69.6590957821646,-143.088577719128,-53.7033918979488,-118.081092971409,-150.086074095761,21.3355172963609,-75.6439628712506,-74.2664045556748,-11.3598592206132,-101.892542648019,-136.627788098621,4.18139693217551,-59.8469030248096,-109.505405617179,36.1887913096828,-42.9009708411822,178.374378546965,7.61608409515511,-60.1345481458602,158.548854643545,20.0769942365954,171.00373767908,118.071924290206,-42.8497548840697,243.386773776784,59.9879359073676,282.175939407887,192.935046458284,29.9636466074408,247.378375879522,221.251104416504,96.3516913473483,-28.0828976477975,145.682252307024,253.889674645238,236.471084416726,206.628560645085,-185.260044055555,-276.418089358879,257.834247171158,451.449433600744,-29.6906960060955,286.432233450734,293.658012042806,-194.314444360645,-331.994501126691,-335.431265875537,-366.40300177507,-356.204732720203,-350.490197643033,-333.55405848355,-326.751623016511,-298.36343021041,-327.528518081593,-304.720263150376,-309.590044551475,-258.201778488065,-306.240948692142,-223.521939240893,-281.498483964722,-292.524137616756,-317.202075221516,-208.229748282109,-272.498135984842
-95.7876716788319,-172.465192849865,-73.8387320336482,-145.000139436274,-183.222426980866,15.0537231654658,-99.5063905325162,-96.3585568406728,-23.6899737279527,-119.739584015831,-165.77975861568,0.640416876624191,-70.8162462824654,-130.999006478648,40.8444343272015,-57.1293354092314,181.972006614275,5.13556126497081,-83.5311729473489,173.278235029521,11.4176465446144,207.565680785899,137.440786585376,-56.5827812701725,304.427071125095,106.886514980006,352.448642445559,282.305804390127,75.8331325965019,348.088708242803,268.359464485942,65.2408725916659,-182.976342759827,277.988888353039,348.421887672031,169.236230264523,78.0037568160264,-418.126065446652,47.6624764876606,239.504203144221,265.492753784003,-300.479516255691,107.663238488463,28.1345299510791,-436.461004597523,-382.418726578685,-427.135538670879,-430.104727740222,-425.37259253962,-427.450740933214,-381.260916290223,-388.096937486299,-337.636412786243,-380.776262525994,-367.015719201423,-365.282063658112,-306.311075505554,-364.887346247993,-256.307672676442,-321.68577400869,-344.739556861927,-380.970737871087,-242.158087996522,-319.881475730133
-78.1924202846446,-148.557773307625,-52.3071341889327,-123.133112747,-164.421509614898,40.3688482890446,-78.6217718904107,-77.8766440041488,-1.36481147340294,-95.5191394071577,-148.795358640538,23.7463070073418,-44.6684514783291,-115.3412679024,64.2873949351476,-36.4366856536127,190.106653508133,36.0526964776195,-70.1507277862294,193.90271283152,39.346195991578,247.167632973969,170.08706356089,-19.5435336199954,350.250256859469,171.415316732362,408.480672912168,342.264472833301,148.755728282953,399.966859270089,285.838038764655,78.1984528983371,-286.944434804512,384.682175159624,380.616192180677,117.906233967807,-13.2482588078949,-547.813818373412,264.954990271773,208.927365643909,120.491312131075,-466.610733502804,25.4750245359002,-181.514627717547,-571.669962959541,-327.670432105854,-402.177049430138,-372.024795742446,-385.104668835681,-396.633581362638,-326.466708686848,-353.37295077144,-278.294482756794,-326.837552908003,-336.107672861099,-336.587453486309,-263.157950547378,-340.685075948976,-213.547317211072,-282.900639167982,-315.704581486259,-358.59533596782,-206.150265882867,-288.409536198784
-28.0827227841729,-91.2498083832298,-0.133815629069032,-70.4973726513592,-110.463107336162,78.2553646431509,-30.5571545230745,-40.2203347450405,42.776666251252,-48.2789303551419,-103.953998621712,61.0599546885836,-1.26434153666649,-78.5125581306314,94.8925329778387,-3.42114127685547,189.727653418253,70.9447715069256,-36.4497637293914,198.504980880662,71.2658549309077,264.19699220858,178.823098266926,28.8373713879661,348.336826803191,197.428194013613,398.473309558213,341.034562375195,194.934362689442,367.832600067395,253.136161409636,96.8305626261787,-320.159967846757,400.015972197332,337.012937343546,67.1355527517738,-66.3996401903154,-545.510201866928,310.626200907116,169.483800550354,29.0825670494146,-499.837264461965,2.17230196565004,-306.299485413997,-571.455733815059,-251.369289759621,-322.597875197371,-272.767836171155,-301.740508711473,-315.483323292827,-231.781069147314,-275.083334954353,-180.881107557569,-231.506519159145,-253.626000179151,-266.518920172219,-171.828911679799,-267.13147005347,-131.912846250668,-203.658752163606,-241.985368171566,-282.114381250666,-128.374658800243,-211.457764766691
19.9429355371975,-36.6748981295376,46.3328687317902,-23.7698101662824,-57.0472090765588,104.039746489026,9.71086016743268,-7.86479656220461,72.7485975970009,-9.87903037909877,-58.5058135426716,88.040430242559,32.3847768570327,-41.8235247873053,112.148921169126,14.9954409506465,162.767852668459,75.7223592217676,-13.420686913111,155.969554830979,69.1616943432334,216.209012070822,128.474969971415,52.5955803798551,240.692030071759,165.843213744326,267.387525731073,239.198352173565,202.208969923336,209.773870014648,176.121433853757,86.6191830393325,-303.895841958539,313.39597335814,189.073357528224,15.1927446217392,-114.23389253448,-468.019745437369,227.336156692631,59.1179035397623,-49.522048853813,-464.593672048006,-43.8739107237974,-379.353503772645,-485.761147741934,-202.365961967902,-246.08591281584,-199.697991352368,-225.163273009051,-235.688947207991,-154.577395492277,-199.284338447642,-99.8136712285774,-154.691393052015,-172.042474801858,-192.554890952341,-90.2412713053975,-189.249085438331,-56.3771421224885,-131.532239187129,-166.035249748877,-198.604859944637,-51.7041769570987,-130.89967568392
49.1757739950265,-1.300297647573,66.9573161160459,5.41673823542674,-22.4328670514313,112.375365005803,28.5962265171837,11.5266943973037,77.0236999776242,8.04188613844825,-26.0803594513074,93.2386212103196,44.9891853508361,-19.275982047039,104.092244176308,15.1302720290626,116.591966943421,48.0052147618309,-14.8427135509492,74.4579449881181,28.4758655847827,107.291680133103,35.6192681947551,38.8817108626036,39.7341822225783,98.5762144328227,62.7651490036333,45.3600889492939,161.175725250458,-42.56843894641,43.6331766761493,44.6548962527461,-273.460969350337,213.585299423189,-53.1381875880343,-51.9644809351466,-184.296919341797,-397.063897452255,111.26209824427,-158.705474864359,-162.407887651308,-431.025723906811,-148.917157903331,-446.777027608811,-397.936390340974,-145.891571647346,-172.027930368953,-134.579675897975,-150.848392684216,-158.874177627669,-87.2610350458318,-128.116633177029,-26.7084370565048,-84.6058976649776,-102.170542783145,-116.986144994918,-29.0779505083544,-120.837042705704,4.64714766986711,-71.1746404786775,-93.7921805739408,-123.247675483339,8.86732599926284,-63.2420512909497
65.7862975797049,20.6782385120649,70.998474703059,23.3943839620296,-0.0890387475374408,109.975145219662,36.1822577532785,21.3417125561766,73.3222774741685,15.1383378135585,-8.36157158388803,83.4601200807413,42.3334623355727,-14.3281669832748,79.0287755505016,5.91541656290484,72.87425111817,8.57881584458136,-32.7806676146348,-6.76594164711499,-28.5287800203365,-3.63766577308521,-61.0080237246905,-12.6850270569948,-163.77380975865,9.35919951155859,-81.3283457292647,-171.58784886681,40.720435321188,-248.012116553259,-173.803052487572,-41.716073658249,-262.445752783311,212.662311881021,-297.802458039909,-183.374497341089,-277.059752709016,-377.865688076526,57.1182861691441,-411.443903495024,-325.920922288985,-435.520734637462,-296.549915887522,-545.396754606436,-363.787676402012,-50.7300472148854,-88.0664161765797,-46.6144819399335,-67.4064550935258,-79.910190501412,-6.19618015815472,-55.7516784197633,56.1201049028567,-3.43016077872492,-33.8842823666882,-39.8075547313373,29.9701109750669,-55.7348553649103,59.8776990926579,-9.23094925332836,-21.6226657075084,-53.1277498388898,56.8207632459563,-7.98777140073241
71.9582754153356,34.7291678414854,71.0355775778689,28.536394142819,12.5996194946116,97.3752516828578,38.26123012009,23.9922316914565,68.1211163073232,14.2134588594732,-5.78622450213537,65.8144023820144,31.3346444379689,-25.5630427679454,52.3974720909189,-9.88129252596414,39.6458850258343,-26.4438527647685,-60.204465883267,-62.1864232269175,-81.6139899643086,-62.4560365139485,-138.141269962004,-89.3833862989914,-283.951968992624,-92.0923913605925,-101.64636596504,-324.409161130271,-130.912333969066,-299.90383662632,-425.427422352068,-170.251947020044,-298.227750066557,295.462354807187,-439.549659808685,-372.855786767501,-370.159148514069,-402.788327824603,87.1822992942006,-566.934888426213,-503.523247481865,-477.275652927154,-437.896764776994,-672.327618254214,-381.22637003693,49.1748925268533,-11.7281422769015,38.6503975934205,5.67195086699496,-16.6522285951911,74.6656563803893,3.10321766293742,129.342141937165,64.4872109615964,24.7387002659155,18.7761952089828,87.1876006432146,3.1918028012416,106.813604384894,46.0194087029542,38.0207721458232,0.449420255722889,92.6047624134277,36.2509955334744
65.0571331988651,38.6101425868194,65.3170352257316,21.0571631392484,10.8939111449883,77.2447173137599,31.3503841608813,20.0696335491483,53.5141590333876,1.92216870064689,-14.2475485330284,43.7592532161088,12.8431336150281,-45.4978588006672,29.1593877299685,-32.5452588058433,11.4633921970922,-55.4851510596727,-94.9321093832839,-96.6263989759248,-124.605211058844,-74.0926804759858,-185.671945968459,-165.02285765335,-310.961329234448,-173.693198506627,-67.361972353568,-372.020727742913,-248.984716336394,-257.963252737518,-572.124060765738,-272.634472186528,-365.8225686182,338.29387504133,-475.951839127169,-498.464501258797,-419.770014706017,-429.279868835027,132.207341832671,-565.883073663423,-607.586340660046,-509.483143622097,-511.915874769429,-753.871063936007,-405.626514550044,113.547692971584,40.6918373955915,91.8563852636639,51.5414339870158,23.655847009512,131.126770090099,40.9551575288565,174.968199569167,103.705363817047,65.0749477183748,49.9447639965923,132.665959639905,49.997288033702,143.587808226533,86.0834092247777,82.3827888978307,32.8372818572538,121.526652996448,75.7875933211817
48.8137395051598,31.3341917948198,49.8712072788043,10.9009704946147,0.166175531774821,58.3241695656612,17.1055843479669,10.9926813755288,29.8769489903325,-14.8530156662737,-26.8965959539411,20.9562409100236,-10.0813054913168,-62.1726005380732,5.31584867168296,-58.5800135021923,-16.0009129722168,-80.2809301009447,-127.761398826257,-122.746388732227,-155.482642967886,-78.6217514025131,-201.382520854286,-216.093691766006,-289.880573910815,-207.735011121231,-52.824947186147,-337.702783410318,-254.87401914812,-228.499242772887,-543.452432874194,-268.530949230684,-399.465802549019,294.265353953725,-480.909773136675,-448.661482146557,-381.257723170583,-425.517385567422,125.676579085235,-470.460492551897,-568.059420194042,-481.227729911437,-490.963702893179,-708.506264118609,-401.362212428089,147.279360202648,77.2594873936201,122.714421204967,81.6106981032534,55.6253285776301,160.034065741179,68.7648465550862,201.510952338933,128.564412162543,94.4448823278555,67.1329508307908,163.589099463182,84.661747333496,174.04948558515,117.994760370571,125.940104809139,57.0806034799203,152.768999020449,117.643163441952
32.4539897777022,22.8872819530765,32.2400251350203,6.44027065179199,-5.71350600240712,43.526728963783,5.86351885439768,2.14663146841033,7.80370962962119,-25.0254037787432,-35.6808783970929,1.14686775600036,-24.9176725296519,-66.6888785781565,-14.8562126615586,-75.4198789101325,-39.6673304905128,-90.8433320445441,-138.334560701942,-132.397379353755,-160.030453247481,-83.8131215852114,-179.872606243533,-225.529171595187,-239.976360891973,-183.657480134342,-44.8193407459656,-249.582389911795,-184.892256386334,-205.258735267526,-390.925700632988,-150.391591304385,-342.346651986943,227.582157388366,-468.853124327475,-251.027391925242,-246.170470710438,-382.400300394386,77.2454655109807,-359.047485784657,-411.001503002729,-384.666023056558,-398.56788927062,-535.055522104133,-361.37104209496,171.268134941386,108.366800921004,146.335402851003,109.739237606126,85.2648518091426,173.232506062225,89.2270342892713,219.26991739249,150.079367820163,118.185322088919,80.2337442014415,178.439109236435,108.302069129983,197.681237047924,144.273684443448,171.259799082757,77.6234546114853,182.106284645812,160.411203265071
33.6265216872869,35.1029068651973,31.9323912824579,19.2630055741887,10.3090351383271,38.3435535974135,16.699506870253,12.1957841978504,7.14412089075188,-13.8542385374652,-20.0566768558534,-2.54354256372321,-12.5393965262211,-45.2665718711829,-11.1232274825523,-58.7900335888183,-45.1913741280583,-65.2388822354548,-103.360819392011,-101.184802434091,-114.297802756298,-58.9098217704745,-104.167845574948,-173.060067843968,-134.630192339524,-91.2150592265079,-6.98862729838924,-104.627010844593,-73.0444141215742,-133.311376443396,-176.40338825049,33.5910297557509,-189.673627586868,179.602674198572,-397.940628075999,-17.4358175705448,-32.4745349109633,-274.618323442115,19.2281878146296,-224.36698322033,-223.744634870269,-218.283806834325,-260.958004408013,-286.395471026686,-261.849912603086,198.638994759816,142.352666040522,174.707689630599,142.426055459804,113.104821164749,194.700481325002,104.306821068717,239.34973560441,177.310501519021,144.487818148942,96.8416236812192,191.408577597369,132.945537672872,222.166229388943,171.38871735411,214.628705325931,100.223760461116,206.154917675505,208.148061323474
74.343198954438,88.1445476612337,71.7790374466182,69.4873862077755,66.5784647146074,62.7980233046047,68.6489397942911,67.1059003489925,48.5604430257547,39.4222402339067,43.9482675373366,28.4031820941885,40.5158559261871,23.7041572110052,34.5630615749398,8.13309704215407,-13.5424051379065,8.99932871500703,-13.7988300280688,-21.3468229580767,-8.74770811931233,12.7603526810727,29.139359045769,-46.6173185485232,39.4794748896896,62.6329602167268,66.0322359193914,94.5597935158281,91.960980259145,-8.26780392124739,68.9843830230853,240.381238124494,26.8440572006681,146.117970360784,-264.617252898782,168.620627723077,242.022612492375,-71.8426425861974,-44.1213722864608,-21.7676939212891,-44.9936348539011,32.2703430996051,-79.9443250513367,7.86855303126552,-63.4204163870094,248.612154143257,202.483164457957,234.839056569774,195.582349445562,162.409095090727,251.876657254696,143.525236188021,285.4967384191,233.078759921618,197.822207308329,138.346466760929,239.34895340351,186.320922212363,269.81759587473,226.500403855701,272.324209082731,156.202488209245,245.110652522134,277.602782643049
152.650982842486,179.320796965697,147.903034654385,156.2814436181,161.519945645957,122.948174143955,155.128335130467,162.074291119493,123.462190367945,131.180679615543,149.438500097484,88.8476438981385,122.570804900096,133.482964518034,109.179971018816,107.329517594473,48.5409736339179,110.64096230759,109.186988449759,78.5863491453649,127.883485156339,107.604045323596,180.761396211237,125.595578500553,239.298412422325,233.709439182262,172.112134039384,309.004434936927,293.415886765309,152.556621807253,299.45060291063,432.760601564812,253.984157854832,142.105859972167,-94.3275599549813,275.036004985506,520.000290249665,197.106630110021,-119.531851267241,220.368951331776,137.131927271331,326.145618541497,114.222398471561,327.630009445947,210.113334303985,332.796607529655,302.657167819241,335.133506373465,278.826846347224,254.008285044899,342.390913774231,229.093697277959,363.167092667765,325.792730682646,288.274456496273,220.900687933231,333.026700080799,280.422076300973,345.261601826193,322.226562981198,358.661649717468,262.248478324206,315.114624628724,370.315421968194
230.261678713588,272.214927389395,216.024300586265,240.027629711321,257.45415689695,184.510931997653,238.399033052775,250.492105840337,191.492937800178,217.541505624715,251.246918193633,145.830254225142,196.473845327823,233.328125165441,173.268795972573,195.712934675955,105.308034957517,197.310456418627,223.993935181505,160.178582879936,243.814720617187,188.267296476476,299.695123317123,284.020923902777,408.313139251414,371.63728327106,298.37227845732,493.002777096747,466.889832297241,327.56787004426,471.537777648306,567.95916188955,424.64961308547,168.08395893021,93.8289125222165,317.926769588666,684.604538625047,452.609437200172,-207.531781339426,400.371135197178,309.799631974825,565.681251142428,247.05497939826,612.040132940588,470.898136279623,420.838238527199,409.365537247639,432.355114678608,368.658487413932,357.806201918202,426.277733762105,327.074601008232,435.805598481115,417.787422958418,382.324374928419,324.196346458657,424.243621741824,382.30938319038,415.596324129483,418.563382456805,449.684562622388,376.125917864917,388.83024041624,452.057519963655
271.509615529772,323.465689079981,242.193215049702,285.942774825437,315.407127840486,212.881974718204,284.811664814574,297.551402920295,224.929100813822,261.765137591279,312.228443517457,174.909978567502,236.124060516543,286.531360406963,205.647224978503,249.198458286759,134.747142821378,251.981311562732,306.160011219409,218.958296520036,320.245267384991,246.699632341809,387.428347034374,402.088171173226,552.000577251115,471.157286763506,416.450030766012,648.016535868597,590.666241451655,484.839289445099,599.933408266056,652.601438429691,514.236378372928,180.817580506441,277.352583683952,392.763252531557,696.707499385635,651.637201811377,-265.406196099189,466.828406074918,480.151402426981,717.082833754255,309.326568109137,816.933808140961,672.869083471038,469.510885286893,475.15296325331,481.836179293007,434.769633633615,424.159826364719,469.729425644168,391.450667995299,467.861705237059,463.141601552934,440.116415247425,407.667911075905,464.200885058471,445.673499647681,448.494259499819,464.942267138669,505.563914396144,443.817205793471,424.320072020505,488.363550561186
283.940134250473,332.338491633598,246.932270210393,305.546316082297,341.264415130763,220.170448338888,299.654246318697,318.994143855579,236.324850841679,279.565450702089,344.950681034521,184.842344321953,254.055062563155,314.378227173619,222.727918210849,282.163158022407,147.090009062358,294.987686491187,362.916868026842,275.924741995002,383.788052451408,302.214243046677,477.855575700565,505.459090411496,704.8865946823,564.595245679301,506.353207887798,802.561155411236,711.685846114517,616.940940815767,725.581962796857,767.192536781666,586.188652200119,161.314895254886,441.258647490813,611.28599607455,698.414370488064,815.575009675362,-201.086697382333,485.034216643158,717.256710971056,848.184336430194,406.810718068194,977.780648010681,842.046831729945,483.103242684574,503.838517181003,498.600189645952,480.399949762914,456.66601898475,480.568899540625,432.177501967865,471.17598611007,470.929824469607,468.699977918365,460.82625368715,466.185246161843,471.985087406484,454.502028842575,470.438999203049,524.634048559859,469.144296403005,427.715954226484,493.87071775851
304.787427155374,347.187214695417,273.131454506591,336.093957569517,376.791079884578,241.203871113968,319.536184346623,353.863760631691,257.526900107486,315.552205329986,390.734818009398,204.740907143499,283.440297996688,361.474138350771,253.078729191863,326.854718685101,165.153753778869,349.485824526175,416.583366510351,338.838557106763,462.99903216257,356.649311019662,571.006665486592,628.611977544205,840.186343413255,680.209491993431,547.056442119323,948.439704493216,874.037408319219,743.572780967958,857.249677684684,975.970157246507,720.192546889437,116.063189198466,615.261924663715,959.845791250549,829.229776817917,969.037298850503,24.9439602137172,569.174998830254,1031.65873930674,1011.07840197869,629.275346574815,1136.87939676109,999.070498797269,502.594890599788,542.357102761781,531.724221701323,532.803372653512,505.294754110647,495.55776770631,492.137321605534,484.569075142803,490.741747706418,509.865824828502,513.786929251295,477.815242179491,506.825135132854,471.136493477846,486.556096464171,547.328051632321,500.244667890504,443.090798354243,509.363101611436
360.405233668504,412.509562449315,335.635103982375,401.344973001336,453.159779542805,290.152974775994,375.228302421025,426.391354732639,308.377527617336,392.528939491739,473.903282481803,256.120780405375,346.450556950856,449.894572022735,312.759384736063,403.937447870855,206.429948382424,421.669764946889,494.163081282316,401.684799368984,571.1881504722,395.280372383218,651.872163047055,792.36679302548,905.10360232575,839.594675872579,531.370378288637,1065.78235988568,1097.45451565597,880.896354225238,1024.13392225171,1251.63992004856,916.312135071514,7.00475335693445,887.675013046152,1324.3915571247,1033.28963880769,1111.13793455071,351.589297687603,811.461418710961,1332.89326917652,1182.79922816537,959.426453869279,1282.22840736923,1136.17650972015,547.971803971814,608.462030612157,596.506993092294,606.307177310005,592.069566639494,540.862003645328,581.614016740708,524.877625641513,545.412963936989,583.274141347721,594.955317609022,521.456017028583,570.768195291188,516.442293634608,536.009408096377,597.721200983038,559.167945318205,488.762282764046,532.238542548621
444.583128009786,518.895037563964,417.183467738889,495.419805997769,560.600755477108,359.015224956987,462.405944864387,531.27049830528,384.128597396912,497.079990369748,585.942892872582,333.941176744774,439.758142226393,570.749369941397,394.568189991509,503.938058601199,270.965577740002,505.345924235536,608.36367321896,465.23902605349,705.504207271299,433.912317439637,733.132441416503,983.92476657471,916.501437985801,1035.79767279537,520.72502499882,1165.14132200402,1362.35609578224,1019.12902464446,1276.77450874343,1496.86421587496,1104.04432472982,-178.802926903631,1297.13359479581,1620.30455288891,1179.23636843858,1235.56683357811,697.361791612167,1207.21895188367,1546.56941340138,1327.9494695334,1321.20372958649,1385.7945602888,1249.4117534919,595.434114063434,656.927832124491,660.430266153008,677.348675516148,679.978651091733,598.899845499274,668.291638468751,571.560830054847,609.652638901701,659.374071853016,694.075149309406,577.984305685616,633.822471827683,571.222317463651,594.17270000493,643.478743086774,619.770343813865,543.829637714995,517.297605562701
521.346430825099,611.782543771543,490.548606772794,584.362043873077,655.48664227276,423.435838859827,543.71650542368,629.616772370064,457.722628235319,591.66864353892,691.645496894287,407.065902406606,531.492668992652,686.306761640175,465.574889022502,594.069066252516,333.613118378372,578.529736316423,727.29626221505,530.441635353503,824.219224376857,501.45314767866,815.388171154215,1124.90326883119,929.558374805905,1181.89106788059,583.987956435763,1225.01542144415,1551.21390800772,1102.98805580419,1522.65898531048,1582.49653669879,1185.62363991376,-304.030046558377,1661.11628234502,1762.10799340341,1205.55236346891,1306.23755181817,980.292252945338,1559.80896419638,1625.47781932211,1404.04925840372,1604.43173745795,1406.21026252913,1307.8478133867,605.718835923575,642.707012052878,686.091178755031,702.214037763566,726.598462290982,623.150380661137,718.946434702696,590.552636048762,644.709208827899,693.165896757274,771.867912213648,610.978475050141,662.454271897875,601.743538613719,619.048231508718,636.880944420113,659.44253950846,576.70235576278,454.920175552767
544.120157444079,636.866348678278,522.484624147969,617.504273817525,685.82740743651,439.44400580866,571.229301442152,662.277091247443,485.446288627567,624.014915006883,734.319259409867,432.700582295588,567.798806096281,733.022682543321,478.962604907339,630.724127822209,348.948958081719,595.905928223104,774.793930777375,559.82327880291,848.989624456166,556.761128020652,833.284536391662,1106.39231620763,913.83127855456,1159.2483400048,662.571672793325,1152.84229872436,1503.22547806438,1054.28267893918,1530.68369546954,1400.26378950017,1073.91715640232,-206.006155017628,1668.80401646966,1613.42359066482,1068.48826578624,1235.96456316825,1081.93722497516,1593.57511266553,1482.67346383529,1317.82403677029,1674.83401599943,1269.87246436845,1224.1053830529,566.077292942355,599.380051621239,664.36370774402,672.87306253515,734.135923087197,594.495798910748,723.032151586693,565.095168223312,632.032309644513,674.534428722093,791.330249060608,596.527758664463,649.768633083004,584.474755604615,581.61582952378,567.764699104359,678.90240611351,556.44620127093,396.628528743065
479.156291109241,564.925004185314,473.957720379872,551.1448126842,610.668290968604,369.361665288855,505.237618391819,582.034327336225,424.972788051485,549.071005283038,657.087733601132,377.251791383302,502.697290368115,653.674685449274,403.309602636588,564.574440412709,277.459353329986,511.698822835997,679.470614213965,482.835652789667,722.72355534386,500.490581658229,709.507362622467,883.331604612134,761.029471035245,946.759603662476,617.683670261406,896.83849274821,1175.30813667442,837.284626571937,1206.84989571791,956.501631690468,769.897629873863,52.0636341084463,1238.96116452249,1141.50671642516,744.999949389016,962.707305989429,935.703870997043,1243.38561635382,1072.06277569324,1004.79453399972,1468.78314337883,940.570401946567,936.110971834368,500.085560349124,584.393189609361,609.588211609051,618.694667209986,707.309679772341,534.403989455248,672.302823040829,501.894668437035,572.122792324855,618.622770478495,728.136909371028,528.486166760083,594.486709363467,507.511983629762,479.91229661736,446.514713595018,660.604940351971,461.598964638515,379.667931050987
318.188427556068,389.648873277295,326.459591355367,375.364017078204,415.56146218241,213.366177494567,332.489438680029,379.754642304761,267.443160019499,361.050611356709,445.640849961904,234.444895019562,330.62836324005,440.635754050694,246.033382188582,372.619542757219,121.28024028903,322.383388927813,434.681213496103,283.43015695169,457.246313731179,308.090884598952,454.756139428343,506.239528055601,453.752068182023,621.701678592744,409.786811927756,531.061108477065,666.476694968802,486.179312853872,692.308803787329,364.808184490581,358.169276675621,220.927446921456,613.024824817283,505.864002562108,298.660076147031,514.638849200159,601.205546648701,694.485777626414,480.182059249771,524.555462438771,1044.81188724457,471.410718698497,479.440773459106,431.583735287697,548.715800441832,528.943961497602,532.135420746267,598.653019951205,453.975146698883,543.704859827158,407.247292801396,462.387266453268,510.96705923604,568.647884944601,404.579126198058,476.818835655294,367.114862136331,326.693395471189,277.29879565581,559.652043245659,297.283835710009,365.187065814792
84.1631913188128,131.165173817167,103.087157471669,120.04573852723,130.368778619568,2.39017808049462,81.3440985263843,92.1360907945581,45.7100743197777,99.6492688505417,145.118508215752,29.6783120498017,86.5341091913066,142.615238619556,41.5007408158007,95.2763350818861,-76.1263553403473,72.6125820437608,106.370339603033,31.8001396478859,119.615440197669,68.7431211913491,149.589788827999,66.1382709758046,105.99737886501,240.779162564527,112.334776891656,154.049107566464,96.1877434291688,71.1958208376789,160.713807767881,-274.259017721224,-105.400124745671,149.939315388124,44.6660636638739,-118.990875608781,-195.904810315814,-19.665045420196,151.331866094319,146.034243508308,-137.002209429314,-8.04542608539054,516.401928264267,-47.2486961038343,-52.5486445890326,349.063649751349,389.57412919688,405.515759852125,366.593951403322,371.403922464736,334.982677785696,329.872363019161,274.773739773975,299.975184464018,320.976682799637,325.173501779126,229.889809904714,278.258483061772,175.037060397406,139.889130234592,80.3565595809246,354.882960011188,96.1275792661761,280.867251718751
-158.978563717145,-143.825824101791,-130.495975012885,-146.098357528589,-159.701268685013,-210.58301220334,-175.576849237636,-197.962238188637,-176.468280597487,-158.630943768302,-155.751672224403,-179.197714556782,-160.857039072499,-150.076642069988,-160.663243722583,-170.747882867345,-255.064596389898,-162.965241202696,-197.453734253273,-186.358544451116,-188.847729271936,-123.701578860334,-128.617515164134,-326.069406825483,-181.165998448294,-145.991095755591,-197.224792344318,-191.975326377419,-418.930361852177,-333.634724428494,-283.205408204837,-861.144654666497,-577.221086685935,-89.9856338105695,-372.824116012738,-635.112422065579,-689.867271121359,-516.199797795094,-367.154508545667,-276.237493568654,-613.405503179051,-496.683675627211,24.5933361729,-506.592747193179,-542.361479834211,233.700285110142,136.251315848062,239.140840873504,139.796654570241,94.2513887412529,181.466730451858,82.061236156268,118.104049643344,114.892149201275,82.4703647297554,58.9558245559705,44.4326585509287,37.2795346859811,-22.5987258256186,-37.1066813609289,-96.3744611316758,98.6846296538076,-88.3739288661127,113.874323745766
-333.607274443445,-346.893216821615,-295.45385077712,-337.411225399132,-360.208915172768,-360.249610580903,-354.973093391282,-396.810252772319,-328.438008294372,-333.175945742136,-367.066364277553,-321.422055249418,-332.273667991168,-348.313344357585,-298.50946388151,-334.660579820204,-362.877236916585,-306.37442057784,-378.703316946211,-318.349285210547,-368.60634401433,-238.743000561739,-315.408472327117,-551.777829690556,-381.055944268283,-423.498770500592,-442.820727510558,-464.378550365408,-735.205337324901,-651.330356645299,-552.182944826034,-1224.26501424485,-933.764847658439,-323.240958064058,-594.104144287939,-934.632786551274,-1060.97245889876,-857.571522110177,-790.594416172325,-467.288750770881,-825.843414563951,-854.017057889992,-287.76775800023,-790.649029323266,-878.71302541641,95.4610218434561,-85.4201041710774,68.0612464617032,-65.6097588793981,-125.345097482995,32.4189731381299,-124.99799537175,-22.6530788616391,-43.720358111758,-121.304430722778,-154.791077800233,-96.2836212866561,-164.244874469239,-161.711016747498,-154.152137600098,-219.770443043035,-122.477005573769,-206.993589598459,-73.7260648226505
-422.069267725141,-453.531475460325,-371.29167260255,-426.837324709361,-458.508757607308,-422.082816687492,-435.004897472114,-480.644107057505,-391.626972393803,-409.82668902913,-467.784829142419,-372.781169994339,-405.708351423364,-438.525545207713,-347.174753441789,-390.654625497277,-393.966477784284,-339.839722860953,-430.877827455727,-358.590620367033,-408.889160556531,-291.497758729755,-385.446027013608,-589.053580782891,-495.612119284458,-524.804159774332,-544.328810786838,-624.012663647579,-809.86940430311,-816.286244882358,-648.597921571278,-1260.77458569303,-1080.084623813,-410.318239376793,-625.929220341979,-987.634806386411,-1174.80447794594,-1033.63283057795,-887.356968149896,-452.120675908952,-831.173652912079,-1056.06942064586,-426.170733094094,-897.379361025767,-1049.14122559929,-56.44115771025,-248.858080748544,-91.8795272438124,-226.92587314193,-280.21707514812,-104.44474475862,-282.601031527014,-139.962424235731,-172.935985330418,-274.403636435696,-308.389917948624,-195.872796703093,-304.267371808027,-236.701779252481,-226.520214017336,-315.640691209848,-286.306863253655,-270.583963468571,-232.646987517824
-465.097574455971,-504.817468460818,-400.704257440576,-460.035187594047,-507.11052357362,-430.846218961719,-458.067177112349,-503.789772388464,-406.76177343793,-436.980194003109,-502.15731116068,-371.523593330498,-422.900432252515,-470.095323511585,-344.810232958197,-399.97807456858,-386.51161299569,-319.783093296569,-428.653528846629,-345.079286347499,-390.517656817959,-310.291585539265,-381.07107358321,-538.509375811009,-533.463227447137,-525.535888992274,-500.641089355679,-674.834286794187,-776.505460298333,-807.106917519023,-697.327384320261,-1076.86899871442,-1080.83138794039,-321.164814013896,-575.062544660085,-949.455359063771,-1062.87391482181,-1118.61960190403,-636.179423105656,-410.299384056094,-824.945931961259,-1164.72523440965,-550.915657094665,-946.181689881279,-1125.74945395648,-213.426289834475,-400.138989923127,-250.38643773829,-374.631430918234,-417.511498794721,-245.999940939704,-424.286409525492,-255.343770616242,-300.960638499411,-419.474621471617,-436.795227679701,-297.781510180371,-422.725316040801,-298.785517285829,-309.788098333495,-423.872828926585,-416.052646961955,-330.307501233057,-360.890828798488
-479.569673274754,-519.768264379743,-408.604438643126,-468.837064771816,-522.009775439446,-421.602758452165,-453.478424273472,-508.729803417447,-404.629384253832,-439.787121515793,-501.054134779976,-355.850253002696,-415.411653165757,-468.900102263875,-330.869150167007,-395.417378854802,-360.464310877503,-298.831809911086,-416.350975298323,-312.998628921659,-375.721766800748,-303.83889094871,-357.455541351655,-487.110862040807,-499.42304087759,-520.746227635346,-392.684633972682,-620.305228561291,-759.04015346542,-652.027940191725,-758.407281945024,-861.10944323105,-1031.77333118584,-127.516530595255,-505.009441796616,-964.214804861736,-881.609417335877,-1125.07308308343,-257.921882073466,-436.055258719189,-902.458075292214,-1214.65906267191,-744.589881699134,-999.232262262087,-1127.29498286689,-324.753081883985,-504.264429150176,-368.004501263587,-478.952255530431,-510.485552902077,-354.750573383937,-522.053215303404,-344.911749422818,-404.587631820953,-529.68013045589,-519.296335441867,-386.898176086402,-509.867845860773,-354.051193054903,-389.497680198605,-512.545958612994,-489.669174534197,-383.067288156229,-442.495100929432
-451.521329602069,-491.197638379111,-385.488040164289,-445.528003695792,-487.781530575345,-397.704896436865,-421.303333411648,-489.336744342161,-382.052333993422,-409.105694053047,-468.082457259654,-328.737007255307,-384.92437409103,-433.853673617616,-306.486627472591,-367.02692509206,-308.806254375749,-283.410433394098,-387.896246607844,-269.445320264838,-365.076048505275,-263.645809563743,-333.134073952244,-442.961332990911,-403.811161955211,-524.358040851664,-285.58446742895,-485.079179142397,-746.120129876119,-428.344600599516,-779.199636598126,-719.501319536315,-920.430175967637,77.2180601135271,-408.231032610745,-1007.51203873362,-748.899435363636,-1000.42002619801,52.9483866089822,-489.696805256308,-1017.79943260558,-1177.59597265666,-944.892577081006,-1028.02691779981,-1005.69511727753,-349.327016998473,-503.262763652251,-391.22851689976,-488.553465035007,-509.989271092096,-378.546157272078,-522.067271783869,-364.392704198167,-431.421297433697,-535.092726168515,-512.987889976218,-411.547774827399,-515.22872789663,-363.565305894908,-404.022191827663,-517.106085623894,-479.115960960086,-386.317881905477,-451.704272024843
-392.147968674915,-435.759277874732,-336.544635400775,-392.669789761052,-421.001532288112,-355.214028201151,-370.747919324125,-437.49503015215,-336.34052400751,-352.243954201111,-413.021678279919,-284.718424552011,-336.140544484704,-379.341478194812,-266.114654907156,-316.901987322161,-242.326841621378,-263.538271554104,-348.327348072402,-223.702417945124,-346.967668932613,-207.936803147807,-314.483778505046,-401.878489589505,-307.200373549144,-521.632271640336,-210.51940105273,-377.95572091078,-709.646902608352,-261.20799330005,-768.660979120507,-675.593294106736,-742.311234287853,215.250104348237,-350.695333030408,-1015.34643832782,-720.732283249841,-760.215957586492,238.671466700653,-573.391038124031,-1123.00261668578,-1057.73572788671,-1099.83718978488,-1030.55360955189,-766.773136939795,-334.675554649797,-447.139065957829,-356.440410618953,-439.840483054897,-452.608166218735,-348.266848731522,-455.21962857413,-337.271064353574,-394.739063842081,-463.224311702566,-450.099286403335,-382.560379963104,-455.916965340735,-335.625592586743,-362.122504468739,-451.03374405139,-425.535827145721,-352.424248854394,-410.431271235638
-342.504381301689,-388.783801844488,-295.068962870039,-341.471530710957,-364.040974801621,-308.932982341228,-325.95353583359,-378.162800765796,-291.129348956297,-301.846676789699,-360.323293436493,-239.16079465694,-290.427881291797,-332.956672009188,-232.913819643422,-277.681758617384,-202.071016571906,-249.512867295448,-323.57267579732,-216.00453304793,-338.256289820586,-198.824554050232,-334.978634782831,-391.720979835431,-319.601505413652,-534.290593515907,-218.932398702669,-421.290534954095,-683.344895331079,-264.14700352327,-808.200954852762,-722.20967544357,-618.418535045102,206.680842961867,-430.943104312429,-996.165215875293,-823.760478092483,-522.108844824039,254.888471696238,-715.189871689806,-1214.45159540921,-917.941326380652,-1220.70359277845,-1042.00454161199,-518.14135497211,-367.542088536889,-432.681613725573,-361.353151604479,-420.546040264563,-420.457249951926,-346.692004277235,-414.754666416205,-337.219385126873,-369.542766528342,-421.336003582113,-413.210478606456,-369.89137411003,-415.688971054086,-328.660234055964,-336.91546353986,-395.615437373688,-395.551828610768,-340.969934007704,-371.689333272054
-341.823548927939,-381.362905809011,-296.393963467006,-332.122305477112,-352.782935250085,-296.399840467274,-316.530575301408,-358.196022285229,-288.153397529262,-294.182205126188,-345.142272561249,-229.020241616132,-281.855526440957,-323.540354152041,-248.87601948964,-288.419735151245,-232.269310549621,-278.752107794126,-336.724778856915,-293.1315030935,-379.817804313454,-286.671607044101,-440.9574581595,-446.149172660192,-503.233787709353,-618.997392775772,-349.841084350782,-642.861922420487,-704.43565106982,-452.455778706372,-920.204096068918,-824.628639892771,-649.553962044801,19.8776760158369,-643.529815924941,-988.501137747036,-1013.25335149403,-398.008134993163,57.4035430157983,-870.301572270296,-1300.5403387659,-804.981880581076,-1315.78606631821,-1087.93417666012,-378.653186848085,-469.712084527588,-483.605743803737,-444.563353018189,-465.178205289113,-448.760728559383,-411.351633533042,-448.91896625523,-400.217966526422,-405.549785014003,-459.261055732927,-444.222399364444,-416.388544078684,-446.885014233406,-378.887808334884,-368.469903366091,-402.518986407447,-417.233563135466,-382.278450251194,-372.266558224577
-407.096786912274,-433.743266832211,-354.231170960912,-386.141690413879,-403.979679283309,-349.787079925217,-368.252766627879,-410.382977421388,-351.833270123096,-348.123863854578,-393.727616688132,-284.237243178886,-336.178840366892,-372.338643729899,-329.138293168865,-363.715123312181,-338.922327567591,-376.10133946105,-399.319611704906,-444.899600902336,-490.034630634038,-442.117550161954,-628.326532571995,-560.214260502856,-781.49206634079,-796.020293900385,-547.277651863392,-951.529593330192,-783.02647303797,-723.934357852692,-1057.73228097847,-925.768484166886,-747.661135906711,-261.364640481434,-908.645857001193,-1005.82099632411,-1172.39437932473,-393.47210041139,-279.20116629257,-984.237892452126,-1369.78370959011,-716.914193921936,-1367.0697785265,-1179.19734156028,-370.247486434907,-595.120996839001,-566.000830565014,-564.21087157107,-548.073997388943,-523.238879085013,-521.510934882264,-533.486857264724,-508.500590131374,-496.467699519453,-544.577419602165,-527.449524069711,-507.324220903064,-533.49290895762,-476.842067319348,-445.083657665299,-468.426495161469,-487.860327973324,-467.266143848601,-428.02359330278
-516.797028566664,-538.407179941309,-452.887914738047,-484.242651256572,-504.992151799474,-454.953828622011,-472.449817121825,-519.270466862356,-460.493888833454,-446.976639149478,-493.023866049258,-389.578754502776,-438.31518135201,-468.858037422578,-439.607613300963,-477.17068783279,-468.038846811294,-507.934935735673,-501.397109234311,-594.455858462406,-627.256271737183,-578.147253227335,-817.273783936598,-685.066316596547,-1000.63892346702,-981.191131694205,-698.224361088422,-1188.0275245584,-902.987699204966,-930.550936913502,-1156.61539112097,-988.601609395673,-747.700561342566,-496.767628457452,-1132.20975217888,-1033.17949283514,-1200.67324409292,-430.594795747898,-587.838504644243,-1050.69987770475,-1384.56695202371,-645.469775782768,-1352.13737597848,-1279.76168852809,-422.609738918588,-705.993473408577,-657.603945764613,-677.146058541085,-643.342928898571,-622.039281964306,-646.009399783782,-632.262748470051,-634.251977664262,-613.095855376361,-641.104247537923,-632.263646644725,-616.670266909878,-637.826825709866,-595.6098678593,-547.770462777779,-571.268370786229,-593.930360692738,-579.595350616471,-534.743991122466
-617.969712925925,-646.851818793518,-551.645481048187,-575.763501513138,-610.354024360201,-552.446771359202,-574.919988849635,-621.929764510086,-557.690975970987,-542.884389096169,-592.973900343753,-487.03068511245,-535.593271377846,-567.664125324488,-526.326350141986,-574.229686687054,-549.288258619972,-604.443129890907,-601.523524499876,-673.90729936496,-722.281159747392,-639.885143292485,-913.618008283698,-773.264917954036,-1075.76649399026,-1056.77266461365,-744.340869162913,-1241.07687102555,-1014.54599159653,-978.992259032258,-1164.11542997596,-1023.04052099727,-628.715102803721,-607.759415982914,-1206.02759809873,-1045.17985171169,-1081.6979318461,-443.599657503439,-759.512713513675,-1051.39588950106,-1315.50989468017,-597.865812956455,-1260.96653407844,-1295.38885422655,-458.808069366969,-791.091686526277,-742.055008744548,-768.952474528701,-732.5987682932,-714.771451413168,-752.872015970699,-722.6086684003,-745.762500884303,-716.919318399253,-727.575525883162,-727.145476951286,-721.435721050745,-727.036619313705,-700.931392128872,-650.667943943743,-674.51605508644,-703.96362796826,-688.402094199443,-655.070605387102
-667.117377024205,-701.991732347302,-606.854301161139,-619.780965978926,-665.481293604196,-590.163992554206,-622.878986156177,-661.761960710742,-600.647575488688,-592.413505337158,-646.349280967239,-529.615677418925,-584.259424838539,-624.352342042567,-558.001199919469,-614.792262990901,-561.403971301104,-628.035898997801,-652.297153645834,-675.053840151249,-741.386218454589,-635.915479308897,-882.917125488527,-809.451567759671,-1015.17751231112,-1005.64414590069,-695.556874647157,-1116.91430362473,-1060.40162418212,-868.783968713538,-1071.30280765542,-1046.27292070601,-505.201719108962,-604.310775896752,-1077.91112581688,-1004.4395404556,-887.300342725086,-420.66945253879,-778.52587637463,-942.537582114182,-1161.84209303535,-565.309059210118,-1099.40892838828,-1164.36702065462,-448.454732810632,-825.665455442262,-774.497467456601,-818.456609776871,-773.997466862731,-752.785122163677,-803.639228486189,-765.498660709338,-800.53180220535,-765.139689495107,-767.060866367096,-770.586046739253,-777.899258009465,-766.223328236588,-750.411928198616,-706.954855732821,-730.353977723197,-774.742620938921,-744.302101594807,-738.820513144112
-643.682763798972,-675.074723366144,-590.976888767556,-597.147230295303,-636.668223123344,-553.618756089427,-597.00293108545,-626.10568833806,-578.189439827327,-572.050378030828,-624.91125545481,-505.686968078845,-565.542538272054,-609.003145178217,-524.2435134079,-586.618947538127,-514.577293475588,-577.385611100345,-624.906583397766,-603.210695566343,-679.339765272773,-564.861399729025,-739.323546807811,-772.552436027485,-823.622067152244,-871.555011996021,-555.064773687659,-857.467405463357,-990.403833851744,-637.621257232242,-882.27997650877,-1007.93300018949,-424.218668464719,-519.778446577971,-799.831608417482,-856.749996397378,-686.953162667181,-366.005021414321,-657.751116293622,-712.521898277355,-922.396511578677,-496.118119203325,-867.435831992774,-900.175316048167,-391.118803625479,-776.508250464053,-704.622633571792,-795.818822128065,-717.045402201735,-693.052437094481,-786.531861940666,-711.830192472678,-772.933751382908,-739.890482168992,-720.240133448567,-724.076340855354,-746.046108671468,-726.001702454792,-715.757750868304,-678.979214271329,-710.025115177334,-766.842899605898,-714.039939355391,-751.08379194219
-542.313428384703,-567.075418941354,-496.44230021699,-497.366647908681,-523.80780336458,-447.874723760612,-497.331152867657,-523.001478826822,-486.174896335792,-470.877585791396,-515.298648725411,-414.475355944335,-468.375539554775,-503.283273114262,-414.926872323588,-481.05678604414,-399.993953913375,-446.068497324572,-502.569950635227,-439.863936174406,-521.512690980795,-382.866715501637,-496.815655073043,-615.489381161728,-482.404557728824,-636.831671449626,-306.494535510717,-465.308380542537,-757.423975125931,-309.080062657714,-559.769211710482,-813.133530066313,-299.615361938281,-364.830150168954,-432.632044757977,-576.127971796778,-453.049748727514,-258.822011049525,-427.483846117647,-380.371940036469,-588.002576700829,-332.951593101227,-552.646095171885,-531.426942558442,-276.015132089647,-651.152889704146,-537.123325319458,-704.552901440263,-560.712829808858,-536.559267778201,-729.795950874706,-559.389246840758,-678.768548113731,-661.432797798562,-589.968328907281,-586.391044497246,-639.351433098593,-604.876675903995,-611.459874700857,-577.155922667111,-616.372993029972,-655.596989311118,-608.325568276977,-666.922641875269
-388.451875085656,-410.386628948297,-345.914370615266,-340.280045518882,-362.435414539477,-293.273221057403,-343.854957222759,-370.393867756542,-334.617502051044,-310.234658226916,-345.12122534825,-266.683112508758,-306.218437806837,-331.044729434736,-246.09876493139,-307.66751395975,-222.737256269142,-246.981438339612,-301.957818808182,-199.965273980207,-279.840747392922,-108.451030830555,-190.328704631783,-341.198010832919,-47.9918220690618,-291.685627944355,0.931791505954246,12.0234146022642,-382.476032828459,67.2786143988508,-104.828716799166,-464.835974461155,-77.7327492531361,-159.982765173515,-1.5269473791345,-227.065447421219,-154.793673357912,-88.8355312800044,-154.382527499712,14.4202532593771,-203.716333135317,-97.4845210540419,-189.120831416584,-120.656151073839,-101.172185291937,-506.992997795824,-352.273893610393,-581.533608184953,-378.657867086284,-353.577560858414,-650.174904185556,-380.538337832507,-560.429991243556,-556.505206686119,-431.89889260701,-412.559987259206,-517.102755430278,-443.793260825559,-492.392824432661,-458.115714015198,-481.343826471588,-467.926197158214,-479.548368444004,-492.302195539383
-232.114229951736,-258.507202495307,-189.749959409962,-182.418339657783,-207.865155893302,-133.004834960164,-181.107069817313,-210.735760327641,-166.640309527961,-145.973791040596,-181.000807622386,-101.744391293294,-131.208602428292,-158.508097597479,-74.2990014269425,-118.631344926662,-40.0365533333421,-44.2832797104976,-93.5286957412521,34.5472814196458,-31.4554085421493,136.403618179872,93.1863121106714,-50.6918669528102,325.586577372139,47.9798918463382,235.343425339542,417.493008009398,-10.1934316907974,377.216676785526,332.841341992713,-112.764280802778,151.154950089332,30.1253679065481,410.005289788938,49.950543031525,112.861929305999,79.7018333762006,82.0735795574728,365.216809706306,105.635102538336,95.5863765092557,104.346746252249,192.676688673939,68.7550478178013,-406.072612974596,-251.492592196615,-461.61046193285,-265.039024317877,-244.319868959356,-536.295487565786,-266.795533586839,-452.242312623275,-439.194023322164,-311.211990467167,-282.353215489826,-424.442608249633,-306.41012124042,-407.793568821199,-377.260890253762,-356.27113015948,-293.192249386124,-382.264928631286,-303.28917641683
-105.720030814313,-139.720317624178,-66.0102902146818,-58.724273093952,-91.5981693685369,-3.76727699075375,-46.1390987206776,-84.4249679881392,-24.9362038004196,-14.2745785240914,-59.4193909083201,36.694566750966,10.5115175394393,-29.9896929583514,58.0008751777477,32.5432712819058,93.474713508491,105.057550033971,60.0652992224652,191.791983214893,141.491787474753,270.337137246261,275.383273595581,151.796152778354,524.741929625002,250.994095462424,327.05019298308,618.078844412246,212.671813402567,533.314996879898,565.852275695654,110.269146617968,282.387277781583,154.177736611925,667.437537466091,168.284646575643,242.223732525375,172.654840653475,239.624116183057,539.30642012176,256.031781109945,166.565022279746,222.886872725806,316.852877529395,160.848694079754,-368.293845852437,-262.060562957442,-373.507245894395,-246.628726615759,-235.769849194279,-407.354066592084,-237.856844905104,-363.73288338287,-332.150062561507,-248.67798391971,-227.26645727528,-352.614415648558,-224.464106903793,-351.148375179481,-332.021302488356,-268.397756898838,-196.300615488336,-314.719566826957,-186.067769982605
-0.207146338973185,-31.9629385526243,33.8014858624319,51.8799771296802,8.6640393619275,97.7591227241361,64.6242424447755,15.9131258354429,87.7890182970754,97.2980789478373,46.1404574907412,141.305623089635,120.486936128369,69.7943416637149,157.351543758599,142.757193176725,182.113816363907,206.930926613359,168.081613834792,275.166887853191,234.729406116568,334.400218068058,356.017603084552,270.478204485418,568.594375773246,338.040548619304,351.236731690622,641.897424591556,309.517328347373,575.301924358142,592.962809929005,239.902339739299,346.22502443695,234.908065326204,739.124669437843,207.395084406856,279.794164918912,228.484414198032,335.190228334266,524.207333304951,324.390257016097,179.954552039618,221.253603289054,331.417418761911,211.597249051599,-345.165136001015,-285.39713073237,-310.770500777744,-244.075534274791,-232.465374020025,-295.121568649144,-212.821507892999,-273.301588728335,-238.870798601135,-194.300134869033,-182.788759369759,-252.644973140011,-154.862415802174,-263.309320389545,-253.647776794743,-181.134883517447,-132.53711037799,-215.720806144869,-121.95978299295
111.79316161326,94.5325256817249,137.901625292414,174.001293229735,127.56859317628,193.701884667432,173.889508526214,125.056905362207,187.640086798289,204.015312773941,164.664770094675,230.151194287147,220.536015975625,172.375986730709,241.850420370062,237.238121705117,254.129968653824,286.923145028946,265.916387430472,321.127548700598,299.366691153707,380.113379762623,379.289055368886,374.37526893795,528.483106702629,412.922175566599,384.606781237172,598.566156708964,406.536418757209,593.259988988029,566.90089100861,378.256692899947,428.038431255347,304.194807309395,720.206968682203,304.372968328574,342.461305644466,324.189673632846,404.561613035844,434.569510550393,443.148093344935,242.736054815231,262.037704771003,377.059704335147,297.632742738531,-248.542078752554,-185.260777099638,-200.556654157065,-141.885787578488,-115.260563183372,-164.25375978764,-91.1600602195501,-140.42045225999,-105.095638972569,-67.895679069869,-53.2607291185226,-87.3615603053639,-23.8533914128505,-104.257463442985,-83.7615714257268,-36.7971762223156,-11.7637252676758,-45.0404933309297,-18.6140070256811
230.04958485431,223.594934257909,241.62005380275,286.819703220762,252.838276054471,280.545495453776,274.932991526833,241.998779588641,270.446590976852,290.983451614156,276.782170099654,304.383400223341,306.422140878714,272.822191147942,307.327558167585,318.99544148154,310.887369999021,342.20350751174,348.045729784523,348.355336646249,359.287940976923,404.412987010609,379.868855068593,479.686021114421,473.838196461274,495.876907320946,413.72810430001,553.512496069436,534.449792663937,612.546925214403,567.429690280302,524.46321624999,526.909990400001,348.439633442767,692.74944261467,464.961567566098,448.241467104134,430.005628235972,471.473901932777,360.799079666612,612.855130399055,354.610289129931,398.75087192019,487.002708008609,399.578222001082,-44.8489827065015,55.3895692357015,6.46648252145878,82.0088471824904,118.673303056208,30.9289060137411,132.755016854611,40.3546812352645,99.1125276670917,140.475103558153,164.960431929868,118.086809092879,172.283729914459,86.5625152778226,140.416881667739,159.392493612368,172.064240720091,154.574414256748,145.940792611688
323.217811520614,316.102720791809,313.279661171587,359.656488065237,346.014254094112,332.669287859551,339.482053496418,332.342112885703,321.933697866027,347.33924338122,350.474922407898,346.896866844185,358.424793229857,345.219641290423,342.368509140008,373.825649020931,342.200117095619,367.867377309083,394.900739759691,370.984851859377,403.422258423521,411.502100187601,388.553129967449,546.639292779839,482.501968504394,541.75070725856,436.3159914169,538.794621445831,631.096420407605,629.332872103258,568.505549530581,615.08219080556,593.867291666643,392.909325204501,671.059115664105,595.765620147573,529.557965441652,480.8809524871,578.312847182533,315.527073265417,719.344215114428,450.071719553073,528.602778013545,592.77667139006,463.84733291936,209.473699409681,330.990730122937,253.91393151056,338.208112329975,368.865661805702,249.865922910429,369.487203247229,222.865910331321,309.838687361238,353.2543573668,383.532416188373,297.790334001495,364.432245388667,239.612105404962,325.210286026163,342.303729450243,347.148804323179,309.426125991925,307.729023821665
373.412641452476,365.416493294959,342.679156579874,393.862389304724,392.923959966692,344.161932906456,364.674772375398,379.772908831397,343.694614383384,379.864145610571,381.314573959803,351.446739459311,374.415510317656,377.718057388232,346.207348760138,393.22644504415,350.082393100779,371.898283252827,403.885337410384,390.070776389253,414.780380018563,407.816811520079,402.767876106302,542.34153538633,524.82112591003,537.630907631786,463.939938262356,542.187266005445,654.005798661294,644.94878485188,545.511178570891,616.108805670325,607.814368732288,504.518332939768,636.328486308007,632.750567541126,525.776262890296,485.635835096658,745.594781289757,287.486081381348,666.930851960928,494.160821623954,543.94361631794,610.381892156343,491.5102689575,423.595743960725,527.485106325419,442.122405383404,520.179361855511,538.332401477043,412.295772906626,527.240751713471,361.048411778111,447.325493465116,492.415100763172,519.738895820815,413.666800687469,492.250545828741,335.227329984941,425.8367751615,457.669351218633,458.364811899425,395.761953001631,414.18950434043
385.366247588571,378.344449145822,342.493753134789,393.160060306114,391.991495764274,334.122410331477,364.006401152569,383.811557211882,340.653935975717,376.432492290331,367.054740648977,328.91027010893,357.348514329592,361.405471884876,317.600328066654,363.882750342305,335.345068719173,341.09387623615,358.476199617326,361.343542145079,360.683982046602,351.291281251084,345.261828247581,443.838447092254,418.045711841178,473.089635090611,423.951795086468,449.713540571947,572.182371854811,593.116379277809,457.972492476097,489.942418108394,545.344520809842,627.733811540445,524.190522264186,525.987180859591,403.596991419516,448.088423616005,852.433597936705,232.115825148094,423.705884347984,459.533744086493,400.483568122556,475.821685422761,468.497772643501,491.586674506241,548.120910477929,482.940364842219,541.151336761885,551.352144457126,456.864040511503,540.987757881848,418.476286755839,470.436037643104,505.170003984253,519.386076445256,447.584861551714,514.220368681801,373.959853538394,442.452357849002,474.213826685682,473.1874274084,419.405376251185,435.422720274022
352.858175719073,338.780746361842,308.676501216926,340.222731960293,331.436126277008,305.108214973003,327.43103651695,331.987642663092,301.367908031125,313.486230220751,292.365454784611,286.337356729692,297.211884498223,284.830738671638,250.200357647995,274.423953645781,288.167226695107,247.871679098437,239.617616191045,243.276260706028,217.485815338725,205.201881098952,157.112961439484,245.25942339426,74.6411400657419,308.299710763511,241.351539172737,165.948765978949,353.442135460059,368.469638046008,248.48439752919,210.847856765776,384.108656713493,597.910566800397,271.372414477048,224.415213408769,173.028947935592,319.640553207047,718.926857367747,81.5187536408775,31.7726707215988,320.188344931321,105.02739108028,189.309731477003,343.613701045518,351.608995159941,356.063296807053,337.41288174505,370.964373129999,380.159576349626,356.171836132835,389.105012970214,363.159328930467,365.586374271653,370.899134608841,368.549531579684,377.394283759553,405.861904334805,332.751138078045,369.316465853876,378.111900299971,369.576229680021,370.833583433553,347.536256991696
266.298226839697,242.85608851846,226.188359171029,237.116533710112,218.129758881604,236.876219466873,240.81801724087,224.038339615243,215.897450479524,202.255533278601,169.555197158887,212.50869059957,195.01836751959,164.661028027903,150.426117420864,143.883174496933,201.869573388094,101.445276493246,75.5352730167431,67.4313818832037,19.8151969172164,13.9491724357307,-97.716353794425,-8.95392586740058,-335.214612004542,42.8615927509577,-12.2599371209385,-220.62394656098,20.9607056485042,-13.9974409216734,-50.4442704524476,-150.358003625031,159.960676394991,395.925717339812,-77.8566142119264,-225.83022182392,-83.9303530477226,108.909697538394,354.070476078608,-159.728338479876,-376.439325393253,125.185262034188,-247.799017299258,-136.839477659819,138.916450081362,130.963422011619,92.0470930390119,118.410430191801,132.034261080122,142.498486779692,184.828221364867,171.2817113411,233.758386018292,198.771214059563,176.70819032284,163.110481379147,243.14451911188,232.61736994386,225.78404476785,237.867466156795,224.053856983821,202.376212793165,266.045925947688,199.431125989871
144.800083865073,122.018357021032,108.793598560183,116.581654403454,89.1324900916423,127.334728336281,119.291388829654,90.5723068276553,97.0765483852821,76.0745531066306,39.6110271889621,97.3120953307956,70.5299373250662,34.7725319712176,32.1980162553819,3.77041665273331,84.7997543570638,-57.6499874964307,-87.8660109470702,-100.693715811806,-181.455370160605,-146.329537881042,-317.851891870452,-266.670841460392,-605.661437971503,-272.111886442791,-197.13152454794,-547.321340477944,-366.626610109795,-408.318256735899,-365.080399453144,-479.246493299243,-70.3567337873061,200.708663010217,-444.388336538943,-686.528972889456,-275.568901812195,-110.418091163866,-69.6866054117987,-449.384859389062,-667.881673163592,-41.1377889687719,-536.6376321456,-372.008647473906,-65.5251944479704,54.0781168293922,-32.49490890732,19.2071927932869,11.47470819916,15.5405608081591,88.490672288593,46.8420863626215,135.010635246973,94.9443644625597,64.8595041746206,43.0245471053531,143.789038550593,118.28901671885,125.652732283314,130.648156012329,114.614712411572,83.9802839365146,164.345391211361,100.660923812889
20.9657678633888,3.3195377423035,-10.7506769337966,-4.64189024229686,-33.3153562577564,0.115034729228467,-12.6239407865967,-42.723675999156,-31.7152971366081,-54.0269190336384,-85.0746317740608,-41.4630916113743,-62.1123185311378,-99.3313081782401,-99.064920747961,-138.112000705499,-42.3760502785349,-208.861253298222,-244.624716175945,-239.376491011527,-377.048011906786,-263.862775186184,-485.70909274624,-517.195455618475,-728.189401117192,-589.212519270805,-297.677310358115,-777.067993010989,-758.3737715981,-706.357745439378,-715.210963773176,-726.838351082072,-298.117092864396,128.882476572888,-841.459383447204,-1069.26724508049,-395.923818309826,-326.626994091937,-473.305712418686,-812.383426579186,-831.747545166782,-185.874525942213,-755.695673082203,-518.534357451557,-271.943353423004,128.934277393533,-7.26017188246907,54.7477385320364,20.3867551105826,4.79434848277781,94.6420860624938,29.6347929313278,101.740001694766,76.5890080145902,46.8915246591018,9.66709343086688,104.032889605927,82.9911810553207,65.3370704158896,78.3711238602483,75.9295614243329,40.3981836515378,92.3256023725482,83.2809898782799
-81.8887130731204,-100.147682932264,-111.512446658792,-122.888700256623,-147.891692932565,-111.585832587674,-133.289480137299,-160.968657373519,-143.964645696667,-180.067570353357,-209.454072367158,-162.136458922752,-184.107690906449,-234.425425261448,-221.357223484735,-273.34919214155,-148.793021915103,-339.177349085648,-392.883626903565,-351.297272812228,-544.9823350777,-368.243994671958,-614.629917144379,-725.360409594185,-793.129344985022,-837.720930397401,-399.310005116188,-940.804680758316,-1055.28161138429,-902.805437913464,-1091.58942863765,-867.751479620876,-507.221270299293,99.6529361947722,-1249.41058229092,-1334.72338629209,-474.950385673345,-551.715477001239,-874.341118521347,-1216.2970830772,-906.860000035615,-342.094414062573,-942.63533826106,-635.946420521629,-504.131349354113,150.826421620714,10.4050589116883,60.6363386138594,17.5168117391418,-21.6516580653215,87.3119482980808,-0.239261255970531,65.6266317470782,50.6797266045232,17.5477850015829,-42.8143637282101,57.7828155638848,43.4406165801087,8.09676287527602,33.1735427630947,48.6440474505002,-1.46775495818124,24.2397428505168,84.3938451466603
