3.91480764764186,4.13229696139974,6.88716160233291,6.16219722313997,6.66967228857503,5.14724709226986,5.94470790938209,3.98730408556116,6.9596580402522,4.34978627515762,5.21974353018915,2.39238245133669,2.82736107885246,5.50972928186633,3.98730408556116,4.78476490267339,6.52467941273644,4.05980052348045,6.16219722313997,6.23469366105926,6.59717585065573,3.40733258220681,5.00225421643127,5.29223996810844,1.1599430067087,4.6397720268348,4.42228271307692,2.39238245133669,3.26233970636822,4.85726134059268,5.36473640602774,4.34978627515762,4.6397720268348,5.07475065435056,4.27728983723833,4.71226846475409,3.91480764764186,4.34978627515762,4.78476490267339,4.13229696139974,3.91480764764186,4.27728983723833,3.91480764764186,4.71226846475409,4.49477915099621,-2.02990026174023,5.14724709226986,2.53737532717528,1.81241094798234,5.29223996810844,3.26233970636822,3.84231120972257,3.62482189596469,3.40733258220681,3.40733258220681,2.02990026174023,2.68236820301387,4.78476490267339,6.08970078522068,7.24964379192938,3.40733258220681,2.68236820301387,2.10239669965952,6.66967228857503
17.4157299738104,19.1001797473351,30.7945173020486,28.7320101816783,30.2700105352326,23.4086198990717,27.1925532839922,18.7021776108449,32.0809649390831,18.8997221349582,23.7526138431554,10.4818428997301,12.7632958779902,25.8535539986831,19.1371562383607,21.4711608648953,30.4519799020968,18.6111929274128,28.2245351162433,28.568529060327,29.6360308394718,15.5877438685789,23.5905892659358,24.096607787239,5.57639954325829,21.4356409180016,20.3311626478313,11.3518001547617,14.3922809149765,22.0326441227369,24.8030839209192,19.7696793899897,20.4931872250508,22.6296473274722,19.3531890079867,20.9096776070538,17.8507086013262,19.6971829520704,21.2536715511375,18.3752153681422,17.2707370979718,19.1356996942288,17.4157299738104,21.0546704828924,19.950192212722,-11.0092627548098,22.8286483957173,10.8073485983011,7.1499198437063,23.1541540942882,14.2472880391379,15.9842894609373,15.9672577595564,15.6602403064982,15.5152474306597,8.97936249306959,12.2203008656614,22.1961252440883,27.6630518584017,33.0944585258214,15.3702545548211,11.7128258002263,9.1783635613147,30.2700105352326
29.3954744544822,34.6880393727163,52.6411642962633,52.5799488747766,52.9974953592067,41.6610151426764,47.9028754067906,34.3096164497198,58.2077742327747,30.1668044897429,42.1757323027455,16.7725466009173,21.9802779623722,47.747036821778,36.0110979246256,35.4455757449852,55.0810382372028,32.1079020040131,49.6645162007557,50.2517297987442,50.9618095469644,26.8044913766051,43.7445580206724,41.7479957698638,9.88440438773628,38.5270370524705,35.9864236869059,20.4654953024057,23.2946030099618,37.862231992337,44.2001719641091,34.1497389429086,33.5476407139475,38.57485925267,33.6535100283524,34.4788482560195,31.386941681065,34.095730750502,35.1385582919272,30.2331498010093,28.4175008146377,32.4765353202627,28.7430065132086,35.6018147717027,33.7136693474118,-25.9502196359556,38.3290920866526,15.9370183247984,8.45292900930926,37.7835495622108,22.8966008734717,24.2283231985928,26.4851368046871,28.1634354515589,27.3304546875529,14.6509711294686,21.4938386545628,39.1755009374993,48.480299398032,57.7492123355202,24.6125665376453,18.2884202288648,13.7527360221774,51.7650559145787
20.9669669297279,29.9954870654117,40.4532692035472,45.4956308229461,42.0881260271983,35.1915523573271,38.0950047562673,29.3909220588153,50.9582196985177,17.8886118143301,35.0207887741028,9.44623701629578,17.1556164201517,42.1487859993967,32.1366876192786,21.537465302875,44.8777904660947,22.0934563254723,38.6871922767647,38.9329190755434,39.0045580165442,17.5892160073278,37.9812167962229,30.523096793629,6.29427683540107,32.414808695907,28.301486657888,14.9363115930892,13.3312611679357,26.8937876530238,35.3353331634673,25.62461942249,21.2856277446833,29.2860838681967,26.1306783110326,22.1185681414499,25.0162118286061,25.5434243458045,22.8532817601504,18.3649821754057,18.4165639574164,23.5360567530615,18.5234893742483,24.849483936494,24.4120788985826,-36.0559680826497,27.5244027069932,5.26316465797965,-2.21517074187484,26.0222420075588,14.1127812516484,14.3025055241963,18.4373607422935,23.862302077519,21.8548941175366,9.382240611633,17.258618515217,30.0180165037214,38.8887812243614,44.2076319320314,11.628607990571,8.63922556518511,2.78469944361287,36.7477040432106
1.43291920963514,12.1370194283956,11.8428826729324,16.0209902301487,11.3891724346072,13.2205036844475,11.0349636576155,9.73244310914922,20.7564066130074,-3.27247766803091,11.560958797619,-3.71123245535807,5.4191848848577,16.550077736777,12.3076785574524,-5.48594410793658,9.59801799899721,-2.03679625378548,7.94447442141609,7.72361214209238,9.13443671890472,-5.48841539543329,11.5743421246749,1.6506891425575,-2.31846971920561,11.5620803357009,5.59569084948198,-1.37035978392567,-5.67208976481136,0.585702929153866,8.59479507786721,5.1101980968444,-1.55524033686581,6.86729019446019,5.53115791407965,-2.1103473207666,7.17295811251543,3.44788055061048,-0.766022362259031,-4.82557115229555,-1.55238165571373,3.51153393695504,-1.33602917886207,0.438883949086563,3.16183633870665,-35.1913879443713,4.65504142303346,-9.59540799610924,-12.6197602266002,6.29666113686993,-1.06273741774426,1.45309363620442,2.61039850209308,8.70115073840955,6.6372678083874,1.11495041114878,5.99279393973001,7.41546489672151,12.6543759113707,9.01871392523923,-10.5165689348659,-7.00401499089399,-16.4504863481649,3.23452737403635
-8.10507373280831,4.11195807459783,2.04634718079296,-1.25067278479782,-3.61570153440348,1.8551818245944,2.0085205004972,-1.4006017866706,3.28436495641938,-8.19695052436763,-0.844832210343037,-8.60334812687867,-0.887941460019371,2.31441908031798,-0.631985922656723,-13.4545344768768,-11.529743874912,-12.6269461007407,-5.58162012851083,-6.49066491649463,-4.27534345612426,-18.0229104411317,-4.93589400023285,-13.2066871853386,-4.96774840677247,0.304208010105387,-5.9096161554203,-9.47194318330533,-12.2225898162884,-9.47259254383112,-3.90642627421895,-2.30257805720656,-6.38901889322335,-3.74757471362894,-5.51789452883953,-8.96594163065674,-0.059428845864287,-6.570394914052,-5.62892788916673,-10.6708514879797,-8.53678344032697,-3.40675474213295,-7.34866546507551,-7.78936862322119,-4.867954574108,-29.2374659552709,-1.11595562346423,-9.21182091469168,-9.10053012825842,5.37489052004218,-4.94030627190755,2.48436703242314,-0.402402577741608,0.970775414848619,1.77506289757843,2.45607573703824,3.010217966754,3.71880378188688,1.93228950695406,-5.65743829664783,-15.0845559639672,-9.68480452697807,-23.6591325253393,-7.44946361125802
-15.1126997669473,-2.03000126818634,-3.16946432445958,-8.99072548720814,-12.0915982248763,-5.01336436683761,1.3280474735617,-7.78836340916626,-5.35389994463784,-9.90983130583317,-8.86383662954376,-14.6712974685749,-11.6318968888683,-3.97361204221099,-11.8215218954421,-13.7442443236352,-22.0625544774554,-16.4733861900841,-8.25254148502837,-14.2675614207275,-12.5922322963881,-20.998521602799,-9.71602949719641,-20.7841649617176,-4.85712011367772,-9.07349370433796,-9.45783255910399,-11.2124208860981,-12.7243795287306,-10.4020207024568,-7.8559628986956,-5.57495921669916,-5.64354517963828,-12.0352780426954,-12.3388866592553,-8.60854880447339,-3.83625659845198,-10.1648126772297,-4.10929401743941,-8.33383845767188,-10.3816263880831,-7.23110691544743,-8.9073711565985,-4.98519732033549,-7.64181982808863,-27.4141185210163,0.0144296313470329,-5.95589113400092,-6.77777255653626,3.44856256176315,-9.46726866675966,2.65583974101639,-0.884434823176955,-5.51322184081116,-0.692443866361387,2.56344075232024,-0.135538042702003,6.26812588514642,-7.17660501299096,-11.9131322964781,-15.2662825386307,-10.688654031819,-24.3834463541239,-11.5632002970751
-37.4580532791202,-27.5152913898645,-29.6046891922643,-29.3892788189597,-37.2982168903869,-26.2531482387359,-20.5763530326141,-26.9016616596768,-28.3681113501104,-30.9361049138848,-33.432460108596,-36.4241223371918,-36.3212890480371,-24.8690327386158,-37.4096988891962,-33.8306293092586,-49.0526559708958,-36.9630818171006,-26.998695716992,-43.9575797903996,-39.6302187051962,-32.9943321437644,-24.4335181373129,-42.6605031716203,-15.770774068507,-32.9685863805132,-22.8473959268803,-25.4278669466244,-25.6591356517296,-29.3886564168214,-25.5391878079983,-24.4239477897161,-25.4782286989309,-33.6880671413552,-30.0700624883091,-25.469940032627,-23.8802541975271,-27.259249462558,-23.4816344396579,-25.2146433865182,-25.0280728029323,-28.4952415558044,-24.655497555252,-17.0397500218993,-25.9076859967543,-35.1301122599251,-16.3503656397605,-23.1993185508567,-24.3409322074204,-22.8291469402992,-31.3054609880678,-14.0603925599292,-20.6469064627684,-27.577291309714,-20.5463010189859,-13.7797734996458,-20.2122080651291,-14.1793284314942,-40.5985653147221,-39.6960906901453,-37.2933648623738,-31.5458317608286,-41.3472524377385,-43.2966353537732
-66.1863456721173,-59.5164121865828,-61.1396283620843,-54.7768777569999,-66.1542967830751,-53.0613795796122,-54.3092429301508,-51.7937108437694,-58.716279277283,-59.8322467740713,-62.0198208868257,-60.702184566908,-60.2700556446621,-53.1215711921434,-65.7482663167985,-62.8845798492065,-83.0144023535631,-64.011197043176,-53.9078453689313,-78.6690709879741,-70.0411483168324,-52.2694711299577,-50.8334582925761,-68.3932657598768,-35.4940843088171,-56.4111198661807,-41.9211841970932,-49.5131030463969,-46.4753145045094,-57.8064105495653,-49.095817958742,-48.7004272810291,-54.1395205066665,-54.9979996132706,-51.0309577435079,-51.1768962902822,-52.6776606224067,-50.2501636307568,-52.7201657200021,-53.3117586919052,-45.1617131472872,-55.6375999657852,-46.347389068895,-42.4986944026854,-51.4909901227104,-48.3708721000722,-42.057411374846,-50.7080070101981,-47.3842433769909,-52.6625207520171,-57.4142997663813,-36.5149089694717,-50.5565730020867,-56.3340350627452,-47.0149173236883,-36.3785464636835,-47.7985991865183,-43.0697246327219,-80.4354453584333,-73.4886727365356,-68.6954979706417,-61.5552322485647,-67.3570356042256,-84.0354623312594
-77.4895026622432,-69.5762527041032,-69.9309510983007,-63.9231042102229,-75.9442946233549,-64.4968872436241,-71.4957196183836,-63.8454748855184,-71.7123611644313,-71.5017372582444,-68.8333647707966,-65.6236706267173,-66.0957334710126,-65.1610079991753,-75.6945994958518,-72.9469807646209,-94.7801623855084,-71.0968079637649,-65.1338009929051,-86.3244291175812,-76.6656482202322,-61.283605382987,-67.9226910446498,-77.7767044873145,-45.4550001081075,-59.5978461261483,-50.762023145973,-59.9594079290984,-57.9268874832134,-65.0303554994677,-60.2484604657078,-57.6857576835412,-63.3669471644256,-59.8602462114279,-58.4368132647339,-63.6450857844765,-66.7444963214443,-59.5636506273266,-64.0909877625237,-65.1530573474513,-54.3485162692585,-64.6197106093681,-56.3558648340224,-56.4818146443022,-63.1182116334996,-55.2794343852291,-53.5644531664917,-61.6605882830651,-52.440344900711,-59.3470944789924,-66.4265251985004,-45.7773013815369,-63.0249349958249,-67.7539294781932,-56.2329253172932,-47.1074921774112,-60.56889467319,-52.7206456504162,-97.3229785690197,-85.8902016535192,-80.7919724360138,-74.3020005363107,-74.5942982701195,-99.1626816884353
-65.3833830192787,-57.8081447573406,-57.9114284421128,-55.8190050952127,-68.2582369582176,-58.7189937745713,-67.6109132710401,-60.7165691090726,-63.9378493744988,-61.9270448405152,-57.7743414448731,-54.5345507500987,-55.9807316311121,-58.5512507304757,-65.9131707932659,-61.6543248934481,-81.5290200569981,-57.6570591399065,-59.1869487676477,-70.1637592861141,-60.7983449650346,-53.8333873100922,-62.1031260289379,-70.4127138282982,-36.5927546244425,-50.5932714537502,-44.2883287757192,-47.6741208947708,-54.8648185867011,-48.6849419046792,-58.1112534106239,-51.0725837493665,-52.4772469655839,-54.0312751563805,-50.3532365702528,-59.1672535671441,-59.8769436468451,-55.9270102325249,-55.4354811222366,-57.2004054690485,-50.6246244997085,-52.991424796054,-51.4643768187212,-49.3260655656315,-56.9840953189452,-48.7213514518598,-46.5431601685335,-52.3809123872405,-42.4864949307967,-49.3738361525894,-57.6858311781482,-39.2655135019992,-53.0133934701953,-56.6638929930278,-49.3694298890155,-42.5459089019551,-53.7435891637186,-46.1575459223388,-91.0189586680098,-78.0636643283605,-69.369012754564,-64.9251260656194,-58.7362405640692,-88.3259322265206
-42.7859885678646,-43.9448519651666,-43.1576530554535,-41.6861746746032,-53.6313776544822,-45.8988584950075,-53.5975033253408,-49.0269825325913,-51.3959933244221,-42.963546456715,-45.2611830082389,-41.498807678574,-40.4994393177096,-45.4276849558189,-47.3950911433371,-44.3638078699188,-59.4755061673141,-40.031501736677,-45.4676761422313,-50.6356606341749,-40.0232948593757,-38.4683622929383,-41.7839706050291,-52.9764110761575,-20.2856082835045,-42.3051627496911,-27.976969343945,-27.1124174323715,-43.0827447325635,-30.2999461619417,-46.47504143667,-39.2564821478658,-37.547522231629,-44.3505787969973,-35.7027039855659,-43.9137866609628,-42.3346980597279,-46.7437338562311,-40.5907612022703,-40.7484567230806,-39.5720216884811,-34.1511268074007,-38.2184572722694,-32.9687046770368,-40.5440193320231,-32.2537718763856,-31.6070140621744,-37.288089333921,-31.3213086407346,-39.1806556502523,-41.3431289866424,-26.3042066040288,-36.9216558396783,-37.9724187260478,-39.3654836957406,-27.8111451787313,-38.1622410042587,-36.5831148554365,-71.2029769117473,-60.1734432454298,-48.925536579567,-45.6089459891213,-33.9841354628584,-67.5721360579834
-24.8646533873065,-36.1947310070338,-32.7859808534938,-28.4825386289915,-37.0861201421891,-31.8205582370805,-37.511751299712,-33.5312036236482,-41.493969148059,-24.3202182145725,-33.3176429650534,-27.1780694870612,-25.447675889209,-32.7615939131113,-29.5322632284516,-28.9815927439117,-38.1309637679132,-26.2531563908477,-29.0338920906776,-35.5733910757136,-24.8008793672587,-26.438070213206,-25.4107150496102,-32.1496376771845,-10.7077988831599,-33.5879670068638,-12.1446700407553,-14.4918845569176,-29.8755895826766,-19.1088954518693,-30.5656160329303,-27.7896998965782,-23.838149783604,-28.4707339144964,-22.1696104585742,-24.0510672636815,-23.895006126208,-31.0581329509309,-26.5047612632328,-22.5317976060095,-27.5280918619928,-20.2660709549102,-24.976558581544,-18.6452634161803,-23.1733295330669,-14.9962050236672,-18.6763680895451,-26.3086452133081,-21.652413794921,-30.3143299904179,-24.9322476758548,-15.492520843294,-26.4046096187348,-25.3012213278652,-29.8258338502985,-12.7880896384359,-25.6041909999148,-29.5815327729982,-45.1153296472512,-39.4933245520606,-30.6397637057804,-27.0952824504024,-9.94477638609154,-48.2546500701768
-16.5110196614508,-29.0521061443698,-22.8037872174199,-17.7824598685799,-24.235764032787,-19.3962790748011,-23.7028848465396,-21.0290751253613,-30.184888987718,-11.5021858610669,-21.1025584412951,-9.8457070281906,-14.3053874587239,-24.6551706599051,-17.1503736799901,-15.3263292905464,-20.0294833460355,-16.0546030635328,-16.8907129656564,-23.7494239521027,-16.9151766249617,-19.2558106961383,-20.8347941508543,-16.307777136087,-6.50805898394093,-25.7735778031738,-5.27763348808034,-9.38185576787598,-18.6077179978281,-10.9486963865931,-21.3902618112529,-19.494442816652,-11.2643741765002,-10.8240218659433,-12.6079454185495,-7.40430009318743,-9.8806920535647,-13.0822728270807,-15.9433983576986,-9.19546331283796,-19.220616050779,-14.5885271520651,-16.439143015962,-8.92183725691707,-14.1252491211243,-3.30521886281207,-11.2457920015152,-18.8817681283542,-12.7900503171244,-20.3562201627565,-11.9803758892312,-10.5106932772656,-20.6218597168078,-20.0875353643118,-21.7022375588178,-6.50319077748841,-19.6599670915638,-27.5804322659765,-26.065429102918,-26.4667079973929,-15.9186003146698,-13.8666190718862,7.77559027515808,-35.0101522246534
-10.7327485496398,-19.4777679521759,-12.1401965732569,-8.93954308740492,-17.2665794318993,-10.1824062566392,-13.5700949735201,-15.1822923217046,-17.9958876484475,-4.9679558850194,-11.8543670897634,3.23993451675823,-9.00108247223861,-21.7177488748971,-10.083542884639,-3.63616154396463,-6.02859966353814,-7.14172381002149,-12.3793067475075,-15.2983321051507,-12.0083810495234,-10.3830372289395,-19.4767184709175,-5.67610887517787,-1.75257884851741,-22.9702656228175,-6.16516498610458,-1.95417956835746,-8.02372754825003,-5.0749662465063,-18.7648661353052,-13.5401863342628,-4.0690268109739,-2.38412065133068,-6.70054087476848,2.22709540725623,-2.40797432147377,-2.80380118096916,-11.7044655400262,-4.31368915113676,-12.0044354993823,-11.4394238465917,-10.1530047952401,-4.79787923797564,-11.2532378027106,4.08049667847599,-5.50924828979681,-9.56230826183279,-6.63123821436205,-12.2134408621947,-1.08637974379491,-8.9724494918062,-13.8185567319507,-16.2926436987381,-14.5567978287433,-4.85996866891175,-13.4198844124743,-26.2311701551708,-20.0543335058555,-22.3339074668216,-4.46108944890517,-5.04236958645401,16.2169417483521,-24.8786779461914
-2.63114023843779,-10.3008411613187,-5.19867888971979,-1.51299873438374,-11.2243306994463,-3.64027290190131,-6.55795726965774,-12.2010085899765,-11.0090174778932,1.45932823758599,-5.75914482967587,6.0800829168253,-7.14139674219738,-16.3590198876018,-4.87501452133793,4.84905093699194,5.50978000975066,0.0540882691642446,-9.70721260135414,-11.5511002652815,-2.72785077802313,-0.928931737302596,-12.5920444432988,3.64341619279645,0.132028782061197,-18.8559805141786,-7.02789873978827,7.40994817186779,1.49951991507282,-1.61922935670214,-13.1056750220189,-5.50083610490893,-1.86568061208543,-3.23204618201506,-3.31682315415147,6.99587566619117,0.566737996013886,-1.1611062820657,-10.3111825074844,-2.69225169974773,-2.40252045952441,-5.51603942352309,-3.07495657381013,-5.46642641733726,-5.19098017448281,12.2870965707171,2.26846651122745,3.10506949990172,-2.88028066681194,-6.56295129846024,8.47933036242644,-5.5564316683795,-5.65102312428252,-10.4557502003255,-4.59194822955485,0.279626555229019,-1.38370783025477,-20.0666875690166,-15.4890028040267,-16.4981718829175,2.67154503653388,1.54033708108628,19.2327631234734,-14.4292339924167
6.20546076603403,1.22235512749891,-0.395697050216415,5.52554020570447,-2.44319070777512,0.932264296390469,0.17963858559501,-6.70640732939089,-8.6228532440578,11.2520408095974,1.35388132618905,6.31204203226119,-1.73218931738992,-2.88175328855005,4.02419246479874,11.5644141412452,16.880952940134,4.81286859296146,-4.21154645285004,-6.44600535947123,12.8981516739054,3.73061309716503,-2.21998070116815,11.1965249384435,0.168951630881933,-5.6658691724062,-2.34264447926288,11.3396383557715,8.09175995525581,3.54827651604602,-3.83811935864572,4.92068455694923,2.88264771828883,-1.88457956390478,2.04113792297004,10.664139455569,4.71227041859155,1.08784362944487,-3.73998171387209,2.93520670016349,7.87172042969115,3.05316879448369,5.87718177208204,-4.01808133923027,4.24448008983841,23.4043868268781,10.3490617365564,15.0674245486605,0.928109144634355,-0.337527466289086,16.5656000707905,2.85898547075249,1.91616931087489,-2.20626412691581,7.04769031717291,7.78668669695147,11.4094332478999,-11.448168060719,0.92108079195846,-2.98568432425374,10.6658029374839,8.22642945940466,25.4253842525163,-2.08121597524716
15.6343698982738,18.2432520279766,6.43038643587296,11.8072287693991,8.4549176256245,4.99563701328706,7.81433337998838,4.12518018395435,-4.12934941916819,19.7708031013506,10.8097108341251,16.6072435044168,10.2504687317109,11.8131023209952,17.407848533591,19.5091650854786,25.7987046037153,11.6389358127392,4.9383625125772,8.40634030483194,26.1761885690393,6.60978297430008,5.95017271896442,17.3672933981901,6.51771563883548,11.1079006997672,5.80051996231958,11.5732639751566,13.1108552560132,10.3724068502153,5.73048470785889,11.6215424851221,11.3267311055139,6.38962221042732,12.4539044313848,14.6458986503542,11.6698501709481,9.08987121269339,7.20661692003583,11.9021594746067,14.8098923296763,10.808328955935,15.5624069755415,3.71211572740734,12.2715221379678,34.543671240875,15.3040802413687,23.3751949408934,8.05868118191373,6.74009990033845,24.8914462572399,13.9819359201094,12.1151688229927,9.98445068617349,15.5005294379921,13.7838627889863,18.5346008553064,-4.03045213700873,25.8534131020697,13.1960434174499,23.7728383818034,17.7509107407751,36.9717068928187,12.9987780365973
26.7026770012484,29.5451940580751,10.6571332265595,15.3402664602812,19.681729756977,9.7747803355848,13.7097341351977,17.6566585071366,2.92151529602292,23.0327174885887,16.3333545699969,32.7743698631061,20.0197467552462,17.5249434715863,25.8575813125133,26.3177744318092,28.8896616458876,19.819387011357,16.6990945670019,27.5883270256713,28.2162543043764,12.7282465256081,9.92398739653659,23.8260102959134,14.6497397690881,19.866159759608,10.9046483996717,14.2317325850851,18.8146269837638,13.639946775631,15.217151564941,11.0023409626916,17.0418143147718,15.28166249853,21.1560221435134,17.2695650098856,15.9467550626843,16.7997302000333,14.3639335526363,17.3722213576587,15.3866459865381,15.0340474099626,19.9925063958206,11.970869795891,18.4685795016398,42.5767807572615,16.1446548266411,28.6548757129638,20.4044179641851,12.4755059328497,31.0894900103469,20.3747702996279,23.6507818449577,23.1071395089546,21.1875818775394,18.4818408492198,20.8493469802165,3.05821088396939,42.8716192065462,22.9800131755213,34.6673735886707,28.8727595491248,45.4931410823145,26.7204426055868
37.1087660246229,25.9374794895188,8.27309638674437,16.5366320223982,27.3324731616977,13.7582069561742,17.0171532898754,27.4414258564588,7.73545055552028,22.468294182383,15.6048373641177,39.9065874691586,20.1325360544306,15.5875685725248,22.9880479964587,27.1729681701591,29.3620575289957,21.3214280486379,22.8577654564881,38.7487044678968,23.2286912641962,21.0396329813357,12.4303361178032,29.0630404634353,13.7903699535082,19.9775646315361,11.7110682437902,15.9005052105128,24.5636471969444,13.7428310760284,20.5405024589628,8.18816681721625,18.9836509537702,20.0945682523001,20.7871849470701,19.2973331186014,14.5845409601268,18.1538015716926,17.40420598102,18.1861371955379,13.2738527990532,17.1365529350684,17.5806495050906,15.7861394494708,21.4046015135234,46.8107807654739,13.0497116809136,30.7505988431631,32.0100025600944,14.5620270202615,31.5519724380156,17.3875471649624,28.0829312863816,28.1619523912846,25.591114534358,20.1285138834939,21.3206076070724,10.7159198855162,44.1392252894085,24.3260724102866,36.1206218612116,35.3510510900164,46.4559483036355,34.844366428159
40.3585746195208,19.5719337304923,4.11741047952879,15.7312661419288,27.2659260075403,15.1406823260679,17.3987794731197,29.5603502165093,10.9889812209092,20.1760183246407,16.0327435135413,37.8784420067144,15.7077744841659,13.388170515789,16.367778353375,25.9664887609544,32.012707238879,16.670397539452,16.9025724109472,41.6275842626125,19.7804501578968,26.7540656974347,16.0233102945958,30.4670232305382,9.19788083697951,20.1881193734942,12.2000746332888,11.5860196185842,27.60040127497,15.6259642977663,18.3235656624311,8.12106426644618,20.3362843735314,21.8018691614957,14.3195137074608,22.198181778617,11.3199707762735,16.0267962292013,20.9135833645583,18.4468029177706,14.4210161564208,18.491920282162,16.2059026389284,16.197108493068,18.8374127980564,46.3008767593092,5.00093860717019,28.4609613104133,32.8146648567228,10.9588638509965,29.5749040051582,9.36608961963592,24.9920889535581,21.9793685283493,25.0682744237678,14.7957959763315,20.1851554051191,13.1644491621306,37.8550790809926,24.2334312278909,32.3455975421046,33.287782220679,44.9780912001765,38.8256230843812
36.2340581342821,22.4475441101602,5.02008579591524,14.2875234324874,24.7528888464788,16.6120374754295,16.5342486770889,26.96355365832,17.3645227813895,19.0542907694307,22.4627418376192,37.4474586719409,14.4682685075034,13.9612923830043,17.7542090428048,30.1899494121424,38.1225317282141,15.6330387617382,10.1273294302979,46.4904616644028,20.5596920463061,28.9298792294726,19.7545845589172,30.686498650791,13.5711524434729,24.271844333127,14.4797374402485,10.1721054958878,27.7590574098606,21.108235801826,15.7093949951698,10.9630416315455,21.5781548145348,22.6378725088745,11.52310975207,22.4369274405475,11.6084443286002,17.1695956791597,25.1897374625853,21.384060425823,18.2431020124001,20.0735469427793,21.3907507992045,14.8855274663517,15.8407999685473,42.8258258085877,-4.91125989623081,24.8497413767737,24.3731818248791,5.34336738634712,30.3024394499375,5.34089731726459,22.3594516230164,12.3807614408584,18.7594429705515,8.25078782398645,18.2029234991703,6.55934153161232,34.6367248786842,27.9233270811556,31.7820103696724,28.4683440413536,44.9341277498038,41.1524081038352
37.0228159520572,27.4431373934465,13.8781300648577,15.4067691737526,28.8508142243913,21.6791638756333,21.0385918405928,26.8991530491858,25.4026053818625,22.7484484712419,31.793968979988,39.3429133003653,18.9642388383829,17.7202016876595,28.0309188271392,38.0017613213213,46.1900423237465,23.74274235212,16.9537039195577,56.9215725938422,26.7283939497074,33.0985558115948,23.9706413782798,34.9944145106809,24.625364649222,28.7250829258969,18.6359390468704,20.7009501865931,28.4419546485375,30.6748473767839,20.9347511544026,17.5021401161663,23.4714579470194,23.6363959701101,17.7791965452118,20.1807305888919,17.0918633430616,23.4394253415123,29.5051923923729,28.4038541715984,22.5452334111569,25.1723506932006,28.5866970387945,15.5602002907944,18.9789952897786,39.3044930308403,-8.78811497554747,23.1910806704377,18.7961776291761,5.57744638262763,30.6540129370429,9.34906437731812,21.8560396934877,8.72244783526323,14.0498707025349,9.62384529006299,16.6167605048405,1.95327507304393,37.2452731544095,33.0131619870645,35.1993226371793,30.1607387770313,45.3446404278607,43.6420516248839
46.0650343716616,27.883194290036,25.3908729603975,16.3303331308992,35.6493965145778,25.7320423368285,29.5948217660252,30.1509825448376,29.526315444759,27.7487310968676,37.7906325349623,36.3788618441427,26.3989944994618,23.1380018427624,36.3821557975107,41.737495760854,49.9380753707182,36.0744203319525,29.4453557393925,64.382732991377,35.2645455257038,39.6721126364764,30.186619782783,41.2385911489711,28.7066322213187,29.8731925531734,23.591897083085,32.5445080848349,29.6885629781925,41.8815411390222,28.6012184751978,25.3393029369086,25.8143440502528,25.286115712622,25.6199764850274,21.8129489599199,22.3657411138363,28.8133763788853,33.68588615206,33.7076659997688,25.5127807809137,31.8750447699812,29.6459102988744,19.9664282722956,25.6380336354996,31.8206289090871,-7.91029569732988,18.9131017841572,18.394132515483,10.1638778741323,23.9251291573268,14.19834389462,18.7956499564039,11.4698282658816,15.8274333655402,13.7316727575344,13.9103249395521,8.19436007933439,40.7353221060079,34.5143654370784,36.9992756548803,37.9172153115372,44.1816803249356,47.8122076173761
49.4937712836244,29.2648200815636,30.6977526348049,14.0588574646554,37.6478791144936,24.1511577262729,31.178165555475,31.701155226589,30.5225591504152,27.2867875378335,36.651241259047,30.0449908971582,31.3068286139452,27.6391122345524,37.3637140764794,39.6955173834243,45.1637479724096,43.7218829266318,31.1521656825222,62.6156054699952,38.2228640705539,42.0030277108071,36.8369878929381,44.0601469134385,22.8954105815853,29.0112716258936,26.0940687197917,32.6015323084426,28.5585379727287,46.4227189568545,28.6664268133931,28.3709363856749,25.4083190922684,28.6015378080426,26.5818789151942,26.55679584356,23.0831292068134,28.9354317171218,36.1366265894371,30.6631520902006,25.7789455462272,32.8554428417034,24.561904381191,22.1492893329795,29.3738831220488,21.5302976795239,-9.8900074960296,10.3468795289229,16.5393032029363,12.1207749182398,15.5974082392303,12.4553715755288,14.9172906253822,14.8450872772628,19.2730222542739,13.2138547437886,11.4803270565119,17.0802296725941,40.2101590848887,32.3061436350784,36.1116369947664,43.1766143394226,42.3924821063632,51.3145040954084
45.2780849121775,33.0863505283443,29.4649625104402,14.0395042996248,37.8407993110073,22.8734352632476,25.3704442518162,32.5591498490393,32.1072458457144,24.1237820654022,31.4593194878685,29.6595162668097,33.7625375300058,30.9408956515771,36.1010869944301,36.9795695757982,39.0994548171177,44.2999524648662,25.652354351812,56.5131341781132,34.8024862129908,40.8993551115636,40.8030731539617,44.0284449888861,19.7077072421007,30.8748143680626,24.7977437038575,27.3219236582809,27.7049935348683,41.0104566665812,24.4172240235748,27.1513526439695,24.1781056194226,31.5973774875541,25.4013292631772,27.3904374570255,22.8021049495151,29.8346760340851,34.4765520448482,26.153646118869,27.5509153009181,28.0962004235462,22.4525509376734,20.498930816174,29.6552960139855,22.4206055928599,-9.39963960369656,10.104444387469,18.1504225221089,15.7482299593581,19.4159092754622,12.0527476753763,17.7827426574348,18.0008792729391,21.4829711338697,14.8848083767846,16.8982082344871,23.0092648449156,38.8488900235149,32.6377959150531,36.7268909346326,42.6737659723244,43.5566961071775,52.1458113328807
46.5452582606962,34.1006856430615,26.7722814117807,19.1276598553842,38.3615264609551,25.5394975481533,24.9411737866966,35.2297676596876,32.3422308562253,23.7643434057866,30.018779451366,35.5342153528288,37.8937551853471,32.6519401527353,33.1543836286091,36.2282478812704,40.241447632843,41.5310042232589,25.7316501216839,51.143262716941,31.8881183539101,41.6331775101099,39.6277296267695,43.1882084879539,26.8968073399105,34.6642015258014,23.6051574491825,27.1317665409883,31.0867482309008,34.452579128789,26.1455149760243,27.993430689207,29.146773228489,29.4919885817773,27.9893149179469,24.6505856411445,24.9863990343022,36.6318315821481,30.5420975280103,29.9415304649442,33.2650094659236,27.0175823330859,29.4774068956179,22.0818419749949,31.4017641036131,39.0919703592349,2.99905396596574,27.2353123189255,33.2689561728558,28.3425067154177,36.1353079891076,23.8015974554155,28.6632567897415,25.1078110765313,26.9932347046299,24.9766878123266,31.3484325525336,30.6527413649239,42.2090773750978,39.1765187999814,41.7391234882335,43.410923241494,46.3794099559812,53.9682583425445
51.4300993874005,32.1295564409025,24.9247063088965,23.2693789336954,34.7263634120181,26.9233249962576,32.6073391533688,35.8674119029671,27.6893609394353,23.1740528977597,34.6738596618435,38.0552673900731,41.690791305534,31.0975915532222,26.5120614603434,35.3302197302408,43.8323810545305,38.019229501417,29.2654262184842,44.8345057073316,31.9807796203785,41.6540023283759,33.0797921397529,39.6960438346943,34.898046268959,34.3859479839866,24.8867052349772,28.2169508257135,34.9693791022667,34.094098421176,32.4785476127842,31.2991037712749,38.5857343547503,24.1795174412396,30.1682791993449,24.0426631066062,28.5459835491493,41.7039596721488,31.4523845899038,37.2743111142892,37.2747081234374,33.4369552053254,39.8845117607485,27.378745494923,37.1362010374133,56.9431253171795,20.9335388510015,48.3723410919593,52.6144663765462,42.5125122488736,51.3517320097692,39.2578163190596,40.5945537225703,34.8988499982972,34.9052206839998,36.2707244289872,43.2110487546567,37.9348677518633,48.2401726607413,45.7083708475192,49.2387645847876,51.5968510473476,45.1440580492333,57.3670473529593
47.5184578111285,29.7324457370034,26.4179320369593,22.5787008223508,27.2019958407627,25.0011832016461,35.3369970423822,33.1889319026583,20.0316952004854,19.9746315547635,36.838959538633,33.6630379419667,39.1803741860314,27.1142301406861,22.8110099521525,33.3853617964478,39.9688458617639,33.9657980874166,28.0160843600229,38.1526761947115,30.1779467039621,38.1191646631719,24.1555184467942,32.2664649977048,31.9861920180575,29.5645530284267,24.3487340112117,24.9326023128737,34.7905095436857,33.8224927987235,34.765990359281,31.8149062515719,41.2718792634906,23.8815014509286,27.1765763102308,25.6140721702944,31.162214785865,37.8989137583497,37.1959591439711,37.8266077400046,35.0326625949215,37.7527637687023,42.4798938051336,29.2782565783722,40.7487861852371,62.2027547749233,30.7173593821719,53.6464897290656,56.4449889128553,44.5983175596838,53.5643628230356,41.8132869321387,45.5072790700289,40.7245988977993,37.9635224452429,38.9549661119923,43.416523038905,37.7554400951546,51.7728449158918,44.7405024619692,52.3043344695474,60.5713711869026,38.8650526527533,55.5551098292682
37.9942629226865,27.4083188556388,31.0785687769904,20.2202752699307,22.7564030582821,22.9902406708433,28.0971847655547,31.4600008666131,14.7700455059125,19.5303877975262,30.2821037686552,28.45393765761,31.1470131312496,24.6720147135687,26.4125827350451,31.6564649998134,30.6973203662295,28.8138700252684,23.7253976210092,35.1132983504586,22.5343431919355,34.846428734998,17.616389788431,25.1982600919837,21.0250070098472,24.7970766834849,20.6350569145764,21.8194305659365,32.6014073666985,26.9641367163826,33.3334118405979,29.2245643593547,33.5256787722065,28.2657485126427,22.7330644475037,26.5884191285311,30.9238743853513,32.3314031462113,37.6178868827924,33.7592025019886,29.5371535823286,33.254360750954,36.3510583411113,27.889585623607,35.6990835814263,57.5609682450757,29.4388692957956,43.9353484371122,46.8303536337294,33.6953070004936,45.5764062035101,32.9517922413659,41.3692594323815,40.0032199865415,35.9085717657646,33.6528392522102,37.9689031765123,32.9076983229716,51.0607048460006,40.3249489306227,47.2432350913014,59.9934390611811,31.5759835676154,47.727737395835
32.7547562936261,25.7686818762409,31.0856283626359,18.152063451734,23.6521282365434,21.3656727256238,21.3916443783647,30.5249601052506,12.9344634220754,23.6910394931227,21.1904301390067,26.8443852902269,25.5881756809314,23.9514124360373,30.9942888827895,29.9845859745273,25.6008002629466,21.9714779586485,20.9260520339139,34.0548878258099,12.0116839156837,32.4703638139483,16.8219453681852,21.7731481244951,11.53139761689,21.8566455437342,18.8150962213179,22.7357929831995,30.036674897913,18.9352837787552,32.0369685801016,26.1225292184179,23.5547490573413,26.9795596122596,22.4430401293663,26.7298852942229,26.8478231399993,30.4971988565917,28.7732256126144,32.712066561688,25.7745889822245,26.421774030674,30.1479612951846,28.3426593743808,26.034727945457,51.214660032506,24.844141336918,34.9462617571423,40.7474778495215,20.6634703215261,37.6221097252912,25.416819458929,32.9202294069752,35.9575123017016,31.9149606434596,26.6280447690358,34.3767604666265,29.5520526521472,43.2051798052879,40.3677792278834,39.4651735931373,51.605881520104,25.7668550218609,41.0831954018784
29.9738632833634,23.9829606113796,23.1872841328379,13.5855651969667,23.9059640282003,16.7831301485716,21.0503308110666,25.5279172734755,11.3932150101387,25.9768429918668,14.7375959942857,25.6451213106438,26.196815033774,19.9475202473602,30.1270041948035,26.7783043352483,25.2008021023645,15.4281158968323,18.3111865073027,30.8004387192757,4.65977419890327,26.8637937445745,18.7061695045031,19.1645320744333,4.74489584069321,19.1545695720416,17.4114316011165,21.9621483269039,25.2745436504504,15.7145552019866,27.9819613675078,21.203526766909,18.0737072154117,17.7284080499158,21.7981153538514,23.2189825927219,19.7541492491339,25.2661872172419,18.4922198824207,31.2241310043245,22.9119400494325,22.8012317194399,27.2413434855789,27.0471558969145,18.3772910298361,41.5803215105783,21.6579046897738,28.9006727141156,36.6799601259897,12.9670582008089,33.5499849301398,18.1258791475022,23.9819339201471,32.3350686841176,23.3965041030334,18.996679654738,28.1348898303131,26.7244198914344,26.9026504626089,39.9758183791227,33.6271590156211,42.5967986583333,21.198727659999,37.267332788761
24.2151401237565,19.579169304836,15.5316925594311,5.61551132848971,19.0444183104325,9.60145756078878,21.5385405893449,16.2550823929887,10.7984820588722,23.4157438687477,7.4788064213362,20.2604184083915,28.0771479317067,13.7850150299332,23.3196601880473,21.1207632408098,22.1083409104594,12.1461393931668,12.9999186442035,25.723674156787,2.74182543465306,19.4647419408987,15.433119800563,16.6638369207318,-2.58764658222428,15.2154526592301,10.1363774436335,15.3702288227791,19.279905551063,13.0612017741609,20.4578444506991,14.7607698464286,15.3927230263342,10.1686748428571,13.9680191234638,12.7428306305829,13.2989441342603,15.2266226481874,13.1309504206153,23.9601812083449,16.8177331426392,19.1333802463025,23.6551970956856,18.0876029836085,11.8818732123432,28.4383859725249,16.3236599831611,16.7805749405581,24.0882324154028,7.7841413615801,27.1117040288331,4.51086246607776,15.2967507636761,28.2542088434519,11.1117189118888,12.4594671161462,17.5852213361347,22.0967987483913,11.0195659442677,29.7930301340759,26.2793417767529,32.7693631499121,15.9071609027265,33.9568948086653
17.8879957351664,12.3912438044127,13.2142162087637,-1.6505096071542,11.2630090681018,5.89601368483135,18.1474100611807,9.12970271597489,13.0556855150848,20.9438023406298,-0.747710238815583,12.4653217693323,27.7840494133871,11.6283203017497,14.5325351193455,13.6465052283701,15.1231366107264,10.5087490348547,5.09238496825092,19.51789906349,3.77774312711957,14.7327548333465,7.2036168592695,15.9954300553174,-6.54497350461982,11.8588882880928,2.95095028924482,10.6054404212043,15.4774164556091,5.24158295885565,15.7005609627428,12.636482401642,11.9032993359413,9.03551202049795,5.61100425130727,1.90134223771651,10.4702406591247,8.7836038995474,11.427210781363,15.9934140417009,10.8382544681382,13.5510841393004,16.579094069782,7.43484404315392,5.64647986402997,23.8026186702982,7.77446434861496,4.59847969714515,11.0420633556531,0.859002678139188,14.9375185286504,-5.5296080146153,9.57028816535237,21.706830299793,4.21475499079803,12.5174914314568,12.5075265365719,17.1086191249359,5.65802878650968,14.0541147213379,16.9732748221914,22.6300917336375,9.28015200153568,31.8068917326497
20.4359331400946,9.81072035266896,14.233418982307,-0.804319501040736,7.9693919408377,9.89483307795164,15.8298592560769,12.3754780069323,17.2697874107232,24.315829014036,-0.346227608907816,12.3376825206252,30.2838918169366,15.6629582317379,12.6855899730443,11.7253113904861,14.6631273924912,11.7355256522165,2.25589719463155,15.2350512528917,7.13031903556634,15.4424847851444,6.55028154464279,17.2062150827471,0.839892171343084,15.6097695644816,8.55500774278198,17.7916092056646,18.7412229181488,0.39977178396604,17.9508862332812,21.9193855764143,11.3974819883637,12.6863123604933,9.02055868055323,4.27150789774658,13.0110900060706,11.5740897028898,14.4009493597947,16.3427977788074,16.81595053683,13.580702776412,12.3545111416637,6.7103883101646,7.24362694850447,36.3549847927541,5.63934946408664,10.1037406082317,14.3716379283924,0.663859386629501,9.83797070585131,1.12572262250579,13.183990571121,20.7457227484518,9.39023489314876,20.4837764051287,18.2443938501203,17.5382261323262,14.0650695917793,6.94333700092724,18.1103906174944,24.447064426691,11.3461648239428,34.4115387577405
38.216636233316,23.8941734378306,21.8939877426531,14.076158620718,18.34289157248,23.5038673745877,26.5680191971714,30.2099146847668,26.321131765637,37.8858296124561,15.9803925554483,28.2990561533236,42.1190387121344,27.8450105787386,26.132595996958,26.8471989975362,31.4866292603445,25.4107806344378,16.3648784270403,25.3160275695292,17.4698781616132,27.238874191475,21.9825822624782,25.0573430876575,20.3015460811587,29.6296237624258,25.9517564108268,36.5491205355981,34.3500031546287,13.7277437801599,26.5910005242984,42.9599114810841,21.7838089144198,24.7698091907545,26.1285733408979,23.5951680830833,26.0375691519397,26.4911668714359,27.1949256109142,29.5933562204131,37.8921756964221,27.3034844142717,21.9177198243964,19.5084203912749,25.4739956186254,59.7385422126023,20.0835024814351,35.0804495818143,36.5263215831741,19.0853416962182,25.6016696470428,20.7017174162568,30.7348408335713,35.3919805555003,24.2781472660554,34.9428516013378,31.3102512676116,28.7435319164371,37.1764976531644,18.61286163917,39.4327999572311,46.4379487470444,34.50150959689,50.4633104202196
61.1707827505254,51.0842225845506,40.9341187003711,37.1219389155671,40.5596631376135,46.1483602802124,50.3090546612241,54.9614895495104,43.9211539067322,61.288346516717,38.6642567389611,51.5115543935151,60.4167894838791,45.930255130501,49.6197265925657,54.2721321140617,58.4087421667305,50.7410121363285,44.0609062773644,53.6988653415721,36.5669560905762,49.2584913144787,46.0584688924602,42.7284311611582,42.4399151647611,46.7564416461211,43.2665110687751,57.1402805255525,57.2739530806174,39.7560050281414,39.9134088684823,64.0893337224778,41.213403274088,44.9781091419194,47.9732314526449,47.1995661691798,49.1486778455216,48.9004691008406,47.2242797658062,50.0647896167886,59.8768243635517,48.6006915765493,43.273092944659,39.8285814269172,53.5337822654344,80.5650444730174,46.2563480189418,60.264442764647,61.4476544999395,46.5446177341562,51.4245334484852,40.382598890864,54.8797272686545,56.6900270667167,41.1102683934245,51.2366572519487,46.22834048392,44.9792745066744,66.9376929458256,44.7486420066395,68.9839472301682,73.9519649873655,67.5265408821121,81.2535735812899
69.3772083468766,66.3126023105897,60.232079308826,50.4280683489323,57.0431380393856,64.7514606164007,65.4686336811346,67.6633766290017,60.6390859997525,80.0604347644746,49.3039351837448,61.8838101009439,72.0908330107949,57.2730614600755,63.6737001127238,69.8948962006646,73.4577582555349,67.7280249113861,63.336303482491,75.7667399256141,53.9184176492872,64.4926547831407,63.5790562121936,57.4343272167612,53.4695223743497,56.9541804549127,52.4512298952128,68.2633515634752,71.7254409162785,54.0735561950756,52.9416057254416,70.7879511263611,55.9414799266534,58.13798582358,62.0387450683544,59.2402798801257,64.8541396556399,61.4554282630989,60.6889614212022,62.9474404683063,68.2148834149999,60.6041107882704,59.3518791050164,54.8349265916682,67.5297054722088,86.5231790790782,64.5852039469004,66.9318302826447,68.7607937058939,60.6465894894508,61.4519018480725,48.3004393475735,65.9055426311244,63.6555990410998,49.7502130261721,56.5928899770949,53.0192095565436,51.2652838786583,83.028859311134,65.3962216985322,83.6022217227816,83.0717528033435,81.8586541945598,104.025461420555
55.5511477361078,53.6826576278822,59.2231210690133,40.5539890162899,53.144333839485,61.4009266570189,53.9227538808015,56.4493362869718,58.9816450113453,73.7589911729265,42.1550299223822,50.7458341639713,65.7315636538868,51.2370882243951,55.7996731887087,58.2591499847089,64.2540094631515,61.7613375099666,57.7862289670828,64.5430960511964,52.5529764359137,57.4526603398331,60.2590092252147,52.6712952688473,46.7609863275526,53.1840981102512,47.2725272632327,61.201302720742,66.4112849712608,45.239714000417,52.5121913667571,58.1043364855563,52.4887133627334,51.1742011430367,58.9552336239181,52.3479020835123,54.2701330279379,51.5139593202249,53.154588165711,56.1334768587765,59.2143014781327,51.7876250659834,54.9387592991511,50.6373665212663,52.8303843120903,70.5957681636161,57.4632411303284,52.7674456308887,51.6304567396649,52.5552213473371,44.6406563949261,35.4644372475786,50.5660051771612,49.2398340847134,39.8809641953065,40.9729424742171,40.9128921379931,38.4967279308391,72.8847251169888,62.348464005675,71.5864106760992,64.9775896606587,65.7015250125082,93.0485671086492
31.5030631480511,28.555733069926,37.0419688947078,15.5394044023961,33.4892554661875,39.9773514711643,25.009163719188,31.9734456118299,39.3633406758662,46.5369739792363,28.6571362044739,28.8472853930337,45.6261846186152,31.6074134712144,36.5767392045144,30.5798332759263,39.315245615178,43.9458843862038,35.4512670974312,30.4840423591783,30.3587450227268,34.1382823427276,33.8696977546524,32.2361330154217,29.7311314827712,35.5714474213127,25.5358838465368,37.7811333490694,44.3953543620778,24.3738613772345,31.5893050111252,33.1394983057459,31.8397297532658,30.789055286096,40.5988002769499,31.3956343461099,25.7842133711317,27.0717926751902,28.1788138090029,31.8957319624103,37.078996314957,27.8741174087465,32.0266374285923,28.7151145436136,23.7984142846631,40.666753631144,29.8261475562092,29.3447739496639,21.9483638103367,29.6081782797179,14.583680592208,7.1614699638957,21.0452741455249,27.2432645290964,13.8267553120655,12.7291418965564,15.0657585753544,15.0395143208361,47.2714645384824,39.4428801541565,42.074393721197,32.7352729924148,33.2119667389916,57.1003027379461
12.4520915441372,13.5541899014989,16.557331888106,-1.70361626370288,15.4558249954183,23.7925648751715,3.730319733285,14.6197712220745,21.8607849810346,27.3275382815436,22.0148476607856,13.873321596858,28.3387696445651,13.0693110306293,24.1174179090557,9.44276974296337,18.4382856324715,34.0794535569157,18.7450058869383,7.7447971913068,7.86676586938087,14.5282378339895,6.95578322224413,15.2656802687575,15.3077578845331,17.7091009485556,2.59873534177007,15.5202518724291,22.2429167312445,8.7394847082318,7.61483508187947,10.1866476084967,10.7334411243581,13.2278487727132,20.0521930113176,13.4812257400957,8.47163437206935,6.45339207864844,8.46513146817521,7.42347534435931,13.7502306605813,9.349703301777,10.0741976115949,7.77719516346574,5.21929130277474,17.911663442042,7.25038122346867,9.17703072509551,-1.34076807426505,7.47129327237239,-5.72874711155307,-15.0073000793807,0.812738310513433,13.1361328432174,-8.81338683844677,-7.48163678685052,-3.1823812955071,-0.247272152859549,28.4407558811241,18.0046342365835,17.4117133284063,7.43113445738591,6.16129110981854,29.046780256825
1.77925762920521,9.74122105704911,12.5874418438412,-3.01119328199066,9.1209798948335,21.0815629902564,1.44416658007645,9.75150291528347,16.8553415889687,26.2832443010402,22.2794026751006,12.0548977996446,22.2192899342298,5.27377507379512,20.9980207472267,2.60962307472423,14.186973520386,33.0464455359344,15.1105508117458,6.03216525962545,3.09482622622467,9.11747807500032,3.23857080148531,9.70508065895193,10.211887103436,13.0118636768844,-3.16279395998221,9.27777152922332,13.6224398929291,6.24443391940601,0.407783112922921,-1.67226055764326,1.7420409116448,5.59445102323107,6.46780897902053,10.8295259994643,12.0134185389448,-0.612592168497541,4.13654684997835,-1.58754825942367,1.48085640918963,6.65104013690074,3.56177682826845,0.0849203625324276,2.56207949926634,12.32049667759,3.66155590608634,-2.36578820010629,-10.2712950873694,-1.53193569428607,-8.30029786242989,-18.5680714880527,-4.86652350104448,6.93967986466032,-13.2769434765493,-10.6653112909408,-2.57100427423659,-1.49565704060258,24.3699228020288,12.1123632249888,9.87846663144876,-3.6457698178792,-5.63056880582101,20.0517396777696
-6.00314902002878,5.31756277645247,14.8503163323214,-1.98289818294484,7.73075479766182,16.8523786550011,6.34332619963485,5.80357876939764,16.0712436764886,24.0045263235112,18.9607284084177,13.3968669038639,17.8839178581334,2.06996672998504,17.9557174312315,-1.21520030046277,16.6530184470555,28.045341153187,11.1477903404196,3.65878410173616,7.27076572382243,8.85103205552216,13.4238743201258,6.29586024138527,9.93025144880519,15.1290254786802,0.674454860013799,10.8231633585189,11.1551652401701,7.97409445337667,1.97991767722996,-6.92378370560578,-0.889959577512178,3.60138669663251,-2.74408668925383,14.0360395011644,16.5522589042352,0.547372087637554,-0.31352153223173,0.799297244789084,-0.60791387605845,6.54824750527373,2.1473880739669,-1.05624577440649,1.52274642880245,12.3082387801108,6.05830576469433,-4.57112629901113,-11.8054289091432,-1.32604006905015,-5.41166208734365,-16.1424110049891,-5.83480665170598,1.36415567385312,-6.49741829677681,-8.03852103823951,3.66682429058236,-1.53028016213664,21.1435176772719,14.024617129551,7.88880871567717,-9.86946820330487,-10.9600334296942,13.4430032696357
-16.1235682370906,-6.17859785762112,7.14841773195611,-9.65245321544608,0.329090371084669,1.96510451438454,2.00646886410793,-6.92951839407232,8.53906702270024,8.71647588520084,5.56743839057879,4.96507936933387,2.27908159840841,-7.44280917052994,8.63081886393549,-13.4021053427024,4.52413273825282,13.8102185925033,-2.13655816904118,-14.316514722584,-1.32867917304207,-1.530584101486,11.6680392519126,-2.93502102359646,1.94227309817784,8.44338244790402,-8.12544559348425,1.44672548872702,0.48678634871475,-3.190503220852,-5.41779592427404,-15.125819325656,-8.58542256947366,-1.80527824613744,-12.6724671171993,5.9949833918366,5.33055442506899,-2.56391880172169,-14.7779943915472,-3.56278263561182,-4.67721148922627,-5.83989170738421,-10.4677726827545,-8.73750785426238,-8.5666519085903,5.61308255934385,-0.376389600069402,-3.75741842894551,-14.5416248615824,-3.80261142621657,-9.30381677755006,-23.1747202719298,-10.3034598632385,-6.9780804550779,-6.00926732013432,-14.2534999129269,-1.19631332334283,-10.65773303709,5.09228049726633,6.33558156432272,-4.68584630562772,-22.3517506335576,-25.2862144918395,-3.84140738146394
-30.5581156499499,-23.2041263161678,-12.0860462923413,-23.1579984983061,-13.2920286666762,-14.5683553343127,-13.3564579528217,-24.3782816963712,-8.29099939619144,-10.2997191444103,-12.3531923385558,-14.2516820356733,-21.3044751449117,-22.8968740058781,-6.86633229842113,-33.1661914671149,-24.0682687302177,-4.16423369302938,-19.2598908938037,-38.6180641856228,-24.0628090361631,-22.8162055536858,-7.50990948202392,-15.4536553805295,-16.1137419414698,-7.78342875857252,-29.9143477709318,-19.606078890404,-15.8377708844531,-28.169127851801,-20.340304526887,-26.4944892141088,-21.0658712081509,-16.8952239722499,-23.608509929431,-13.2702710676771,-15.9155384139294,-14.7805879064595,-27.7489379150998,-21.4504094495075,-16.9055385274771,-26.4929235010872,-28.2559285248185,-24.8654288594986,-22.6805873332102,-8.02289866126776,-12.4219823256146,-10.4308038257999,-17.5637920305839,-10.7027176181168,-20.0863926188852,-34.1470492017895,-22.1305092582137,-18.5918756595959,-17.8355974795671,-29.7932018839866,-14.954655622012,-23.377302455687,-19.1771105836448,-12.8187962338934,-23.3907460346013,-40.4348236714581,-50.5707579163168,-27.4795044563464
-48.9944094947413,-41.2600463470286,-34.8882384982568,-38.4297176457987,-28.3952922248217,-26.8641536733978,-32.1243913460475,-39.1021015268144,-28.9692579826826,-27.4572394406448,-26.6847777900704,-36.4867522379282,-40.079740587548,-38.4496649619137,-26.4325008989246,-53.7631697445292,-53.6843309281114,-20.8195507846144,-34.7459291185172,-59.9825038624954,-44.1618006112137,-42.6411064002579,-30.7249065529214,-30.5702819496624,-31.5511213687168,-24.2426869142576,-46.4934561083155,-37.7850618741917,-29.557430172861,-51.379958642201,-33.4998682997583,-36.4422939210018,-32.4182826213005,-38.6974691107208,-35.016308115656,-32.2578522156517,-36.2013979921546,-33.2677706845316,-33.7069294980055,-42.9152289435511,-31.6892633354505,-42.6062502184403,-38.7624052027009,-40.263741929219,-34.2899520400277,-28.1369278603607,-23.3153987727837,-24.8745505998321,-19.8857026946255,-19.1626086930581,-36.4778530244246,-39.9086773760416,-38.3953460925922,-32.6191538441194,-32.6676344274702,-45.214940141916,-28.592457541345,-29.7287093990749,-44.6484186218958,-31.955024223733,-36.1742505790861,-55.9098129878779,-75.0939860738433,-49.4104189773323
-74.0154328494087,-60.8748966390553,-60.1148024665121,-59.516652583526,-48.8175186203407,-44.389243192737,-54.0528442416648,-56.7051256031301,-52.66728252446,-52.1103258898368,-41.5551387726204,-61.0889393803763,-56.3423430825391,-56.9089931907845,-52.24616324188,-73.0791418155026,-84.5056368351074,-42.1725299469491,-52.077178958907,-87.3064051364562,-61.8480174100916,-58.7111403824403,-52.4453076104914,-55.7432352000089,-43.3550799983131,-44.327264430874,-57.2757335401934,-53.3870226429879,-46.4179633432124,-70.5170058095707,-48.9616296843579,-52.012001352215,-48.6148264816585,-60.4295788542799,-52.3381562231246,-52.2649577541776,-56.9505488418287,-58.8691308002805,-47.8392068058717,-63.3126515291596,-47.4936298134454,-56.1082186596569,-50.4767806420737,-53.0062801028604,-49.5800143496399,-57.4370371908262,-38.6080564382792,-43.0404641095065,-33.0692997997951,-37.1237742289495,-61.8107900704622,-50.3258858255532,-55.7141281409247,-51.5927331130682,-46.9340036657239,-59.9054334253894,-46.9306354226522,-34.0858625899609,-78.4328873727853,-53.2210114087645,-51.0751107729247,-73.6059690953048,-94.9682563727174,-75.4679943093628
-103.218566626184,-82.8666928783421,-86.3100217716929,-85.5282758433169,-74.2678643843217,-70.3167236792369,-79.2553419703809,-81.3720018649166,-80.7317052481414,-84.6942814128423,-61.8830378187238,-87.6642489098264,-76.5777295302845,-79.8352312517636,-82.8981018146232,-90.8592263522835,-121.799868746903,-72.1391517971491,-72.4367414564875,-122.544613640251,-87.7304316016424,-77.1550527688288,-75.1468667094586,-86.8576498474546,-59.5151881011812,-72.6183620740988,-73.078216850087,-74.7916697267714,-71.1013022525133,-90.8599707992011,-71.1597747565477,-77.3743646804965,-74.8172244700762,-77.7499689206736,-77.4588700311692,-77.5717214909649,-78.4055055740252,-86.1477751591806,-73.0972539924063,-83.008402617751,-67.4452464617433,-76.2559014126377,-71.8830993075515,-67.095727841961,-71.6020896868881,-86.2023481934106,-60.9076151575211,-65.5939287448142,-59.7668698558424,-66.7576708500245,-91.1172263018215,-69.9286100772933,-75.8115203395525,-75.460653825292,-66.1756890000662,-77.7931425258719,-73.698180189194,-47.4580726401886,-119.390112507056,-81.6517735331362,-78.6832396648607,-101.188775061304,-114.075071180865,-112.420082326518
-121.075375971103,-100.356614014258,-101.338350238688,-104.043367095541,-90.0900099615554,-90.4899505084713,-97.3159524158327,-99.1352151036553,-101.271258731653,-108.192999017734,-78.8803408003815,-104.539409583605,-92.1593485092664,-97.6981145569103,-105.186287933544,-102.675621417989,-147.634587122813,-96.114249823768,-86.2742802131217,-144.630352782529,-112.761362629691,-93.3089394198815,-92.6597978307577,-105.980927960882,-70.5030155082432,-94.6352350699736,-87.5234324405957,-91.4743922094072,-93.1718389572707,-101.712504576719,-89.8678481495474,-96.2805159229542,-96.4307800801004,-88.1312094461722,-98.0219905002729,-97.3786658146436,-90.4840618578325,-99.6692915840805,-88.2402219728024,-95.4692575408856,-86.1785617218347,-94.873178820685,-90.1299409358346,-78.4897432114186,-88.6935458630009,-98.2885164661459,-79.0637068347814,-87.4248110660504,-79.922047881506,-89.7891193107712,-111.302966805278,-82.3771725272725,-94.5655747753666,-92.3652658398251,-86.0754503670949,-93.5695816912217,-95.5821128806373,-65.4792250208514,-147.070730065323,-103.28808328329,-106.319481325335,-125.901786769822,-129.865295645404,-145.829697228119
-120.208158166271,-107.528068817384,-100.611354344056,-107.794847261315,-90.4291528239446,-96.3739284019138,-102.047322878642,-101.697655573232,-101.936362221103,-114.201741399409,-86.5342311399764,-106.750696298592,-96.2179975268238,-103.602014663583,-109.553794756498,-106.214371993096,-147.267731839229,-100.856186871228,-87.2541128056617,-143.217642658036,-123.504450802435,-98.1327258707072,-96.8089753729782,-107.245740264722,-67.9907440532016,-98.592866036288,-90.4428582255792,-92.4621952963526,-103.484546621795,-97.5298937394796,-96.0822656518658,-96.44507296905,-99.5948973042304,-90.7735549101072,-103.066573503768,-102.636899012935,-90.5278626963467,-96.6159368159628,-86.6814458877411,-99.2086390203346,-95.8751662708284,-99.8137842482646,-95.659304809534,-83.1040515647518,-93.8911384008106,-96.9104769063882,-86.1698710590723,-98.1257712216406,-82.4702942765262,-93.4954403097149,-118.185531758726,-81.6684672341246,-102.383450715687,-95.3271296256887,-96.1045319045455,-102.195571060527,-102.449132137831,-76.6653098413051,-153.111789772906,-109.243269631915,-118.460220323876,-134.799288338949,-139.258909741747,-158.443242143056
-108.948921980937,-101.597002879958,-90.6545411242346,-96.0855117613678,-82.187406032628,-90.0042296314504,-95.231712473465,-96.3248789020257,-85.0294108967784,-106.184882625166,-85.3512465906148,-100.240578922344,-89.1182813019149,-94.9436763918187,-96.9941933412142,-98.6294712225108,-129.484066595354,-89.0843446629075,-78.4819106198211,-130.218628667517,-116.800229811699,-88.0280622103612,-85.9305846690204,-95.0060744561095,-60.0276383637506,-88.8238673452982,-80.702793348382,-82.8170985895113,-98.7195648128818,-86.8368200763606,-90.0795285672719,-82.5998506685858,-87.768734669503,-81.1302430792053,-92.2655343646472,-92.7138185564715,-82.1188773076494,-85.0216146013667,-77.8256956018852,-94.8646177610226,-90.8626756932445,-91.4712513378902,-91.211867561824,-77.5677982791082,-88.1275624491524,-92.1232414378748,-82.5542037041172,-92.6026732092051,-75.5313016001881,-81.9224081446095,-114.301362384961,-74.514926755313,-94.9106651238578,-87.6894173839932,-90.9744805639546,-99.1642175837045,-95.4638666739374,-73.9386493635198,-144.74772191422,-104.728149719785,-113.835006078068,-128.79308975783,-137.868988184388,-149.686603503852
-97.5548469478889,-87.1024619174245,-77.3604955297814,-73.777032031968,-72.1800248738449,-77.6112488503937,-81.8579390497972,-90.1102932471542,-65.0106086463166,-90.4796875747287,-75.8430779030565,-91.1317331994117,-75.1358305532161,-76.8503629409107,-76.9905463461742,-80.8833488936849,-108.237923593323,-72.1306729320739,-68.0692910107623,-117.084377071804,-96.7869231110822,-70.5557106396544,-68.5813321254331,-77.0510318022477,-53.4109835690117,-74.3105743897985,-63.6364142486103,-71.609141732956,-83.2520601656817,-73.7860849444935,-77.5445970239719,-65.7170487631445,-74.114894599785,-61.9813847171247,-73.4863009802476,-73.6168641802658,-68.1635783198601,-72.2515235898282,-65.3363874055666,-80.9402161804454,-74.4830425779276,-76.0497669308045,-80.9352164212646,-61.0903772424484,-75.8207328162628,-84.546222127516,-69.7968524022943,-79.548421026053,-68.7556861261322,-65.6974840500854,-104.897307377866,-62.338801886965,-79.3861477177385,-76.2865257580625,-75.3605622484257,-83.3215993605242,-79.8898553147102,-58.8904269629131,-126.819823385114,-92.5495453735972,-100.0625080351,-113.625178661439,-122.299208162219,-130.44760053273
-88.6035304609103,-73.7067667073888,-62.4438895857424,-52.0174381210472,-63.0603516922914,-67.3347625405549,-67.0777017793695,-81.2356589073347,-52.0760542696622,-73.7766174812078,-61.7400047217545,-81.2163288761424,-62.5029779643377,-62.4114591737074,-61.4552513475237,-62.9405668005931,-88.5270966072614,-57.4435640055249,-59.8874075380002,-103.391685899922,-73.268716098998,-57.2519661634482,-56.1253683921427,-64.3455782297377,-45.6665886411438,-60.7436419827961,-48.1074712659419,-62.0071385756386,-70.5435348357514,-58.0207987254157,-63.5112360185069,-52.7778896582924,-64.7249284188835,-48.5246749049853,-57.6938228375446,-56.7707710523301,-53.7482492720609,-61.491582960917,-53.5292865721278,-62.0865246010244,-58.5450978254863,-59.3548416577177,-68.2237183908376,-44.2438344797224,-63.9056888510448,-73.3452610347484,-49.7466260748044,-68.8973451817534,-62.6385827595303,-51.7520119338439,-92.4050178054832,-44.5722332524184,-63.0671479120535,-67.2421765899899,-59.3935195561427,-64.3690378803289,-63.2339114557459,-43.4183099232718,-102.273136100413,-73.6744022682786,-82.6227742049924,-96.1480482693279,-99.9741071131235,-111.552479836825
-70.6273790697541,-53.0082534012224,-40.3638158272327,-30.0863772609481,-47.4240032628253,-51.8824799998647,-46.0465926515376,-57.5415673019432,-35.5968987573723,-51.4343515089093,-40.6805657269804,-61.6852958115512,-46.1355912091173,-45.9011569853308,-44.902679543619,-42.8392089009949,-64.0832305663057,-36.2596686689457,-42.4393621420006,-78.1591975093902,-47.0445165771425,-42.0046576235669,-42.1146437630417,-51.8372282881731,-28.6932097058636,-43.3357862395575,-30.4348356741644,-46.0167629946578,-57.829993812199,-36.470266098873,-41.4701718912578,-36.4359371194796,-46.3141780119805,-37.797607854597,-40.1902330847809,-39.5086411681208,-35.1489077503172,-42.8204258156688,-40.367316029793,-37.7928506116511,-40.3485913871713,-39.8070961811504,-47.8780421201145,-29.2031844340247,-45.6699339221382,-54.082042996871,-19.5642171986501,-49.9819457747125,-45.1021420131003,-30.1305479591396,-66.3991277919939,-18.1815621479208,-39.5559575148621,-48.7244074156118,-39.2336373213065,-42.0938076263348,-43.0842183160039,-26.8167565635553,-70.4426993676276,-48.1539601884408,-56.2528089968886,-73.9241401738498,-75.9629918631619,-90.6839425744946
-47.7231534388613,-24.1586489538232,-20.0551003246561,-8.7940798410243,-29.2973246344812,-28.3452787499417,-24.279085770447,-28.0053550734615,-15.1315067396538,-26.980687806688,-18.46630030025,-37.4741247410374,-25.8595011144371,-22.3018344720941,-24.0378206950579,-21.658668493084,-41.0854919528232,-11.1187748430405,-18.6816657292734,-48.792622433837,-23.2268979368423,-24.8368066329675,-24.9767376154655,-35.8028611592921,-11.1269548529759,-25.9422433245557,-11.6264916843929,-25.9418792893365,-39.3767679597152,-16.972494754501,-17.2683200657625,-18.1242069687351,-20.7797361731789,-20.838742791822,-17.7151857329051,-22.2854899130768,-13.9790047529769,-19.8659892269636,-25.1629645459289,-15.1454746083934,-20.2833966348354,-22.6694318846595,-25.0634100172729,-14.5618709156318,-21.9044903195046,-33.9802032131984,8.94674148233631,-23.6815694036859,-22.1687279794909,-2.45309271808482,-34.9162800597471,6.64193403857121,-16.5732372986083,-16.8190889932318,-16.1430704022348,-18.0604415572155,-20.5692987705256,-5.72233241356078,-42.1355551892515,-26.6662878315731,-30.7827893053484,-49.0707042889358,-56.2270408001034,-69.478202393718
-44.4564148779871,-13.0491163841415,-21.4174147788245,-1.41813008441693,-25.6647725479962,-16.6802159330573,-21.0126902754226,-21.6284347089291,-11.8360415126683,-17.9870618107022,-15.1698037305457,-29.4420992902591,-19.8137388645065,-10.9503146924266,-17.3468907748436,-17.8534923175436,-38.0912008457536,-5.36844721495196,-14.1744818314837,-39.8147132384253,-18.1896730226348,-23.3428814094337,-21.405843962643,-31.2773925955444,-13.5577254366433,-24.4848820162945,-9.41092255527717,-19.6062817871858,-29.4945552533799,-17.4413688224388,-14.6902119949681,-14.7268769611714,-15.0464594088878,-11.4608618118952,-8.78010053911502,-21.2121891725365,-6.43921724077905,-16.2315495071877,-21.912555089617,-14.8710126115918,-15.8020149141234,-21.601423510679,-20.6693070800463,-11.5139050367059,-14.1777151420479,-32.0395899310003,14.5721839659385,-16.6480978127344,-20.1330410519157,6.16089788408863,-27.1855395426287,8.6505898724858,-15.2456018100101,-1.05619747341399,-11.022291641943,-11.3180874476316,-12.2786741242935,3.5762724161158,-36.8077613451878,-24.6181332711473,-30.0164143383813,-38.5335178084342,-51.4602812567631,-61.6050105534657
-53.640335209601,-19.2236259195687,-32.582736919941,-2.87540990922363,-28.7649157491475,-19.13739785464,-29.2839588762854,-29.7932359951254,-21.6131678818751,-19.9138544120877,-24.7469359166825,-28.668991572006,-24.9495134816647,-13.5040905317163,-26.5546985383902,-26.0020747123934,-43.6877719348529,-16.7900816416891,-24.9541276487802,-44.3040079416103,-24.2403869630186,-30.4283599401955,-28.2571439700192,-35.9404046086767,-24.8653212804055,-31.1201412958844,-18.9575785305056,-24.4827734330964,-29.4077913594525,-30.1435576961469,-28.2590123003802,-21.0661765915109,-25.2393256462003,-15.7828977462756,-16.4114289014444,-29.5832048797479,-11.2063408262573,-26.3715894411407,-30.085303700495,-29.2419218775867,-23.5906049015794,-28.2484111372416,-28.3798389692767,-16.6041723597576,-21.1073456641569,-42.3911610847589,5.39769803800231,-26.9100575092912,-33.6318676459012,-2.87437573289671,-38.7945819527486,-3.81615842272169,-26.1492192796965,-11.6398129957514,-21.1075638185846,-19.2246910056653,-17.2339764381706,-2.16836487328805,-42.3366697000888,-29.7223695252957,-43.3706889947151,-41.4034025174347,-52.991182665429,-60.5448062337291
-48.5064062371917,-15.4459676198429,-28.2399972149524,2.36772528096585,-20.8874709154359,-18.1002159619817,-26.8532128268014,-23.0749228398285,-19.6996760202316,-16.8023188630671,-21.1118904251081,-13.8962971495623,-21.6131396696399,-9.83676647209425,-28.7195556085592,-21.6270835814104,-33.1291980495279,-20.5263518314342,-23.9919212065099,-36.9986926501029,-20.0158854496289,-25.3180704237841,-27.0838456511283,-31.3889890228332,-19.6225404457704,-25.6485484963187,-17.3816623132267,-21.6037186723072,-24.3163109689022,-30.775613467933,-30.6557863250033,-18.9751050775254,-21.7108774982209,-18.6714925964948,-19.0042683034205,-26.4128439582201,-13.5146077075828,-24.4896666017255,-30.5518213065967,-29.478449130412,-23.9855888076256,-25.3192260046987,-25.462593529196,-13.594914515211,-21.075562524827,-45.6911670723462,1.83791400833362,-26.4123994134546,-34.1010173684003,-4.67466789962348,-39.710450483356,-5.51188327122788,-25.8111546331388,-19.7846481750932,-22.0714012856135,-17.6531030245439,-16.0931507075412,-4.37080030869318,-30.0452051266325,-21.461435525936,-41.3838385340871,-37.8256626827562,-44.0693823026384,-47.592952086663
-31.0339593923628,1.88299855840894,-9.28028216367846,13.8113219688774,-4.54925337687326,-9.30465037421346,-12.1995510347605,-4.13554301434832,-1.71755639546337,-7.5021880524382,-1.50106504081413,5.31779969431815,-7.77230204613918,3.64101669806558,-14.3753264912265,-4.17904314258237,-12.0996697325059,-9.64355454418899,-10.2332181835355,-17.6055390601652,-4.09884282462139,-9.99759247189844,-14.8946518913056,-16.4263466495155,-3.7176096899943,-9.38267233671298,-2.96428562321263,-6.05927126946683,-11.931303371183,-14.6905507878994,-17.6061912325881,-6.72414080705333,-3.28275974353982,-9.09840971303789,-8.08985336987594,-11.1771155609106,-8.75866333987766,-10.3340705291283,-15.6855363499328,-11.7071132105266,-13.3513858114852,-12.7469873218342,-14.572394617439,-2.53685810962765,-10.1787841950564,-37.9380753478195,6.93698584510886,-12.0520015060102,-17.0576494669983,4.36275586222306,-23.5777952921587,6.49288913663704,-12.2527246189358,-8.29580971085242,-9.68596881589473,-0.447504638994163,-4.19674754317498,4.08833003211832,-1.57511260954951,-4.32665154157216,-24.4446670227249,-19.804329377902,-25.372406429346,-24.4399740918641
-17.2329725607417,18.4291071102086,9.31204040078626,25.4465861240731,10.3940054027763,2.92714135825676,2.56039609987478,11.6339908337145,18.728617424808,3.66692112731526,15.6546444865075,13.2801297460539,6.3482351831167,16.7753256560693,4.15550385935198,10.6843279485673,2.07812119754833,3.85717260731384,0.605296389503764,-0.403822038577202,13.4077942400476,3.59463026367051,-0.822391774751265,0.253927966762632,3.51356499569484,5.09147504941016,10.5297564093699,10.1791991787554,2.27154170923069,4.75174732113984,-1.76073714985975,7.75125620648173,8.76036971605691,8.39800511518915,5.20986888471406,6.86175069140972,2.96782040176805,1.93031663663418,3.16279332484275,6.42826904258077,0.770922279526983,2.40389776540781,-7.6796951364439,6.41045103521589,2.68745750251427,-22.6197984245296,16.7595504198881,0.306418380660243,1.2485236384019,11.9318361423557,-5.99710624142213,19.5820916189141,3.64231666036982,10.3441527328043,5.63899727723776,19.929221374833,7.81216696878148,14.1418260364251,18.8271482293948,8.55712463079615,-11.5499516573649,3.06206595459763,-6.38939695222388,-4.20541411747248
-11.0859059292673,26.4267397211879,16.975498868374,34.7321089588373,16.5937736687611,12.5559425646017,7.39062298154254,20.1324293630018,30.2163325172493,11.5570439022655,17.2341781161697,13.8796685464342,10.5674180015143,23.3337075999569,13.4489682018479,14.8996270451886,7.64676334210591,6.64240498660341,4.2555588724403,7.22372923087729,23.3042294983579,7.39768353466248,6.094066946507,12.4736403229669,0.185501777062598,12.3137471609368,15.2779561651617,12.0557083503415,11.1925986813104,13.8635189643206,7.3124988611294,14.9939504409979,7.33400654889329,17.9154941078999,10.9760753712782,19.3525417933383,13.6158954697453,7.41092190800924,9.95896254993131,12.3873632076085,9.52938800901475,10.4178069882327,-6.57391632112368,6.98083588150697,8.93570713484824,-8.67744999433449,23.7904554949207,5.45328211317678,9.45991374200304,13.2035720868091,2.77885770642001,22.5724743236408,12.7889207003979,19.2836010776518,16.5855666249142,29.8353164269748,11.6583643769916,18.9279457628071,20.5374085497783,13.8712519811097,-8.97940158381174,15.936232161789,6.09054041185588,8.29859487851541
-5.19085275156209,28.0533295796331,16.6292394535438,41.1511647564139,14.6773062762464,15.1730536446025,4.91741305641856,21.124466342505,34.3826019378525,14.7946484031503,10.2351155115646,17.099910792547,5.09228970593392,24.3395509128806,14.3171886303098,11.9889129082763,12.3751982552684,1.30339334550748,8.15654272787767,9.19374261137042,24.9560642459012,2.16718698293277,8.00541210843093,18.2703131614873,-1.92779187437709,16.0862237428986,14.897747366565,4.16329668919959,9.79663322327056,14.8361740252623,7.43864753749994,13.9250213080011,4.84510453728458,13.230492543496,12.471768584087,20.9377051841633,13.6694952987281,8.81968032045751,4.6394250819844,9.87431013445669,9.37241729484702,7.35006983722929,-7.61693553434242,3.16681733109709,6.89648107885395,-4.41499242779245,23.2818229562469,10.3734233609482,10.290854528913,16.2594709259534,8.1259491948889,16.2347630317521,17.3533639349808,18.8692874543369,22.1501604337462,29.0476923627797,11.6032884092303,22.3440354603949,18.021080050545,15.033665035257,-6.92055288740828,18.4501438443638,13.7546997673938,18.2703092808247
6.14303228911232,29.0034111660882,19.4429740624681,45.2385697452916,15.4118952923336,16.3558971437988,8.45583572777054,17.7649384162478,37.2345244964613,18.6907293669323,9.59592495758436,22.8676923921888,2.20999946466125,23.5355559767318,13.6716205868462,10.7655399376244,19.5531569013342,3.15705994776138,16.6225264147798,14.1847005571497,27.068246378456,-0.802328911735158,12.8199022932218,23.1787606649713,5.32394047361832,20.5798079092986,17.1767767402349,5.63126896178812,5.52409228477878,19.8004051968494,4.8159957778158,14.668991931805,10.1310244754161,7.87137311467462,16.9213563843998,17.1675868361565,12.2023372800049,11.500080383948,1.37961955802327,10.0476247095479,7.54633764822481,6.58506123233647,-2.23089202982947,6.43068924942322,6.9798921201426,-2.03549609492547,25.0017173610114,19.4893613162848,12.3461672298339,27.5833215737582,16.2695530726572,13.356962588426,24.7673923835824,21.1655787116174,25.3832715726703,29.9210495614331,16.6000971100593,27.9712195178779,26.6153782850055,12.6070042052364,1.31857087005896,22.5506021499807,22.8296996978595,29.0246108792196
14.4274406726389,28.2574596088399,24.6678290998219,46.9435887973962,20.2988192350864,19.0879984327436,19.2669164981094,16.298040404491,35.2706348477856,21.893836133832,13.9863877163126,21.7833606265141,6.72638031504841,21.5870509201283,10.4771667976932,13.0173488378091,22.7773279503186,12.5746726934711,21.9758639629363,20.8447312181597,31.6219049710092,2.37672398919485,16.9095227843765,28.2255396387103,16.1219817157157,22.7146831483231,21.620950397554,14.3754784235831,8.11431214506482,26.3087930130149,5.71884353852702,19.2297143365285,17.4037617107821,10.6758728185746,21.7447665018566,16.6641814670444,18.264379204694,17.8825837246318,6.04750003236628,15.3686424673618,9.8480424114374,16.071676306201,12.0287086493208,16.4858966426921,15.5298588094588,6.2552785428144,31.2068006869791,28.5252363501595,17.0216744114711,37.1674087668934,22.4842850863761,18.2944981955241,30.9879968474663,27.967414517736,27.0819112979477,34.5077845376963,24.9186913098411,30.6572951255131,40.325992616073,5.22818902283862,8.85099440035207,27.5233643794963,29.882093446937,35.6110208085206
12.7533426802211,24.8631546431582,27.4086734910458,49.5285969402948,19.5888353379776,19.1505538197051,26.0695244406211,19.8411045511562,28.7214718251892,18.0092911757787,14.4306768188053,14.5567842438629,11.0948397882994,20.4427950344941,4.47153967156334,13.674805561237,20.0127012244028,17.2043733551738,18.5975893375132,21.5504290188766,34.4924344023714,5.75235816267153,15.9337617321832,26.9011630643605,20.304411067227,21.5644414589237,22.9623811047401,14.4194614242332,15.5029601367531,25.4011157190433,9.31622414642208,21.0897531898683,21.6699317281118,16.0833110389992,24.1318180930376,21.1947146340464,23.273220374266,24.296992196258,13.1817764560443,20.9833472308219,12.5460202141686,22.8047729294623,23.3645704503831,22.2294045445174,24.2532470005966,12.4472447553891,27.6315056641133,33.5696836937286,19.2057134281567,37.3842325679893,23.0468133009419,23.1204432103241,29.8520762767014,30.6642703688599,27.63023091221,32.3870418291526,29.6612813952026,27.5638457027584,46.8850907586963,1.45007489899326,11.1380492085433,26.4069780194661,28.696546298044,35.8781650792354
11.2225570569686,23.8936073676255,30.0404286006371,54.9720670690173,14.1111932236162,17.257274998519,25.1700767617706,23.6362242552969,26.0293112577195,9.23597107066277,13.6598448424691,12.5912008105587,8.05076578566009,20.9599600027655,1.54326300478567,11.423405868401,20.8199828498583,14.3657437987133,15.0292130994672,16.9680862789273,34.8670552861953,8.82014672990223,15.7865497850595,20.3423527156564,19.0348773613662,20.7740218426551,21.9700866513435,9.28565267501473,20.1814365568222,21.2131526704018,10.8290868286559,19.9753166059104,23.7724173803781,18.9324874180724,28.5714902489367,26.6488341709339,21.2721638539962,25.9632273950503,14.7033146193097,22.6049191702983,12.2727336896023,16.7908014705237,22.4435487853867,21.8570019091771,25.6798769093648,10.2428636645649,14.6031112507912,34.1867684962132,18.0789717972528,35.1442824020711,19.8269828264485,23.5793187121845,26.1740571844954,27.6266355049113,28.1879293848603,21.5987025906924,30.3954259918084,22.5342128556395,46.7656241778646,9.15288701408764,12.8534265530977,24.0554489017701,24.4713026248217,32.5813179152718
15.7408264890013,23.849939681209,27.7066412462352,55.9367577590619,12.2255372261229,14.7205129586192,19.9507037352804,19.489183546722,23.8897754732459,1.34063926708535,14.6948979159859,14.5584693657649,-2.73989745211414,15.3212939046862,1.8375172624222,7.80999165543338,24.6775281025709,7.25420558602732,17.812607867704,11.01866071054,31.7020061383988,11.7387964299832,17.2585330024301,14.3629554349439,19.7956421239487,16.3485612251261,20.3797805905297,9.57107543349741,17.6760956426045,19.0710276508325,7.20903216417685,16.9804344502338,20.5165940504157,15.774816520129,32.5926659524249,25.2001754323773,16.35208737579,21.1298740171381,6.06679087771345,18.1514472231617,8.94837007705237,7.3601483036504,14.4441506266361,19.3758294427171,21.8834170502087,5.30633258624815,7.43910481337032,29.714040492666,16.4905187820187,30.6247826062504,16.0870008992776,21.3414611404021,23.5302129904491,24.2059411028024,27.4149046203827,10.7998176435252,29.0637388339966,16.641357579689,41.9833528875559,17.3316551941657,13.6416317995348,23.6045972887437,25.1585340179739,24.2614600111004
14.5161480736837,17.6544725206142,13.2520837552399,44.0044587236401,8.62474079745108,8.25083842205947,9.79837293429824,7.46189035783385,11.2393645278097,-7.61910355617273,9.5848147283515,9.59919383774794,-14.8325652507455,0.273613996843687,-2.0839680695954,1.46116423549261,14.1476787343847,-4.98658467790596,15.8623520105612,1.9646845123928,22.5976321144149,8.20048229754406,13.4166750970127,6.80921960071623,20.5204600817823,2.99785954106621,13.4700846304688,8.15017488756552,6.19480276879196,13.7738058170601,-0.600084073787655,7.67754102764347,8.23508542071998,3.81987973240987,24.2475620781407,12.2957982867957,8.29050096102021,9.28342013222415,-6.7236862970342,9.40932093810496,-0.824755774355686,3.22911250065924,7.57537568012522,11.7257926058955,14.3193264097206,3.20092035906779,4.73099491266528,19.2218710387635,12.05208237831,16.794612126777,15.0100436526342,17.0395713176523,16.2526986236551,18.6213237190127,22.2291252409734,4.74575838160251,23.0365179788574,5.24933088925099,25.2431701133281,9.16837532006142,3.9994649742239,15.6787076103148,27.5102373624904,6.53623657182098
-2.98196305936576,3.35445829479839,-6.86544643270404,19.011179871769,-9.4613279004137,-5.27218397367776,-8.10250972420581,-9.06746848779732,-13.2911405376754,-22.3463329174213,-7.75913899163965,-4.36919235848372,-25.6220036814916,-16.8424330461336,-16.4830941840568,-10.9442823310481,-15.9414595239023,-25.7110667214056,-4.27578397288895,-13.2111082780502,4.34362379715433,-5.12410546515746,-0.728956388274363,-8.04948299232296,11.2828353222769,-15.1145867767579,-3.78583978203327,-6.19871776741777,-12.4174844625111,-0.824541535245906,-11.9933393119241,-10.774047459383,-8.35601179035828,-12.258127667382,1.17956948109882,-9.2976806586767,-8.39864849876035,-8.7013930053626,-16.101632208184,-2.01022610763768,-18.5981965483741,-5.09617679499684,-0.454450011798591,-4.14594466666742,-2.16014899816252,0.518778875996346,-8.57213929382883,1.10362907479493,-1.21005623970702,-2.88102254735273,9.35227656872789,7.98242879073298,-0.012505405475858,1.94371734066055,8.86532849977502,-1.40472077323521,8.37595433431015,-12.851068918985,-6.34081833374431,-17.3808755439356,-20.3217707338438,-4.73409599881464,20.1617983967942,-20.5195700057533
-26.1677351800156,-13.5899004309148,-20.6599294365678,-6.82437429931213,-34.9755527874549,-23.2173585780476,-25.735134293191,-28.3943190789457,-38.5450808610473,-36.3555839121358,-27.4229245707797,-18.7434595196745,-38.0428544510484,-29.9096971230239,-34.8423482805359,-25.3078181340223,-41.3008746459345,-49.0248353161536,-30.6708149471339,-29.2267256688613,-17.6948857803214,-20.4605197295343,-23.3769460372226,-24.2236248847652,-6.66616622169216,-30.4817631437701,-23.4592073221662,-26.096608425124,-28.0668473522306,-18.497147498414,-24.0760684014262,-30.4117576347281,-18.2231996982944,-22.2676093611676,-19.974305677134,-29.07680910528,-28.666818104494,-23.6009864401751,-23.0512830231238,-14.897563912457,-33.4062693394372,-21.5891617805329,-12.1786034472246,-18.5427783677289,-24.4004987606992,-7.05717486816376,-30.0834384441325,-18.8927630298886,-20.8590022339811,-17.8090730817097,-6.97422026989574,-5.02709331893762,-17.6841696266208,-20.6536625618239,-8.7830518075217,-11.5326786939125,-9.14268363658967,-25.6348367819434,-38.3591601321396,-45.6815525247353,-43.8800011926907,-23.6984978987445,2.50497828069957,-45.1540057024983
-31.1725189412416,-22.1630247036155,-22.8516151124831,-13.9414692655725,-43.5328452601336,-31.9916353958389,-26.0652970640526,-38.467771073868,-46.6702126738536,-36.6341296140511,-30.3826040771954,-22.3381174819692,-45.1993232372238,-32.7257135466963,-40.0639463765607,-27.5528196794421,-37.5200100251588,-55.8967336068454,-35.9070009779405,-32.385938762241,-23.2836853731966,-23.6682933641061,-37.8961395678411,-25.4149883827513,-17.639201362314,-34.2176468476249,-27.3885666552331,-34.1786786365212,-28.2845346512018,-21.475874800517,-25.1573161369184,-36.0782565472257,-15.3059449999045,-20.0910271371999,-22.2149261894878,-31.8461702770866,-34.3682795768016,-22.456422539222,-25.470254954592,-21.2552185392842,-31.501318141704,-27.5242875582295,-16.9075097307271,-18.4111228698524,-31.3960494038417,-14.3888355101977,-39.9366488775295,-25.8837359098327,-32.1847600001188,-21.3127234725948,-16.9202861268095,-11.9094100855347,-21.310412135228,-27.2759035990783,-14.9578689399159,-17.44688230425,-15.0282448995477,-20.110972416802,-49.7176054658447,-52.3233800169272,-45.7055768578423,-23.7743171372213,-7.20928412009568,-49.5877655146056
-15.2710489306188,-18.7636555655709,-16.6908206216956,0.487622300392016,-29.2901422703886,-23.4152390343775,-9.03851598653466,-27.8346819266943,-34.4826159211458,-25.2361680089938,-16.3589970159463,-14.7916011745065,-37.48575538546,-22.1929978713798,-29.4711609746936,-13.5942241399521,-13.6433020222595,-41.9938743350879,-18.9202060241175,-18.06667345977,-6.20051153332028,-10.7140562359457,-26.4110602211668,-9.95098180818099,-14.163163010177,-22.7825136317356,-12.4600121609787,-27.1372295922087,-16.6556249270811,-3.68517063329319,-10.3573639197347,-23.5681488409376,-7.77076803508132,-9.19517595018595,-9.66037273129965,-17.657433732596,-20.1189443725702,-7.93445334690048,-16.2441709023936,-15.5718510532335,-18.0872819851595,-13.6685099724731,-9.07368636133723,-9.19797712232766,-13.8935996888902,-16.5772992350582,-32.2242592046909,-19.6910874167556,-26.9513757389665,-15.104730113662,-8.14243122578521,-6.23952876339596,-9.23415563292496,-13.5176752553083,-4.82403479429064,-9.65751353448514,-6.65112048826994,-4.94725539402108,-36.2939317858988,-33.7391760759918,-28.1810069740457,-9.14724137121634,3.40115041476806,-32.2568763847207
-0.198261868569924,-11.4360129006344,-5.98042178080107,18.3617168117918,-10.4320557604071,-10.3620719566144,6.88092898421134,-7.49155953614483,-19.2888381069396,-15.3302973545573,-5.24377734868227,-5.32623327432877,-20.4839641902943,-8.01432334261633,-16.8520054162918,2.53063390146087,7.08267477860389,-25.9914102843588,-3.00532648240914,2.80606453249974,13.8121574973163,7.16584731396181,1.33619103556392,6.53279844219399,-6.27446315178742,-8.5568459876579,4.55189188905768,-15.0812544607644,-8.9076525924787,16.3553856055113,6.93007885582601,-4.6235218720915,-5.01066235613306,2.85667859164959,2.07694022525569,-4.50531651589289,-3.70193760573472,4.98771642241827,0.0792435448751966,-4.81289502032528,-8.21903463098755,4.0250771791891,-0.856147197953259,-5.22201938802439,7.28602682858794,-16.3932594042817,-19.4841811999713,-15.991148050162,-14.7812396706943,-5.67654377848527,3.61141387876354,4.81613786440423,1.40181957408152,-0.15158546677075,7.41261784652326,6.36881361189682,3.98206769516165,1.64793106531739,-13.9668350158273,-9.53960439299236,-7.94127644559579,3.44198966147487,21.0828488232713,-9.57568537532272
15.2534219719284,2.87642568799392,15.2116013358919,34.8471112178663,8.19870196934977,1.68591794043711,20.4045454460333,10.7692588208425,-3.53446115899742,-2.7067228763323,4.7383751662694,8.73816994929808,1.03121785086843,8.33945443375018,-1.98323051543762,17.6179867309808,28.4743212990595,-10.6657422288633,9.73975535146855,26.7370333724524,31.5274260910888,25.1386594775956,25.2865123441673,23.8751499780692,2.64204744788296,3.06890444221156,18.1025608424865,0.917743703492065,-2.00203425544022,26.1054045288303,22.2157346687998,15.1049756460887,5.1719885080244,17.6799857611869,15.2338031456535,6.68523837271705,8.14714108727629,18.1926191622468,16.8493614588359,11.1472730725833,4.7405612503337,19.1867879094896,7.86788231755319,1.89883126719773,21.0109773514126,-8.92100033385106,-2.90389413712389,-8.17983881855113,2.7078734065895,10.7661955465609,15.2880305158982,19.1263236558983,9.97610088207275,9.37084838853104,21.1732714620832,24.0301281333524,17.6921268299827,4.7290319420396,11.1057250298348,14.3067608738549,16.266300797833,16.8799208521915,35.1715417673262,15.288389625669
58.9353409300139,40.5648444225332,54.0426853318275,66.3704679829662,42.2798789114376,32.0226766759939,51.2267749600237,40.4454216676084,31.5778440831761,31.3187698214149,38.09846999559,40.952982739083,37.8113229873395,43.8326796674087,31.8571991380676,50.3098620234548,73.693572966412,22.8205683219365,40.8073347214108,67.2607907235609,66.053191312491,54.8436859135641,52.9976495355986,60.3010389796366,26.5346297599383,31.4040506386204,44.1544850461106,32.7309864419786,24.9520763375986,43.4716233420553,53.5446279877221,46.27634469638,41.5138028099424,46.6138983792855,47.5712486260271,38.4087096045332,34.7388792689343,50.0970130803415,46.3499069280359,46.1506228405704,39.4481911957575,48.6070502420564,38.4159451872533,34.0445731791891,47.3321099592635,18.0346279440405,30.6888855143349,28.5256970591133,38.6044917226619,45.9165360021088,48.8021161996437,49.1517348387892,39.9107446811079,38.3508798490366,51.547121793091,53.4367282850662,49.9614901051901,26.8123654384711,54.9975363406758,54.9497164489292,58.1145825662325,50.42034257506,61.4277145313406,61.8837096930022
120.527609335802,90.8564660310639,96.1017645997177,108.747121399676,88.186438198199,83.1560918293378,94.8657768318089,86.5337721499539,79.624796842013,79.6146953644692,85.9499810093091,82.182310018889,86.0344190351857,91.9010502716505,78.9398210537872,97.723420105138,135.635610050751,66.3602013650833,86.6515384246425,123.409007071135,111.7533979951,94.4374883004123,93.6062497980198,107.693082918835,61.3752922492515,76.9217246026739,82.5076798419798,75.8414637465407,67.8374816814315,78.3927201913923,99.6573948881816,86.5759617085473,89.3291692016723,84.326652408654,90.1639032556565,86.3199658921814,77.4457701757116,94.1538290322995,91.0450980361782,91.6778078090226,82.9412356120423,92.0861067179766,86.0742271632548,79.9052157458068,89.8010452372151,54.9270040845902,72.750311475845,80.9886809229231,81.2711640921134,86.983111072869,96.0039918473106,90.5775917130395,86.8834423124932,83.8765202866691,89.1782122504976,92.8613329801364,92.9736918404419,66.9006977353976,118.097211257288,109.005210427856,107.935944765181,98.3926410351107,104.705338274895,129.178052612296
149.509552340562,115.368721765445,114.304612140852,130.262795377144,115.715044073425,121.808566793089,118.069166423739,119.466296499915,106.805479663513,106.824296745276,109.447255248346,102.081586980181,115.369409431604,117.381235635179,106.962663023884,123.808780541946,172.424886743432,83.9682117585477,113.456379730418,162.242414927297,131.771580980875,116.407106572865,120.665318632002,129.465631962846,76.2141381642332,101.76490689941,104.309166723389,101.129194227082,94.0771048548645,105.113520634803,125.292511128174,109.499172282681,113.041363970996,103.9957495477,107.27363713804,110.28645785085,104.426587541265,115.106970492224,117.56651088141,113.468344630914,100.952987746876,117.12563326017,112.302383158839,99.4767216336592,114.388144320656,72.8478493087034,93.6386150322061,103.142851568274,99.1792537009971,101.166841707944,118.424705203509,113.198179097778,113.344751971859,107.834595597271,106.898149621583,111.663576052102,114.304885102786,94.0613047734717,166.315193536937,142.013357185223,135.169208077106,126.939394113272,136.841813907725,176.508116070078
133.347261248182,105.38874050354,104.416948147277,117.853657854031,110.471244245528,123.115674622986,110.3798570699,118.290304974192,103.647512884238,98.4884768869613,101.762075199957,93.9546161698265,112.191764337383,110.438019576705,104.307422414133,115.476159663257,163.456561355845,69.9347931724785,108.39311910217,157.293851069207,114.195335440377,106.85138076907,110.579681519179,114.763837968702,62.7403058224132,91.5067837030704,95.969276415041,93.6453080209674,90.4449053936376,103.861915758122,113.792842306556,101.968173708982,104.366090473849,97.6081162692074,91.3284106695502,96.8339335225293,98.7271964974463,100.761018858236,102.053038446866,100.644190769946,89.7890729326975,105.843611149526,101.700901258708,84.1999110052241,101.69230216806,63.9118407779571,84.9920492522347,84.5451390371628,87.5070267077261,83.4675171974784,107.831779332783,103.224416212748,106.362713652322,96.0437114921826,99.7555759670723,97.2138932725917,104.017120793786,89.6882776632902,171.081162949372,134.989139563913,127.632006285243,119.083521511444,136.9500852762,174.535074108606
106.941987189335,86.6345865881135,85.2251700399173,88.6801624259421,89.7201127968883,97.2360281045205,92.78639251062,96.9200872657741,88.9135591692515,74.6285052170151,84.8776136801063,76.5832134622726,93.4527603961229,91.041107168629,87.0742790894798,94.154025045498,131.84789380221,51.4607922046761,88.5829277032714,123.027129166746,85.4066312875618,84.3028707999091,81.9799981800483,86.8551418085155,46.5140155064153,74.3363755345795,73.2176101218935,70.3576537822989,71.8806047296738,85.1670326381249,87.0733339430956,78.4431789640323,81.9004529625757,83.199209462752,68.5569210336359,72.6786513121484,76.0117076058637,74.3818164682864,66.5368389735928,75.5170806845827,70.1447310349274,77.4954561430892,75.8898550172657,60.2653488925153,72.1550608899418,45.2779959374559,60.9702598859053,57.9946994463192,63.2768954475841,57.9938999628142,86.5702805871228,78.0142088211234,85.0015900820133,69.6949098600129,80.9229752983997,71.6129471696111,81.5046289464864,65.8334227029006,139.739830181993,104.761120357684,98.8183186077899,88.0588256977212,112.149847519274,139.533573420351
91.9259981426464,74.8898724510127,71.1719744702515,63.3775915442125,73.8829476008952,69.706759622208,80.5936134049108,76.5922285938241,73.8926866945458,57.8739530669092,67.3906261782782,60.7592323158478,75.0290572196763,75.023522500515,68.9309986763338,73.0866934995716,107.353860128815,42.8718312638436,67.9902445084975,93.9445635374871,69.2735967267246,69.6974167558538,66.4778874310632,66.5388137072211,42.2450091938147,68.2201002217006,52.5102779088358,53.7693210450369,52.4317079310929,66.3434585766491,68.9071960075387,57.3709092861065,62.8555829122773,69.1985137035903,56.0179485984515,56.0971392984124,55.0617167013342,55.2278665136396,45.5354716434613,56.5006305782983,52.2970161049633,55.6239002198353,55.8185335686951,40.8196127123577,50.2807211587877,29.1844153435301,34.285308540764,45.3972075942804,40.1688230782425,40.6536735612809,69.3811029659314,57.1727610664145,65.0908668091831,48.0346244021516,60.9697197628529,51.4656796363209,61.2151860092268,40.4195091447052,104.075381211444,78.2803030473858,69.4004641351828,56.0612369116774,81.0632058452656,105.529260358042
82.1785183366911,66.0894964456887,59.3860839790147,47.8439314866107,63.8325763832376,54.1987921365378,69.3205595491183,63.0646865986218,57.8329844955656,52.444765047401,47.1176232689703,45.2145040295151,59.3379637314852,66.7048778548844,56.0609416176469,51.1918109813196,92.1366126487103,38.1451771726484,51.5433018813677,84.0918542039057,65.2877610738879,61.526574311597,65.617211124538,55.4338159699523,36.2897324566543,65.6581286452048,38.8182738251525,47.4362364994782,37.9455771331528,53.7635568330785,62.1537792046025,45.9277808901453,51.8116325830225,50.9267311909282,49.575090141817,43.5884369829745,40.9110627026838,42.281292112659,42.9209093903671,42.9064797002592,39.0987959634792,44.9622404941748,44.5899786939516,24.502498389223,39.7040884151019,16.2258897542401,14.5857667056296,37.7527529435818,24.5183327603943,30.2179873502558,56.9129943504039,44.650270635244,49.9622620516944,35.8077878201799,45.2530233492852,36.3042874949207,44.7182234552207,21.4925743708283,85.7143682542989,65.7499239049908,52.143083842266,37.8928856455911,58.1818104356766,85.774890058939
73.1247610380309,52.8089102735731,43.851465451342,35.5969659138382,53.1241484656673,47.0838136938428,53.0610158672808,52.7648440633373,43.9435066914721,48.5668608936508,28.8470407627644,31.7106958863421,46.5235821657145,61.2597652350722,50.1183370112149,32.8993669874093,72.8922719246191,31.4770091547905,43.5338677330208,81.4411093864524,60.825179954113,49.8267561553635,59.8668872744842,46.2607100034189,19.2021678580882,59.191281673995,31.7071089098989,41.9499799202131,31.3060889483892,43.9636865094581,58.6354062641575,40.6142911567825,44.3367198776126,35.3743346639751,41.9464823600503,33.8718118401976,32.6834902037493,32.8816134046565,40.3122370449637,33.5229012268863,33.455653040459,41.4597946753513,37.6804090169625,18.2504982914528,35.4851564715671,7.62052887064524,9.61463401628007,26.585678385666,16.4885747190608,24.765843134695,46.069556804973,37.7489676976337,37.4604985231403,29.5956610153545,36.3009917472566,28.817230139094,33.6610966459338,14.2850293835934,76.4871030909389,60.8084725039009,44.8304996937724,34.0990401074235,47.0066408742333,72.1789933638538
70.1156528044009,39.6316440850471,33.9348157488893,28.4000078908003,47.4131153657214,44.5376412320328,44.0555456655171,49.0053639036691,39.8219106443718,43.9855674504189,22.2167032313457,29.9850262831999,42.3252218170115,54.1650334115362,50.1441875109116,28.6284843844147,53.7088086769031,27.920179693401,45.4885589409471,75.1082289130427,51.4138863625213,40.714489634635,49.4787429341762,41.0963551563055,8.91399611630158,52.5497957556153,32.2363535350003,36.8826104344785,33.0939915900978,37.7480597525568,56.9738693543909,38.9796572242507,41.5054965065603,35.6138811341527,36.7586537377337,35.5056744855263,31.2441971742515,32.897242745266,35.2168625512414,36.245049213446,34.0063631326179,44.8557512366495,37.950736836093,27.3950951227819,38.2497564382302,7.93094618165905,21.8572874250178,23.0359899126561,18.1789451555249,30.0873511156452,40.9225671849298,38.9616958695965,30.0051543800666,27.8557989479913,37.1692509247541,36.9442640284553,31.186790126406,22.3609414134475,63.0134342068834,57.6177337382806,42.6776190174306,40.1493631564261,47.9487360812057,62.1083969344991
65.0040902699406,29.4082352603884,30.4618287987427,24.5192669444925,43.4927008915958,39.7841384350747,45.5144370557503,47.9018454475594,37.1906446400549,39.2003231035537,20.4946974978964,33.6228454914184,39.9398008622121,42.2793914048256,47.0544354795191,31.3426068852867,41.0814489936233,25.3629541900626,43.9380698173404,59.716304688183,36.4947614427669,36.4103291971893,41.6823377304615,36.0074714978098,13.7223041413699,42.1596066098504,30.7483607235185,30.8809236247522,31.8040233267776,33.674416820231,52.311198860305,34.7164561658398,38.8055016049143,37.5662095377975,32.041047589129,40.6767890292216,26.1980699310737,34.493748214155,30.4695578600688,40.802952152712,29.2229680795414,44.7983445845905,42.7273401293351,34.1345777226961,39.0674707525419,7.82448770269064,35.2761642162994,24.8859315120167,20.6339883813435,36.3956227109046,39.4437931776644,39.2617875481307,25.5914415213958,24.8112867263885,38.6902693953056,48.2464501621709,26.8221027753305,29.6286745373234,39.5589478503341,46.4490567092494,36.8778183813176,42.7228917845235,51.2120297332523,50.550259896028
41.9498768231536,8.88811149281712,14.2201336519075,2.23894860004086,21.9333261565716,21.1901823698644,31.8584651831703,31.5374295461513,17.4581486206361,22.3763697734463,3.38256498856046,18.2408608893473,17.4463119423175,20.1337991357663,25.0683751530737,16.1029555944763,22.4348650360782,7.22411973316038,20.9936953261907,29.114246752369,11.9006054071028,19.7496343886192,22.6033266868446,12.5747390169698,11.6759766606643,16.0931954676418,10.822717781171,11.2206769942751,12.2857686971955,16.3165983949938,29.6912753741544,14.3165263519547,18.0406157769939,15.991977869137,13.051551737046,24.1373910069186,4.26053064301361,16.6361539683556,12.1332693359776,21.6291772970025,9.42798422223415,22.8739152785697,32.6625833303682,17.8082075615435,20.0789145685074,-10.1706587048081,23.7948505064231,10.0442142325547,2.92060419724891,17.6465730201342,25.8400600794559,20.7481006463667,8.88025304442756,6.8812053735457,21.3504580609146,35.6801348350288,5.8571544636637,11.2899903687662,4.52100236891047,17.3942236404876,15.7099363133336,22.438871394856,35.3592723608854,20.1976631264742
11.5956377681545,-18.8209601684612,-12.0054585702738,-36.7917199302515,-9.94537698957007,-2.5166994202077,-0.965094272951148,2.7606853566686,-13.3414219449617,-4.74791572383396,-23.823425183778,-12.2980898166843,-18.6889505329535,-3.05012496627722,-6.96215896269008,-17.7692177513731,-4.77874094953786,-23.0302973110513,-9.88899926249651,-6.66429926300198,-15.9222717167753,-9.12544865691926,-9.48151121611425,-21.0928108853034,-3.24199634838996,-11.377924045024,-15.6274917008003,-15.6826959631124,-12.7727706829096,-12.6953414823903,-4.39675236057552,-13.8842993083655,-15.0929728092336,-17.4149198282914,-13.9413130072822,-10.3871355217502,-19.9554305332068,-14.312224800724,-16.8179541492981,-13.2746958159105,-10.4774382629407,-10.8298525031629,6.61902057769353,-8.42638997254163,-10.101387701928,-35.4694236221994,-6.57355963761714,-17.892901728088,-26.5019398272736,-19.8276231540737,3.9065571791328,-6.85805798430899,-19.7089262544308,-20.7433141731958,-9.26473554122372,5.13755224748653,-19.5205389763237,-23.4783233574065,-28.0763179707151,-15.1591250429365,-10.4207647232108,-11.1706698300444,5.6488636704397,-23.8335322113447
-12.7664265610564,-39.4987686155727,-29.5279027935789,-65.8233176258396,-30.3546532962104,-19.8186472103376,-29.5366028687532,-24.3870554790156,-39.5376679860612,-28.7585667471815,-43.9638021082173,-37.6557122547572,-44.1226675692684,-18.6501524321271,-27.5780515684047,-49.5082620039473,-34.4877281703079,-47.8022385171528,-28.4614131695029,-36.4977929653487,-41.2275456607092,-35.3729883336857,-38.761653923674,-41.5154092170754,-16.7680070470642,-24.1100341272372,-32.0675168184882,-33.5426259796209,-28.1051265416187,-35.9716953904591,-30.4251981094385,-32.5624525087772,-39.2086400735192,-41.6613448612956,-32.3663817920996,-37.8603660077685,-33.3586182257974,-38.1416627631323,-38.0578157478542,-38.8473564603231,-20.6218638552845,-34.356099712062,-18.5963868251146,-27.1735778303206,-32.6848245871279,-50.8548831522929,-33.1118104163108,-41.6958949524095,-45.566589883719,-48.6715964372477,-14.0829041861264,-30.8057135882398,-45.3035218411753,-43.7045514058116,-33.886886524076,-20.1033243948393,-37.2163138930758,-49.9378277498155,-53.5527023507194,-39.5823120417649,-32.6755522220436,-38.3705647606976,-16.8006152364863,-62.6069005498862
-43.2150877111329,-65.0914478209314,-46.6969809608295,-87.2938980311005,-50.0635157485,-44.0118325696677,-54.7729375120301,-55.4196775815763,-66.1270211609042,-54.4291711316955,-67.5208245278908,-63.1760452377496,-65.5501122369573,-42.0697124065639,-45.9631033883932,-77.8305726477876,-75.5041135874274,-72.1291238245678,-48.2152599619396,-72.6234952422694,-72.1335879009582,-62.017860669265,-66.7434624947821,-57.4143868561036,-33.8403469550754,-43.8900616403191,-52.6746765817396,-52.8293744106022,-51.4747925771145,-60.1752722914419,-53.2557057040652,-53.8074705703499,-60.861377486487,-65.5727264445878,-52.9074433412761,-59.029485118763,-54.608372838629,-60.118532563832,-57.007404906262,-60.7417876235309,-41.6679894200065,-55.4950938042668,-45.6700911572767,-50.9775443636345,-56.8280441104653,-68.3606354752888,-57.8339807096808,-66.2585408205374,-62.9035190441091,-70.9398314613237,-40.5432120353119,-64.9325685544473,-69.2981566453885,-68.4869820048598,-55.7673132013026,-46.8323854434719,-63.3668803254966,-73.3101651303253,-90.4788348347918,-71.6648976950479,-65.4199529892086,-66.0104400987937,-41.5696066936169,-100.404927215474
-79.6445622704177,-98.6840134849568,-73.9362475536578,-112.043198518351,-80.7626009384625,-77.0609604894141,-84.9749595671778,-84.8187839128061,-92.8800605642661,-80.7185599033512,-99.7164000470187,-89.3710250516387,-91.5247392886974,-76.0363190555123,-73.6159142778793,-103.973870871793,-120.051329406915,-99.8401589688805,-75.517724404568,-116.286375718601,-101.763190941212,-87.528328348122,-94.6692934033573,-80.7682061951562,-59.613612908446,-79.2724252372052,-78.4419426698313,-80.3381525258299,-85.642358283089,-91.6203289125159,-79.0832185416613,-85.7577201558773,-86.0484244672932,-90.1937357335839,-81.502614089478,-79.4406443726117,-86.8344885486286,-83.3798906528609,-79.8738170086135,-85.7928785252582,-75.9284170994208,-82.1192911806735,-75.6990497749811,-81.2347533056152,-86.58330912318,-88.9295125414264,-80.1882240562031,-88.4242964311674,-83.8045407982214,-93.2867119172308,-71.6503299011638,-102.758069671834,-90.2633146537629,-95.2119424154279,-77.0577786372205,-79.4559118738055,-96.938354657856,-100.987584198737,-131.383073963191,-107.904635321609,-99.7753408346122,-92.863941210199,-75.9564130724048,-138.098221462614
-97.9266178163842,-111.577074512718,-91.2727774062229,-121.54075716395,-100.205025713063,-93.9247782357781,-100.834366719826,-89.0109180345598,-102.471956982751,-87.2621328341077,-114.90302347343,-94.8594166830361,-103.98053221372,-94.2846664520547,-89.5701563709881,-110.540747302128,-134.792366563255,-109.564783558366,-87.0720505115792,-138.784358976986,-107.757698582366,-94.5740189781374,-105.180659135667,-94.2978752105623,-72.5712391556671,-98.959377284136,-83.7925116357313,-92.8631617965444,-96.155899300908,-107.372830043222,-90.1540366951508,-101.76880822559,-93.1996555273743,-95.9085179339779,-94.4579045367406,-82.8792468635959,-101.470871905707,-89.2104697149073,-89.1806819559514,-93.0278959783661,-91.1769501985304,-93.700364318735,-86.2526081742305,-91.081969509888,-97.8321777151003,-86.1610515331542,-80.97189400026,-87.1520058098965,-85.2716226301427,-99.6763668514222,-73.0702732731891,-112.959123995178,-89.9220295309885,-101.133840765393,-80.3776155488828,-92.977096502755,-109.538588202119,-112.844126953132,-143.290932168919,-117.32541948624,-103.392400984189,-98.6993101207053,-92.2412071472098,-153.617286659969
-88.6508844284429,-97.3662566339673,-84.2834035768609,-107.251255295034,-93.0507861234946,-87.0521108482675,-88.8286383918088,-72.9832247521859,-92.7808528228804,-73.0425514446956,-102.406007793413,-79.8660442450797,-97.8727949752218,-87.3681721637473,-81.0934868078954,-95.2135576480682,-114.460860579084,-92.0083434515495,-76.0636483896139,-126.396795089922,-92.8901683993864,-84.3910613437158,-94.7158281712209,-87.0621429189338,-60.7254518668777,-91.5509922850717,-69.3220272756993,-79.0199298690116,-75.5624351064549,-95.072682457614,-77.9628406425598,-87.9671156231114,-77.701770094516,-82.9354124919044,-84.2760597234714,-67.1254618398073,-89.4832446523585,-74.8220404225196,-76.5487475472736,-76.2493415319303,-75.7225031971511,-80.0385567416076,-71.2026414122082,-74.8777799649299,-83.2556073126992,-58.8562022545297,-60.4588360029017,-65.0684632054396,-63.3638183617304,-85.8118913009883,-45.3796849394926,-96.5853006838848,-69.4062015342387,-81.7142336664606,-65.079161930293,-81.0307580435508,-97.4428213645826,-98.7637385340197,-127.457087503101,-97.6573597896216,-79.7660052521985,-85.6086659142664,-79.8648560484028,-139.069660553884
-68.9631099616855,-83.9539090638487,-69.4103582512715,-91.1775716243352,-77.7965157024763,-76.1234610766811,-68.1090943707281,-63.7427041226207,-80.761343663034,-58.5241742570958,-85.0487214971098,-68.4683388556905,-89.9295560221406,-76.8455643402309,-68.1510798233177,-78.8248418671024,-91.6149642342934,-68.788913892529,-60.5893494513987,-100.412563480528,-79.3911414695469,-75.8828980007781,-82.1914099695142,-75.3543659119053,-45.4067494022651,-81.2573498792168,-59.461101324903,-60.0230630266272,-57.1642933900076,-74.2456224928082,-61.6701484966262,-68.8187150196212,-65.6427646149207,-70.6731898929257,-72.0669012898889,-54.7712066920023,-72.0232773590094,-62.0530432061348,-58.3918524417133,-62.9159712365929,-54.77389376188,-61.4051420009063,-54.7218702327932,-58.0895499750027,-65.9861899789919,-36.7474790629113,-41.9718868833421,-47.5988954451014,-47.7653725411398,-71.6417001449587,-27.9280677443731,-83.4333888088196,-54.18246435351,-62.7470746093536,-55.1263133206106,-69.7156871548698,-85.861945711845,-79.3337408932484,-113.188497839009,-78.4429713926716,-62.7594721910765,-72.6648982749105,-66.4947742131549,-114.31507163564
-56.7274391414358,-81.2576520921789,-60.1174632431852,-87.0880006343874,-69.9926811952345,-71.0608965366226,-58.0410896366041,-62.2607953904389,-73.275400682775,-48.199571713422,-76.336438688536,-66.6082628265596,-84.3183432068106,-75.5181296820084,-63.3335905460088,-68.9296418203826,-82.1828598895719,-54.7176022741394,-49.5323856893373,-79.6521685324118,-68.7443438043244,-73.7909599094571,-73.2243276761095,-71.3538504854162,-43.4170449129442,-79.1642553764532,-56.6188163311918,-52.7786825522108,-55.4460821247787,-62.0738917432441,-55.6771147664627,-61.9489684339368,-65.5260503608658,-65.6161689149322,-65.4549463514317,-54.2995436841988,-61.743907491073,-61.2442748734166,-47.378175122297,-65.5330479292008,-47.7293025724546,-51.8295618900005,-49.7355553385507,-52.2748207525139,-58.2327617385181,-32.5352535281679,-37.2370266491096,-45.0575619397065,-52.8244763570529,-68.8210311176233,-32.6768952510761,-81.5939700914207,-53.5461634514582,-59.9129334265519,-58.4664842124612,-70.8880994763739,-86.410724774505,-69.9729073264109,-106.287932048112,-72.9391466842516,-61.3753289297393,-65.5602034204798,-66.941092274688,-96.0580512152662
-51.5373480918246,-73.2072310417008,-49.7366238553125,-86.260172653505,-60.9748718657147,-65.4783333164589,-52.3276437249377,-50.79771997399,-63.5677833731865,-32.4984947198868,-64.6858639038069,-60.6402324907459,-71.1756165668048,-70.5423212532371,-54.5979876334585,-54.9122009230545,-70.7789397478422,-38.8889218425789,-39.2126199797209,-62.371332208398,-50.2171745720454,-68.9196488872063,-55.5299192536924,-65.5506644274564,-42.1360682608736,-71.9880178163426,-46.2515643133135,-48.8033408762047,-53.9665689711861,-53.655795984741,-50.9314186760311,-56.3246165791316,-58.615639406667,-59.3592435582014,-55.8413986189205,-52.2148702594034,-52.0670996235245,-60.2321466717482,-37.2271068592692,-64.0102037619165,-45.2480697954711,-43.7310821675197,-44.8707719666369,-45.2754702861648,-50.6625470207491,-33.5175755819022,-39.9599390308762,-47.4795891454498,-58.4541810827859,-68.7481280788835,-38.9517138640169,-73.1253931727016,-54.4904775652866,-60.3943926011914,-59.9406823551726,-72.2329430972239,-86.1484298688285,-63.2512842699499,-94.0594417652493,-67.4119100278904,-58.055149414215,-62.3154982617659,-66.685834518823,-81.0916829725119
-47.5421726421599,-56.9343902248637,-38.41550338463,-79.187306508966,-45.5343710758198,-57.8505737511323,-42.5101870876909,-33.3890563193405,-51.7909992493308,-18.0525837116492,-45.7679617183651,-47.179152641265,-51.3158831594353,-54.6990291691033,-37.8076711785654,-36.2438602438468,-54.3772487660009,-17.8402585934994,-31.8201661723631,-47.7913287790256,-32.0214172403875,-57.8842379344447,-32.977090328193,-51.2848376621428,-29.1422725239333,-56.0438537307981,-29.652247645909,-38.2097677356844,-43.9535952851327,-41.1189297493051,-38.3832292564334,-43.6588762214081,-40.3588534352069,-46.8608842415071,-43.432561788913,-40.9416767670335,-39.9868379108281,-49.0525450632079,-22.8780259378389,-47.0467339834081,-33.6110073710854,-34.0791398624756,-33.8697750822184,-32.7344591058378,-39.5297695423955,-30.9962930080064,-43.4066808150936,-46.4697590658098,-49.2339074715528,-64.0751724144461,-38.1044371368934,-53.1024973258556,-50.0282349325451,-51.5597500109807,-54.5869356980322,-67.699269764327,-74.3859518744331,-53.8061851534839,-78.4942702402535,-52.0594916263613,-47.1459536881266,-61.7407915313017,-57.8561952438744,-62.4251670668138
-46.4519019056813,-45.4572789420014,-36.8631368823029,-67.7472458708503,-33.8363488057385,-51.2670024742441,-35.9512700315727,-28.5441195095888,-42.4804422961495,-19.3228526965209,-30.8858610547572,-35.5304977116605,-37.2657028074201,-42.5728544676798,-27.177436280183,-25.3147309159787,-46.8934245647921,-7.94599870084954,-31.1049629484494,-39.7199991950323,-26.290701972634,-44.9728558071255,-23.4553888675176,-38.5048576734975,-16.035581301861,-44.0606396067979,-21.4257812745095,-25.2527404991229,-31.8179841876451,-29.187052755178,-24.536472328739,-33.0302295214265,-26.8224808499756,-33.928396450309,-33.1533754799668,-29.0279258006999,-32.6406713469075,-35.5061497858824,-12.9231336134003,-27.9736217579314,-18.0067675835775,-30.2877634564773,-25.4887069766194,-23.8752584963188,-32.2598555164922,-27.377727184829,-42.7004526219801,-42.9094074817882,-36.8147931567425,-57.1349002134955,-36.6755967409164,-38.5143118064711,-44.1429438612541,-41.2701653929271,-51.2810803827585,-60.9276434583565,-58.740193141134,-47.0070726329946,-68.995633389626,-36.6683624975645,-35.9813841329553,-58.9513467943078,-50.7235500569593,-44.1087030662224
-44.7247661427413,-40.1521051748453,-39.4531924583204,-56.9363751746289,-28.9952175253087,-43.5317908471939,-35.6116939334682,-32.8284007342459,-31.1021774818345,-26.5939329803902,-22.316508180869,-26.0885622366333,-32.0391349363151,-39.9910754187828,-25.8203971155679,-23.2077169402453,-41.5446019575512,-9.6570642730005,-29.5409046704695,-31.4063794575844,-23.2577292840279,-33.8618038386595,-24.9444105006036,-32.4484070021886,-14.2173846358715,-38.0814638560698,-21.9421980416676,-13.8413765657366,-20.0887330493949,-23.0757733996317,-15.9541250626141,-28.8553419536264,-22.9905913256083,-26.1406450086694,-23.9436307153982,-23.3676596540143,-30.0634229960852,-29.6352074875169,-9.37617284695092,-19.1122316997491,-8.61760350393865,-30.2436353261305,-23.9425626794967,-20.9262385335027,-28.3495065760195,-22.2149430350997,-31.8980683096952,-37.3112616208357,-30.0214841565675,-47.2454834962046,-32.5139293903642,-34.2185344136805,-37.673708337314,-38.5408419808106,-47.8577377727827,-49.4414660061282,-49.2598857914823,-41.2730022112219,-60.2189574105663,-29.9180980881807,-23.3006528129382,-49.7365370267667,-47.7322271676443,-31.7824912048528
-34.0759211009425,-31.402611354232,-29.4048736862206,-45.2386777406917,-20.9297991865533,-32.0799382875798,-32.6602316099633,-24.7029848337725,-14.7605621987484,-18.2202781526025,-11.9476451072733,-10.1106679239098,-25.638789533896,-31.5097650200299,-18.835212474054,-16.3879161783468,-23.2167774654296,-2.78528509420607,-19.9910936188759,-14.3966545942446,-8.61314667573269,-25.2222530324611,-18.7713294710986,-24.3409174893504,-12.7851450538528,-27.0199123789235,-16.2541561197223,-1.49969830302795,-8.93629934585505,-16.0931434889268,-9.2265681158324,-21.7194045363451,-18.9145159267714,-16.8894546787142,-14.6279103489823,-17.0010436132662,-20.9598644802849,-25.2404411200421,0.580016665037207,-16.5076920513342,-2.84885934580349,-22.9311183805533,-21.3178005715652,-16.1652737505332,-17.6957542024902,-12.8438706654033,-13.6672013994251,-26.763789815988,-18.456170144503,-31.5526331201979,-19.8501288882784,-25.1185876981754,-28.2538985193509,-36.9473711791548,-34.8143804595173,-29.5528354972546,-42.6530268228971,-30.3553641442424,-40.1561175759786,-24.2334443450321,-7.1706961592084,-34.54708448591,-36.8594437225401,-20.8464846012409
-19.0576947632204,-17.4197772212894,-8.82883628967605,-29.6072928279845,-6.14526672301301,-19.4538709904661,-23.0901863984197,0.174069250642591,-1.40582415166901,1.73765419764575,1.79211329349562,8.40744096154873,-12.1650209265573,-10.4702479380608,-0.87273157079149,1.338614142264,-0.359143338429366,15.2839913174915,-7.5860032099923,5.14487458802988,11.4904581554294,-17.7919534826676,-1.64077528538218,-10.9437171699198,-1.2924510495265,-11.0892433517506,-2.91505151271198,12.1457813687764,-2.83867147243248,-2.05211846481746,0.314502184411629,-8.14821602697056,-9.3566902264067,-0.961703500194374,-7.96109208727518,-4.80382262832141,-1.72475565753062,-11.555948986089,18.3312818090411,-10.0398518263227,5.64374573159335,-6.65728495036338,-12.3444474303399,-4.20759561905416,-1.11425438558195,-2.78135271403396,3.24460403227389,-11.6484750476298,-0.690189163271357,-14.2602122478752,-3.96057046433627,-6.4833791241288,-17.8277822484508,-26.9884836434358,-16.1563350332848,-8.52043921068143,-31.7474085670414,-17.9541222581072,-11.4106166897827,-11.8201752897746,5.49945530062773,-17.7452837384585,-14.5604709662897,-5.23081445926637
-10.9045885659928,-6.21862636158515,3.26860883396877,-14.5663667695575,3.8718006860855,-9.98515781591058,-11.4262766331078,20.2915167699045,1.94456586478208,10.409975946134,12.7990195190496,15.1767249107191,3.32148000753094,8.1916219700091,15.1109684533973,18.6545531585013,12.2626979190944,25.4942380617531,-0.323021078828888,15.3969786465194,19.4668970474708,-11.5432594284943,9.65559041455948,-2.68694237428,7.75594001024283,-2.34866183023139,3.48390371058649,22.2238361770633,-2.18544288542774,9.87478104196993,8.9825244838023,1.50282070391081,1.88310987045092,9.94575091975478,-6.25305439735889,3.65124414544689,14.6240177185258,5.88681339470239,27.1288310421568,-0.857959673728687,14.4727000278131,7.09918679259689,-2.46532407059794,10.884785288423,7.91876282965015,4.97268426039214,14.8570401179918,2.68202223331604,9.23177464863344,-2.96743634731247,6.53014589814548,8.33939593665894,-10.589057614662,-10.78445006747,-3.35315547497388,0.860511777694641,-19.1714093520498,-11.8574127484973,8.24612970295084,1.48654126485515,11.5685610908539,-5.41946785527812,5.63799030586109,11.2423351363064
-12.3784020883816,-4.97003317428526,-1.29600715422161,-10.452839395215,-0.814995738023272,-7.73431389820532,-5.43843326297683,16.5490448004838,-3.20967409907367,1.91881467854229,14.8880087434138,9.56561957802716,11.4790553973153,7.65920806134005,17.8274916530785,20.5741623516606,11.81180174522,19.6129375642027,-2.9878970052801,12.8391024941395,9.48341901006694,-9.12956584147298,4.49650986884232,-6.79450584586393,0.537615208909791,-5.59970630189079,-2.36758087352478,22.0911927056657,-3.66033524408042,7.05320455676471,6.56970161423939,-2.09460802691592,8.4872959597167,5.30846057894217,-10.0451400341235,-0.0341087790640771,16.1982981906566,11.714938914913,20.3119174122391,0.0084652174604134,15.8866850805472,6.24560564302936,0.293028308985489,17.0128343413059,3.89133655602539,11.4679677402159,16.4657417968941,9.34465857896895,8.10139390094712,-2.12409306608301,8.84782187426441,9.19843499272025,-9.7297726927523,-0.2903665802028,-1.26390962068034,-4.53403515911202,-13.8986719023987,-12.9957626754796,6.51312387008953,4.58564639065219,14.72478715432,0.545127092812758,10.3179046890801,19.0740862673002
-18.5244536166002,-13.5675411657404,-14.0800931151398,-21.441958680877,-13.4475553048764,-15.1771909993648,-11.334015575693,-5.14149639038333,-12.5349900542038,-8.20313965892273,7.75041116220368,3.51672605730533,8.52868742132402,-11.6371824062088,8.81062183635856,7.00968232065156,-0.273679833551104,8.7237480079374,-17.1371518099458,1.47327135176525,-6.88784208315941,-11.7227756414558,-8.77889994334797,-16.2036733648417,-12.2901052405856,-14.6734181937032,-13.2665048689441,13.0204358898895,-6.00922668080738,-6.3752968306323,-8.1305719647588,-17.2440992770871,6.55361174864569,-8.57526510609437,-17.8657851572957,-9.04094314635469,5.89293121045602,2.38789396721472,7.22459165394559,-8.93549425513327,7.13581164748281,-7.01912295180266,-5.12841762959211,7.50156640388115,-7.12906385484372,12.1773931342785,4.61109404946075,5.53342542244835,3.93520150903727,-10.1576846046746,4.39088249221846,-0.85560827179405,-15.2505161881734,-3.9335743689568,-8.99655334537718,-13.5227509641716,-18.0002435444893,-18.612040921225,-8.48225497090124,-5.51154892717292,16.4084278872011,-0.597226771868253,0.655456146259488,13.1296216326783
-23.3535648204768,-26.012042578322,-26.2949320125081,-37.1986627653059,-21.6411183231758,-27.689787388003,-26.2664593092094,-25.0732003390074,-23.1012078530188,-9.00214834705842,-2.15101498090917,-0.592757173767475,0.00244337271318468,-33.1838459465719,-4.66012720632632,-9.01263845282524,-18.3748272452206,2.16879041167535,-34.5650101204378,-11.4895158321986,-15.9744903936584,-17.3069954605881,-18.3521171008431,-21.2072513025722,-15.6562113240532,-22.1099491740281,-21.4210861587518,5.39340080929831,-7.2824040064872,-16.8873021676207,-22.7301407492729,-32.4635167641352,-3.51067512245829,-22.0245588846217,-26.0591651499484,-14.1825472868705,-7.17909016320743,-10.9008080301959,-6.63407850383302,-17.0962471896145,-6.1342339996072,-17.901832477108,-12.4688430049814,-7.51338549199446,-18.5291909637164,2.9345232199207,-11.1017772408463,-3.82781686454956,-0.356092269418345,-22.4278217772726,-4.23400611795591,-12.7619346981003,-21.4544350848552,-17.5350771874864,-21.8023334844035,-15.0453129773873,-23.7167961281866,-27.1788377850215,-21.4715372158454,-19.7253189616854,13.1471768613499,-10.9101099464796,-12.4555742570897,-0.731714001819969
-25.1999978829759,-33.7466078497589,-32.7654910683549,-40.8632157937703,-23.3633641969376,-34.5934340101832,-37.5869486141905,-31.2197734486033,-27.9537439461145,-6.55693289972512,-7.62820512517275,-8.28325415285533,-7.64123395506567,-41.9743534932617,-13.786813599392,-15.9080142275587,-29.0267921061973,0.183973733805254,-41.826813929477,-18.3438968106363,-15.9684749397726,-22.3114484452588,-19.8012207818248,-20.2658721651694,-15.0331199825668,-25.9794031274401,-21.7084261385245,4.18260176773025,-5.96599796027103,-20.3878103881844,-27.5688651102213,-35.0021136992448,-15.7095451804559,-28.5051412550707,-31.5284874560652,-16.0157944836126,-16.0620776056505,-17.613665019983,-16.8145297322473,-17.3541401434412,-15.6487952020789,-18.8692773145896,-16.9139688940076,-13.9627468624886,-24.686920230514,-7.94601810888843,-18.6378330143048,-12.6621080212441,-5.13550087106923,-34.5727722419247,-13.0159665009009,-18.4878534632894,-24.3769511781232,-28.9355590964674,-32.9109368576945,-11.1977488154693,-25.8172177304586,-33.0271270513749,-26.3035839190971,-25.5484020675911,3.92903733079383,-22.7311113296634,-18.7604899498612,-8.25952034556468
-21.7469598659851,-27.642843218643,-28.8466788119115,-24.2496281589586,-18.787915304526,-28.4431153777682,-33.0537816436993,-22.2288821842125,-15.760229970276,-6.07377370650661,-3.70448377437617,-10.7402978642961,-7.59310882998399,-33.100918165807,-8.95531165963703,-7.73911801679843,-19.1849927266877,6.34907584096985,-34.8735888340606,-12.046810651918,-11.5696434527744,-19.6162115367592,-12.4393595003525,-12.7290284163511,-17.0275139790718,-23.8636680089045,-12.8309321045105,7.57813688899032,-1.49668093036728,-17.7358415859809,-22.3033590503746,-21.8738805356432,-18.9281134142069,-21.3442276958673,-29.6689621873625,-14.5606472933967,-14.8977529873942,-15.0746396276205,-12.562887946072,-10.0506517715275,-15.2374981496897,-15.2913040815388,-16.8118903272281,-9.24029472233636,-20.3682663567997,-10.7140232306256,-17.4315089982132,-17.070885568649,-6.85800910277532,-37.35024909346,-14.179284240308,-12.9867422902576,-23.7679881007246,-27.61403602299,-35.8668456582766,-6.85231249240784,-22.9879432714464,-25.9988741314199,-19.6711063991084,-19.0189945674462,-1.94439031546631,-21.4539502147871,-13.0380878325909,-1.59157876022673
-4.65191206374251,-4.64754738425831,-14.6904433291392,4.6338896914772,-4.14481488878586,-10.2414776497495,-13.8431144440659,-2.02306262334966,10.8189307175129,0.534054089501178,11.2478577169973,5.95337090465614,8.71540526162604,-9.71975633089141,10.0513594819062,13.8867792672783,8.86354993095824,23.6313866631272,-17.9964855777809,9.92963770301736,-1.47671105347649,-3.91480740908551,0.491385727116475,2.16264372222708,-12.1127105713435,-8.52019800140691,2.39160116647597,17.7608271058905,8.94605235251226,-7.08311881568653,-8.903207327902,-1.84378611474909,-7.07083424444006,-3.1157606035806,-15.1402825371095,-4.79529171335177,-1.84094810336357,-4.46290513900937,4.76452178339239,2.14699767694789,-4.20697390618568,-7.85699025046817,-9.34080402290317,2.71651859701489,-5.8700917978146,-5.13877497227876,-10.2914555549476,-11.5220226748456,-1.1887681727068,-22.6245486048217,-2.01481431765513,2.93606098518166,-14.1445031078256,-11.1750516854001,-24.7010490889386,1.11511687289489,-8.98020359473372,-5.18765083646434,-0.0244854759736977,-5.48495710023593,4.77775182409301,-5.11643303787665,3.34367134899927,13.7585272769797
22.9907590297819,23.6280252353567,2.43902832497968,27.4183603837232,14.6210302112056,9.15622457339068,5.89490483840276,18.8141451625327,29.747696001499,15.3106801660691,29.0605392192725,29.1649406856769,33.2605618083998,13.2559500043805,27.3939332505684,35.7493368099945,33.7416595390834,39.3969572744028,1.84795667001275,36.1827998570567,15.2339882858902,14.6143292375843,10.367831016774,15.7409871478224,3.10571808314882,16.8034087402045,16.9164690232221,33.0506606208297,24.2769736128922,8.61098930352213,6.82471081817737,13.4270714652005,11.866490719258,12.8774687031579,6.46028964270353,8.8715432329486,15.4971872712217,9.61486548712931,18.8511649477401,13.6016313588382,9.65979834406781,7.95166841019178,2.63565468724352,15.3887996099107,10.1143017018141,5.61011340385417,0.262542246924232,3.9731978736447,9.64665751682424,1.62810860186413,17.0715182521565,19.4840594630168,6.80505727337089,12.3507433031507,-3.0840778323011,13.184139180824,12.5133458620307,16.9363129144344,22.3690225805457,7.42627924570095,17.3641182227786,13.5187685840946,23.7787761041344,29.5907675467413
