-32.0434255603278,-32.0434255603278,-30.593496801942,-28.0561214747667,-34.2908151358259,-28.636092978121,-32.4784041878436,-35.3057652666961,-28.2736107885246,-26.9686749059773,-38.0606299076292,-25.66373902343,-26.5336962784615,-36.4657082734048,-29.2160644814754,-33.9283329462295,-23.9963209512862,-33.8558365083102,-43.4978627515762,-17.3266486627112,-42.7728983723833,-14.2093018321816,-36.2482189596469,-45.4552665753972,-17.4716415385498,-43.8603449411727,15.5142377147289,-21.5314420620302,-52.7774068052459,-19.50154180029,-61.1144971659646,-78.3686493907565,-63.5068796173014,26.171214088865,-92.1429725954224,-92.0704761575031,-97.725198315208,-60.8970078522067,-72.3514450434552,-125.128851848701,-90.2580652095207,-64.8843119377679,-121.721519266494,-92.5054547850188,-58.6496182767087,-29.1435680435561,-38.8580907247415,-35.0157795150189,-35.0882759529382,-39.8730408556116,-32.8408863774401,-38.5681049730643,-28.7810858539596,-33.9283329462295,-30.5210003640227,-41.2504731760782,-29.6510431089911,-38.9305871626607,-26.8236820301387,-30.8834825536191,-35.0882759529382,-35.3057652666961,-29.0710716056368,-37.8431405938713
-160.019931456112,-160.599902959466,-152.9950596986,-142.332703976137,-172.35116179485,-143.054755267066,-162.808859499807,-176.949587698264,-143.654671560065,-138.042752069913,-190.528832638879,-129.893457252586,-135.833795529573,-183.540937372392,-148.924053650266,-174.111021094558,-123.649014610805,-174.057012902151,-221.98310060286,-96.4238544681828,-221.080536489199,-78.0072929766196,-192.658456848842,-235.765716244116,-98.8517568664132,-234.287550259496,68.3949605037199,-124.060125644482,-273.553954989179,-103.771318836002,-310.720876107466,-397.013717512461,-337.731906852796,124.979274631323,-454.107972965562,-458.331254610394,-500.67701996365,-323.680706793639,-357.152775838105,-605.840452620966,-454.371178035136,-338.468076756842,-589.600240811114,-457.422864320205,-312.364426585771,-143.505309051831,-191.630397820786,-173.036236594754,-173.307734100918,-195.793845096684,-161.266489513857,-190.544407796128,-142.945282338122,-168.238809623095,-151.273633434049,-202.474722910112,-147.580684732561,-191.539413137354,-134.382410227055,-153.646071095742,-173.960202042192,-175.354666064039,-144.901229617811,-186.524496851937
-335.520870505616,-338.417814934124,-322.14615696473,-305.882176397229,-364.75369958771,-300.585572557196,-343.571538103172,-372.812665382328,-309.019792967529,-301.709374821843,-400.507093669163,-279.531807554375,-296.628148090713,-389.687878124814,-322.24991407428,-381.011709116799,-272.125344566585,-381.945464170983,-481.964121093035,-234.590544989763,-487.986780280242,-187.428394607325,-440.870154405239,-524.366256302098,-244.600798347103,-537.805673122209,116.700369461893,-309.244588707359,-604.647254763176,-233.825911384745,-669.307101613636,-848.606656631312,-782.634376945457,244.404135236845,-926.689149219187,-954.805708576642,-1090.82475753716,-748.5080760496,-734.750435529973,-1199.4413467829,-964.460867061705,-765.40196252551,-1168.30847046491,-941.760359567886,-725.90357313266,-293.813309618631,-393.296213622988,-355.524165430674,-356.56484590169,-398.276265622234,-329.287964099286,-391.16339200066,-296.961116237382,-347.348484612477,-312.703172415734,-411.136262003049,-307.140601401022,-391.239492053119,-282.733877584551,-320.040121784977,-359.8782807122,-362.924912599069,-302.351907933683,-382.321815154348
-398.730864747198,-404.91402223639,-386.502562230419,-378.612859682117,-440.373266454288,-360.531816222351,-413.99213532194,-446.252224610149,-382.423858849599,-384.526471360724,-479.02383338727,-349.97847591998,-377.242280977637,-474.422146284182,-403.214880740856,-484.915922435529,-350.030284516827,-487.054569975594,-606.673471476277,-340.248405901164,-624.80565590911,-269.117301862677,-588.675474786525,-681.225070819088,-360.339802044047,-711.945292427354,97.9112158916355,-443.674996659704,-768.770554494854,-293.316797651114,-828.772844766456,-1029.04492220451,-1082.17108553423,262.870268096534,-1034.87873881557,-1117.97174365373,-1365.21059588483,-1035.15946043526,-840.436827013262,-1270.06959802202,-1166.65274382726,-1033.77747571913,-1236.34530836697,-1077.22236985522,-1013.09276234303,-334.406987185193,-448.495849297004,-405.229865126467,-408.672311712179,-446.398092837359,-374.088119773535,-444.285396950582,-346.485665318493,-398.160178966768,-361.699588407849,-458.724662499436,-358.434750288979,-443.19130733437,-335.165925305449,-374.69502152882,-416.076662495109,-418.120925844401,-355.137178708076,-435.590963281201
-341.602266744146,-349.178909656568,-335.782136278837,-343.841355038311,-386.45327221622,-316.572027175319,-363.961866959712,-385.30230856454,-345.571714574552,-361.208683986582,-418.483392731225,-325.511458272643,-353.457840535559,-424.793901174238,-370.311216774549,-453.261518511219,-332.958726485741,-451.818805305676,-559.638476097051,-357.296648562735,-576.627856740036,-280.315949496682,-560.348811616574,-640.571200169381,-380.521845833865,-647.264486168937,59.5487666031189,-426.786328213556,-682.086890154295,-233.086973350958,-739.738258205965,-872.426250912368,-1095.9075196153,207.049283286731,-765.528367782846,-915.351387533687,-1207.40060926642,-1062.17955718248,-654.473528798477,-866.490109019012,-1011.5799666818,-1044.77163061393,-833.728883904578,-850.760819987667,-1052.14565861417,-266.224443985364,-355.52133969352,-321.194035626806,-327.476781878268,-344.365094336003,-298.609179006349,-347.938270245689,-286.029271640605,-316.06326876224,-296.479285626242,-351.863257933633,-295.531140728314,-350.465950578768,-279.253713718428,-309.314846644988,-337.262340963736,-335.93409156872,-296.085904382393,-347.273819952509
-305.255979252763,-312.738368873315,-300.769421013694,-319.768770927491,-349.935399518962,-289.549481027819,-331.226633752151,-343.551484159779,-315.443343384399,-336.099933346652,-384.437369388942,-304.684791817355,-328.190171503048,-395.224285334778,-338.721118727355,-418.18603208733,-308.593409161546,-404.033511623428,-511.408354615889,-332.662797977274,-504.68155252185,-256.910806794484,-484.230490677161,-562.596146393195,-343.516754712351,-505.48492234046,74.4648447142336,-335.357238991902,-536.332543382764,-141.823130032529,-631.346856602084,-703.044590508826,-1013.22487011058,184.895514412285,-535.726394515379,-720.261810799212,-997.945087733574,-1014.15813730104,-477.672688114716,-571.481747156049,-878.663858887324,-1001.67003834968,-539.559332832245,-681.673378272765,-1013.71104709371,-221.902472078979,-292.85700614693,-267.101092600105,-273.754220360784,-279.257248470562,-252.640258678361,-283.839793466974,-245.43476648674,-261.598070989163,-255.766461383475,-288.0840519324,-254.515525606162,-291.190936331597,-235.560729975803,-261.71560059382,-282.305393009997,-281.213769021165,-254.608621270299,-290.612414585277
-321.496967770505,-331.906184772229,-313.628519626313,-340.155233035377,-366.967555061913,-302.824051117151,-347.033828955498,-360.165908873212,-325.606699260521,-347.54087727316,-409.279282987549,-314.024145325466,-336.679570694719,-419.749443817366,-337.719896581513,-424.340653149001,-302.275600065614,-392.233978365759,-518.351916669773,-308.936738463821,-477.676372529983,-227.176340267944,-435.619729214884,-529.144358102593,-289.271075375894,-416.059108827506,110.37686881241,-269.98704235259,-438.599700829712,-92.7234331182539,-556.136281012213,-646.275475898479,-982.105428551338,175.272021840526,-442.734244207819,-628.293195436092,-910.393220941096,-1015.35280423825,-384.557860607345,-448.769111359263,-891.659793072542,-1011.30986990881,-458.698148552419,-684.566513358493,-1020.64559121628,-229.111852111283,-303.984545967721,-280.238967974979,-287.632232113892,-291.994059652037,-266.593716513774,-297.592174511234,-257.991117898256,-276.656186062186,-269.343432859497,-308.303803793247,-268.517220533902,-301.998804021407,-241.597507134178,-271.083485335991,-292.572515504384,-296.249570593935,-265.007676474718,-301.919488133766
-315.709586572871,-332.680510858026,-308.052854465587,-344.676787838621,-364.255465366947,-292.992115878412,-341.017448770936,-357.907004100026,-317.97644681849,-347.347909815033,-406.256340397646,-305.506674805117,-330.173102886463,-418.071005710053,-312.310088625695,-409.080769373857,-272.187098262715,-364.524159899311,-504.654560415641,-272.382167806343,-436.033992403344,-179.916526297713,-370.698335244901,-501.202758796138,-217.833320426937,-350.598802655492,120.391990358329,-218.951553249505,-359.030984121037,-63.0048894967632,-430.850689269298,-592.834965626027,-967.484821117326,126.783491060937,-305.853524081215,-554.475573038623,-814.125123506392,-1022.93584574575,-263.338005062758,-247.221178302557,-897.054286898131,-1013.91206587953,-360.247377651545,-683.715726764642,-1036.02247802584,-223.454416204364,-304.915482962755,-278.055078730613,-292.798400394521,-294.278746387669,-264.483335401642,-301.967412514676,-257.777577572332,-279.326367443294,-269.950507175406,-314.804199542735,-266.463884727397,-298.931716315471,-239.985971116077,-273.864026350539,-294.939921899204,-302.97395798624,-266.509846071934,-298.252916933613
-263.260461698297,-285.782694106257,-261.28205163284,-304.841427227332,-313.008999281155,-241.680948676552,-287.754373273525,-304.287563539782,-266.094178012792,-305.96392596549,-350.667351739234,-260.248180998583,-284.692883698012,-363.148291409905,-253.61589339014,-348.396795199556,-210.216789750247,-303.89973536036,-437.742004737836,-213.559535504483,-360.073983065016,-123.700157870087,-275.671686621635,-454.350407978113,-149.304141711901,-274.330975708348,112.386066144041,-150.269838776494,-289.367914869785,-13.7134136502879,-306.366459825995,-506.30388283037,-897.819228224108,80.7222333027955,-103.389909021409,-547.112292389527,-646.596385782749,-963.15936022075,-116.783555153726,-18.0231518419133,-803.675864949169,-947.2420616421,-227.493582564577,-602.408572050537,-978.434767106708,-184.613871018375,-260.860841940545,-229.376426644452,-254.425856575102,-253.476590915293,-219.301242215754,-259.717469994761,-215.204296897005,-235.484071062297,-234.339429372033,-271.112691487648,-221.208866865211,-253.221023928724,-205.819407556668,-238.802845112213,-257.241689542524,-267.659183135059,-230.76665273033,-253.504057230626
-178.138382553034,-201.256126146593,-184.99115438297,-221.38898633407,-219.083022647895,-160.473433592506,-197.347506932863,-207.104955437884,-178.18143449852,-219.286572929201,-257.146310046426,-186.04431666168,-204.230189403336,-264.520953854816,-177.682528230596,-254.542637123772,-136.194664208793,-220.147463616659,-322.762168378341,-143.76261970521,-260.034993646831,-90.0615606046224,-171.772980523146,-361.844392565939,-103.35182900935,-174.828241386717,69.191943693061,-60.3077319207818,-193.097926260576,61.8544618289273,-228.698690986088,-378.283591111809,-721.758531867284,62.5453939560123,97.2865289662468,-542.697590572254,-419.322006529224,-765.342739833298,-0.173756685447191,132.691949138481,-564.486758818037,-751.097794959964,-84.1852028196858,-422.874383532317,-766.906449666272,-119.376375718817,-171.585476175196,-144.695404158777,-170.888661207979,-169.098219558066,-141.227465751107,-173.223426725146,-137.701207110951,-155.594345466409,-159.261970375616,-180.67589055966,-144.368246598794,-166.500112700545,-141.818417091462,-162.857509794796,-176.434541964263,-186.243937311501,-155.629435331729,-172.145728939657
-44.3588336330945,-58.8609457217397,-62.2821514492902,-77.6460969663364,-65.271965469757,-36.2596131793433,-57.2612094211485,-51.9690978422093,-53.0986115495085,-74.8619399871346,-101.794440611004,-74.4968074491949,-77.5009611727828,-103.890250242347,-66.2747914146061,-109.305985172825,-50.341220414172,-90.5583737436953,-139.386009258376,-57.8728631412613,-104.786137742581,-77.9832378596716,-34.7127764649042,-171.015658662499,-42.6031923056885,8.11393407368147,-72.8129943972454,100.144012918837,39.7018178297965,156.079331557922,-58.5885580216465,-103.461035014615,-385.750508054545,11.8605468828106,345.226431030463,-305.742880166555,-53.645630187142,-377.242760587437,124.486323633143,325.37290412347,-126.442199641201,-359.663959278364,187.890274238737,-83.4882085244465,-359.868338554678,-7.33974972678911,-11.666182939558,-6.13615972989008,-20.3416951674272,-9.25288285648154,-14.9231602898483,-17.8951277171839,-15.6669205795532,-20.090741376626,-13.2158041014537,-18.2875729738504,-21.9281507758858,-12.2458359390122,-25.4113457972182,-26.7835065354013,-27.7962991127278,-30.4698844089182,-24.9257113711624,-25.5661159109962
152.837431186253,157.525916154997,124.079693248021,135.18900417703,161.921939058349,141.799645219232,144.613536819234,173.222543876051,117.336649562117,132.908238506296,136.819094089505,87.596699477846,109.793453316496,129.696462864539,100.754303034561,108.672892745096,65.7207870235661,108.29996228457,125.04043778992,65.2366572909151,133.673101627408,-52.3072852784388,171.411369584991,130.972959667537,77.4192184146617,325.129658744747,-306.868364854576,378.014738563468,459.970712979132,248.47185791893,346.375816759512,397.41050631634,129.900630718894,-116.854941248952,701.784521719483,217.810647164576,510.590275557692,186.916861911678,337.058766833985,664.301468443875,471.39568545387,217.760408336136,634.504756927024,407.840477521736,207.432547669521,166.517015197176,227.846626501946,202.477664653872,206.57195184919,236.922031712184,172.998491163223,217.837235808148,160.789040063066,185.87666688408,213.373473043323,223.18586422995,163.053182048707,219.499279497518,154.817884331904,175.778906954329,196.154284638219,207.97644596395,166.012916184474,199.838504885924
398.092324589925,426.06365371655,361.18597800848,400.492626942812,448.363457327314,361.814138769828,398.934506842348,455.111565407933,339.153461963915,394.180039332401,439.469810480272,298.822414566578,357.198756805458,420.682633705949,318.831236743741,389.767162204543,231.631308299176,369.738135521093,457.018512176155,242.889033983069,449.134666945663,16.7535386484236,447.297077313785,528.128803984048,247.327652140923,753.844196459161,-487.001507715304,714.317821417041,1027.21730884396,341.110389457519,946.717143644594,1085.57108681539,786.552484407976,-252.117360261575,1123.05315546111,902.14274275499,1183.58955129234,869.163706401688,681.275090184118,1111.58209533652,1138.13016334301,904.690017574548,1177.9836337352,963.017786588347,877.127541219581,386.770596760181,520.41485941325,462.497972896779,486.44268734039,536.067462938842,407.449465249814,506.87839156336,379.372161896035,438.804519469766,490.221411899009,516.534120515564,398.600716882863,503.348151263695,377.349431939364,424.625314923659,470.647999479394,500.468517044845,400.165443469788,479.774324392511
680.198571674285,732.083829514774,636.830809791542,707.670238855368,778.77748209973,619.975147573789,699.843820741388,782.195166749245,617.197484867581,703.762379087988,787.188458815038,555.858679170152,659.859863444351,763.336318368149,586.093820932753,724.739287224381,459.297997169688,687.860942185712,855.504382685587,491.146075278195,838.119853927263,154.623086020263,785.763206861444,1027.53068177074,450.801979920944,1245.20149589596,-471.046564617263,1020.77743225102,1706.23685170886,471.785181299012,1612.59188933147,1899.3559318757,1542.76400736857,-278.24753593144,1549.03621946094,1719.91248973963,1889.74131526295,1622.5873820257,1165.15675147459,1656.97938483435,1848.18968463551,1650.44632832403,1787.280937824,1547.27143941541,1619.78742655758,640.83483960485,850.563570421828,754.2768213496,801.3004228736,866.470118954151,673.835039804913,831.109284570406,628.101291641644,721.197760015428,798.116664276578,849.318921557541,666.549381063778,822.475838022545,631.67039030381,707.830366288185,780.737760940787,827.55202247991,666.378603017948,796.826066876893
973.880912630053,1051.46334962461,924.91351257368,1029.54744274155,1118.27742631568,896.60122511843,1016.86435286042,1118.94665026217,919.517175420268,1031.4726978096,1148.29010065393,834.82205775837,981.827163083182,1128.97133563737,883.045072342744,1085.60498136557,727.21248286298,1039.3325222198,1288.36251077254,798.362395079233,1259.78169207841,390.263719988892,1154.26752329568,1566.09500569083,708.118911962934,1701.57034692972,-263.863876567588,1259.78429777575,2368.74098300438,612.190222153968,2167.0312267848,2715.47658473024,2318.18379241351,-207.359097292495,1886.87159788582,2598.06862815733,2615.84455629115,2352.79705879307,1690.33559487961,2244.81052319707,2533.72737728422,2376.97680841223,2398.80283523842,2113.66780873005,2345.76771756245,904.449002375967,1186.75550578251,1044.43385437337,1118.57032298985,1198.04972347203,941.908902371496,1158.86446942342,880.462980976046,1007.26686205036,1108.31533953756,1189.7080704733,933.710801548753,1145.26214473238,895.202304965138,996.775464166978,1092.94394003416,1155.81316426943,935.60007579094,1116.57146138371
1169.09883502851,1265.76057331531,1117.61580622087,1246.28324724006,1343.39902439745,1083.45644630912,1228.5978667542,1337.05236774483,1124.11496660419,1257.36948289564,1396.27666142181,1033.45823185396,1203.08466102907,1383.84666666653,1102.60287794874,1344.95281853631,936.00203988123,1302.47282652903,1596.1043018896,1057.47461892616,1555.77229725053,673.588719069449,1429.61944827844,1918.78666294173,991.779933998646,1916.79262080437,19.9883954704851,1365.22225422976,2660.98492539355,662.805441665081,2331.13114702101,3186.79479311611,2860.50277306059,-162.441460691713,1909.91081529743,3160.94998041144,3140.29293711757,2826.00566591916,1981.70373351154,2558.14702098339,2919.97492235492,2850.22352934433,2731.36857007843,2427.60426504236,2812.15549469105,1074.36791676685,1396.88013210364,1218.35122754274,1315.57031343986,1404.23470837955,1107.5731596581,1361.85906052511,1037.86109229003,1187.7004124749,1301.73170224816,1404.57544873178,1097.61413675828,1349.47365147539,1062.04564619465,1178.60762518864,1284.12966463765,1361.17461952322,1103.92205448016,1315.36633773322
1137.75267896206,1233.50132656072,1090.00114605297,1215.52725896027,1311.6480735454,1052.11730568783,1202.13382475063,1294.06234104314,1098.72680055634,1242.63601058544,1378.39591882593,1026.50592293598,1189.54084563576,1370.81710984454,1108.99580496515,1344.22737433361,951.79239426128,1313.74040958965,1592.71037925518,1105.97539442704,1546.78896896303,829.020026081099,1450.527851291,1872.96020747262,1142.04165945983,1724.93647801709,194.349514695174,1239.02936549047,2300.5403718157,559.92973754245,1956.90045653544,2948.12222415682,2881.45787393875,-201.674480718497,1487.23607358424,3027.65546893851,3109.36866939131,2817.01430575384,1794.24755984331,2285.98664040512,2728.82192735697,2831.95676021325,2507.93192173856,2243.13141323534,2791.96444981069,1030.73084484154,1334.54422471434,1153.03912323604,1256.39208374234,1338.63040604619,1059.26160424374,1300.76025920958,992.473627305794,1138.48724626499,1242.21887200818,1349.86717016988,1048.59712345167,1297.32912758513,1017.30764111196,1131.62976304484,1226.77031756777,1305.43895817456,1060.67564435202,1262.11317446169
910.898064062168,985.116495013793,872.952098898424,967.956047383222,1053.89431688795,829.093246620196,969.550327494811,1026.81248057924,879.48766595547,1009.15453329975,1122.20753254509,830.636601323569,963.90742398284,1118.41911984825,912.388942020935,1101.3978202864,767.971908896933,1071.95061560377,1305.0745987111,912.537659813518,1248.8262738832,740.741564500606,1188.37315881327,1482.91743691097,1015.41890114389,1205.92004927346,97.2388553970754,881.521252561584,1460.44245041133,297.051187749863,1279.10984189421,2067.8107984864,2419.17234955075,-298.305704012872,849.275641361191,2269.27229352583,2520.0863210863,2393.48165505011,1218.66779038943,1578.40039876982,2064.62284711871,2392.63369474348,1842.11870566844,1666.39523066525,2360.88227009573,803.089727815187,1041.94304375427,890.782839991318,981.235156951922,1041.36263908994,830.933597021347,1020.44912768576,778.451545764118,894.489097501149,966.873643006468,1067.05580435601,823.585186185882,1023.13306176223,795.250647588751,892.585507186522,965.983997367316,1026.99548956896,840.805926441651,997.935994506238
650.514957489265,697.22275505884,625.57796061831,684.061530035158,751.89622716778,572.074333565379,693.298719906893,722.553408611805,633.709071353201,722.655123567396,817.780148436724,594.82051087646,690.45503814558,816.556736462789,661.501968677394,802.748530138836,527.051414800105,751.889981569568,949.656805896396,621.094328042273,865.636103409211,505.892032699476,785.946164295702,1009.51392504618,679.657177752837,605.556199981144,-194.486405332375,402.820996435244,567.047061325823,-64.0668629015859,639.478707097814,1012.54666814998,1819.87578297693,-424.972326476218,333.156269969053,1302.43688625222,1731.74147686899,1856.26176887323,605.209546837518,864.066628312056,1341.88680131238,1839.19549869748,1116.32956596902,1055.33717707356,1823.88132330893,544.520295240117,709.152212678238,600.68815936764,668.768162785924,707.304777246126,571.445624925467,702.503516029692,535.998676748987,616.378023992806,655.503896943428,741.264461279274,570.393855604607,705.639067674632,542.537513395643,619.482364601439,672.928971049447,709.437420438219,590.028180433665,697.28835665442
434.74611650652,461.752732302457,424.540250625489,457.167715428865,503.081044846069,366.473712520235,459.583487423584,477.921930330812,435.203577333725,482.123736395103,568.443230272838,402.547495821772,462.968509353181,568.786913532878,444.221719537428,557.750521933869,323.019253767535,475.194142461386,661.422915223976,348.32177919752,543.278792863875,261.512000882926,383.376287229757,635.303766232617,273.8521006458,96.4931692296687,-438.490460856764,-118.304933225123,-134.129341781631,-415.862358369344,112.712274533259,181.174166563935,1332.2521939408,-530.164680477776,-1.0463339890217,450.313817947671,1019.88495584215,1387.12565391176,185.725669088151,322.12716780721,819.861972895347,1347.90743955665,525.175569181577,591.801951410219,1356.99175076356,333.501880190864,432.757300636701,365.828570956621,409.863488452475,434.85702944455,357.928587163094,433.272193746858,332.970691982058,385.406186084961,400.548424633168,465.917873656976,357.588912847003,441.459854409927,334.716867524276,391.267842698663,428.985697357121,446.390283157246,377.210478615492,448.596991737352
219.753983268713,233.74099313821,223.243309602099,239.061693345023,264.752342045806,175.055040999861,238.582440583916,244.155765032774,231.319140268696,256.58627130097,328.05559041882,215.278104574999,245.761246707939,333.193676772042,228.30110826923,324.8979658347,117.829696187336,219.273969481511,407.055380708566,73.6615776390057,267.258421646489,4.81221807274938,1.49621198366451,358.919404015298,-198.812928491979,-292.790332878959,-556.744266992921,-675.453036716107,-601.55076615721,-706.789624034472,-375.454756087976,-314.832965374739,962.440586247859,-540.49466641105,-285.942211346258,-179.674544965096,453.831582373019,972.223098776336,-74.0221922739185,-137.228533249519,459.297302463648,907.971013576692,12.1465039789517,234.933228804693,940.51107932568,132.06620596218,171.093504552585,145.597380096706,165.039688605718,173.426829984242,154.476338733651,173.529189235136,139.580314417351,165.255691915394,157.911447931637,199.445212916623,149.301391515218,191.056016308659,139.703827622884,171.332311490071,193.865080940655,191.993292083126,166.115593606418,210.056201308953
-7.75004845903805,-6.41707523283212,5.3241399944532,5.72146079114796,16.8478943344011,-25.4653597520512,16.8600746877608,-5.04706052857334,7.44923269495454,21.4158606287601,74.8993373400397,12.4489915996156,19.9611669853699,87.0801331413646,0.259181124231654,77.7496555961395,-107.938274582503,-37.5971043596807,147.578632818406,-217.898130562177,0.0425885756770642,-275.770249992243,-357.067079716045,110.330400264593,-714.873877636061,-592.357099688953,-631.40756276758,-1201.91837878285,-860.318312486487,-916.475374306689,-792.33998505397,-579.877915012933,654.966775954656,-455.909092527784,-563.614547695237,-555.17477289892,47.3824747182386,605.176838073621,-278.015683806459,-554.50187512929,178.179342514225,528.153501337299,-450.967372278109,-17.3808617605186,572.561686096918,-74.762077717613,-91.718253317727,-75.6546046287799,-84.2081038057201,-99.0197274970665,-56.0717673968189,-84.2404597064324,-53.7501148221958,-58.6644195701309,-92.0212092537032,-71.808488710595,-61.4018520773315,-65.7261040086952,-58.922304135893,-53.9090989704619,-47.2151326722788,-71.4502578367457,-51.3868998441549,-36.9238545659986
-183.456103163343,-193.728966640841,-162.813391452173,-181.314784829653,-179.053111443237,-181.629664128742,-155.378447655327,-206.496159660972,-160.898098319687,-167.624700590053,-124.476095346131,-142.062716423482,-156.340840734209,-110.981706177429,-168.454187367585,-117.632678552976,-264.625603409603,-230.20896176348,-70.1781252560524,-422.248097928055,-217.880622580392,-450.293206497096,-595.207347468923,-144.105557790328,-1040.27639439636,-808.894215041728,-621.922892525107,-1502.95682460447,-1017.2189129858,-959.026142686919,-1040.38037376611,-806.736819950498,385.426356492125,-327.274380936074,-760.938330305246,-714.428989746065,-223.662172038682,315.948249713187,-436.333806294717,-877.588863556992,-27.8660578372009,242.813603576619,-807.439394761816,-116.45547802075,289.81888134777,-228.865674646909,-293.346271443949,-243.12420287078,-279.557909294629,-314.032336028994,-215.818400985621,-278.633926598373,-198.129732838495,-231.324661577419,-287.604667351025,-281.468517067413,-217.624422145667,-269.006246159153,-211.726669739674,-227.164110894732,-238.594610054382,-277.495384734066,-217.321919803672,-233.228714225821
-267.209123165895,-288.204498030611,-238.971726372612,-277.990250201658,-284.907510167624,-249.668107729959,-242.94575628637,-308.813657072351,-223.841141717161,-257.540447155891,-227.535632433357,-197.017785907586,-236.509731136155,-215.31790490673,-220.937607768809,-203.736284022726,-272.442350738185,-291.260381067675,-190.029894203981,-428.623565220168,-318.4734818525,-379.414163805395,-596.238563223492,-365.364243827602,-933.901056946609,-891.059695119171,-375.394859673743,-1399.54036797083,-1189.93796155598,-742.635658897245,-1080.49457273249,-1070.52645493274,135.202388820322,-156.634942437348,-807.081145950476,-779.904562462637,-419.051634017229,72.0119675074248,-521.060604284978,-1074.62948089076,-162.786888587504,11.186310858393,-1036.90683051432,-103.849464092419,58.491867352427,-297.673800092365,-401.770605400048,-331.623890608182,-384.046183255171,-431.572287194439,-288.369627281982,-382.841058049675,-265.32881693151,-321.078690759501,-393.000228962261,-396.380276055893,-290.005474980366,-380.378458893392,-286.931825232633,-315.265660903952,-347.149786732305,-390.187550043636,-299.677607545607,-344.390917855005
-280.211699674926,-315.048287298613,-246.820147204942,-298.764352532496,-319.783766482523,-243.280058162139,-257.01525710252,-323.097336227415,-210.655038253214,-260.681113327771,-253.863969271868,-173.229967294989,-230.501962348887,-232.007793890846,-177.531757749905,-190.372149700367,-160.788365769847,-224.509874215711,-199.122465207331,-255.643519662348,-273.019912167153,-98.1230930368491,-366.530921063648,-451.806264126627,-450.569230542146,-769.822612512718,102.116878314934,-928.421418219845,-1319.70977548818,-313.528448448897,-918.515272410544,-1227.06339543069,-90.0467183251707,66.0506036822966,-687.091094798199,-793.304974784885,-547.001777103425,-153.324496388269,-553.744416808042,-1130.28816315137,-227.479494596188,-199.050223659672,-1136.66099526192,-51.3062380845508,-151.47740647963,-310.105889383771,-445.804279477938,-366.563679152303,-422.904823385712,-480.204695416708,-303.467538926775,-427.062695349977,-279.670115088294,-351.025077244536,-433.52468171999,-449.904894846626,-303.714304178815,-422.418151034333,-306.097747631001,-343.063666542369,-392.112735646585,-439.480892440951,-321.413512098398,-391.92653012095
-259.426415478495,-308.490254342846,-224.389949037313,-280.468580270975,-312.725738149501,-199.085959757772,-229.527528776726,-291.391838221235,-171.146403980588,-227.754320305811,-238.527775396045,-121.9086682333,-183.875973664496,-200.200571295784,-98.0318750720523,-129.283438523915,-21.8446458430555,-101.634038940283,-134.798351041994,-35.1438983476142,-135.048857585202,209.608043871277,-62.4762305088986,-372.70797457341,84.2902544959076,-489.321736392541,566.623199962205,-364.874770946072,-1251.60780601049,109.232458540651,-620.546169137963,-1137.86956362966,-262.801552932865,271.039597730245,-491.444249294871,-694.371049035485,-587.555408780963,-321.298839105385,-611.85281978336,-1070.39494761744,-218.806989445974,-352.321932690478,-1104.7021183184,18.5815850861764,-302.271005670726,-300.676317356789,-454.085881177437,-365.211532050957,-429.096061501784,-492.613961280437,-296.612140807465,-440.550340928843,-272.726530245854,-347.570266239567,-440.46528477386,-473.07721638923,-290.195090200123,-428.050540168038,-295.896472147053,-341.830335938176,-400.018711183759,-457.233123503773,-312.840876961269,-400.793240930658
-260.174947615391,-317.251784846337,-221.840920872544,-286.953635847,-321.09905788051,-176.744683925362,-225.255220927627,-286.029955755793,-162.002878871444,-228.192494161183,-246.465350206728,-103.9164019261,-172.218029763706,-202.221406674169,-59.8196848691534,-108.678035273419,48.4430714294595,-40.3542709624013,-105.302110148577,75.7623952800182,-49.2006063367445,354.905164573293,107.990576525794,-280.582151860059,348.426218119319,-252.117495036128,749.568576113075,-21.0350888240991,-1032.79207594381,286.40938832665,-370.726208524154,-919.84216234137,-407.017929610634,351.431514810721,-401.780549711448,-547.942932894703,-615.06099665691,-442.715953133269,-790.449917413295,-1019.75813689607,-228.006501635538,-468.099825408632,-1038.68004998289,41.7084755361234,-408.422444565343,-307.658230517735,-469.471896113978,-363.536472645634,-445.464788565064,-513.77742522317,-303.359598010118,-462.636743505456,-281.046918853343,-351.915584033553,-459.202142578448,-502.911168337458,-293.632172717581,-445.245510814395,-293.989159014839,-353.809867819116,-416.280861863221,-483.621487922479,-317.362145307448,-416.808091689648
-332.566437437722,-392.217996682099,-282.434744767468,-367.165017611474,-405.78227399262,-229.869528568827,-300.142553453284,-364.28819984433,-227.9297480456,-307.455967901723,-339.379754160692,-159.595056317563,-246.562894779974,-298.156808302839,-115.761235495316,-193.176499539127,2.76176640198554,-113.11860466387,-197.914100250876,7.56290984943193,-119.641654188001,279.144060058208,51.2114252102741,-333.721820923703,260.780205931714,-217.221978184566,621.754726553184,0.391890793861421,-870.54086061296,187.413598819075,-326.618681721654,-790.130499365913,-570.07577366988,289.893115589093,-488.735125696069,-527.521809280224,-732.927706435453,-580.367826173453,-1074.92968171121,-1066.0064645671,-385.981636478227,-611.280527126933,-1076.2759636565,-87.0298158966601,-543.068655439044,-366.59060536728,-546.09963381864,-419.769116291205,-516.651510361878,-595.206351815102,-360.840642780012,-540.920211100707,-339.050620020274,-414.670123069799,-536.904829770344,-585.403730695632,-357.837696560893,-523.889763411942,-346.87893212986,-422.101669461899,-489.838942020927,-563.795432270433,-378.868876487883,-495.790494834558
-444.070101637726,-503.878062596399,-378.123378294959,-479.698526273873,-533.940590820612,-329.333908861078,-415.853125497777,-486.144102793666,-334.0247241938,-426.250776415032,-477.862794281151,-257.257842423539,-363.126645343589,-436.449896592793,-229.468745543938,-334.328613474333,-108.731269939292,-257.569548311776,-356.799753008326,-154.202437431518,-278.972736775873,93.0973473647997,-130.012125619922,-484.907494336332,7.71181329109645,-316.126428891606,398.656336879416,-141.255260667118,-808.836800381089,14.3987615187629,-401.141927552805,-744.958186815911,-706.349886598344,161.957066699684,-566.654256221134,-611.306783139626,-874.465434610174,-707.590656039968,-1246.92764881618,-1061.09879166299,-650.39213589117,-733.757264039865,-1173.04104114253,-341.767889019352,-683.015667423665,-453.344615800771,-660.583467655642,-517.737769369373,-615.398516817267,-708.921470023667,-447.601013951601,-654.11997780248,-423.073768498888,-515.627020733511,-644.930412996813,-696.26741186557,-454.604435780478,-638.753442136717,-436.337657058806,-519.883092049119,-594.217375841803,-673.883945587337,-471.589955857185,-611.80281472661
-508.792235605779,-567.234963795929,-439.815725489369,-544.11645834457,-609.756971029552,-395.866052823741,-486.322750500977,-559.969361364734,-402.825686217017,-503.137841781782,-561.653614006482,-329.939000561973,-439.287876125466,-520.546753333192,-318.288643308588,-429.547168891908,-195.107720927623,-356.706004129513,-464.654995131033,-270.45031597529,-392.444523058823,-49.850924876516,-268.574764898452,-596.907243777968,-170.52340311558,-383.280818388671,265.498587391508,-221.529311276489,-721.248392260545,-38.7555733714204,-382.098928370112,-623.087382481793,-731.500134964747,20.9704600717028,-416.601741337391,-594.247577192861,-868.396739072196,-743.608447415739,-1090.81064623589,-803.93752344505,-826.509376287587,-738.434513577896,-1143.66455271725,-547.081100295798,-731.368573537995,-502.720704239906,-723.096571313643,-573.468234940218,-666.838576914296,-765.174924663615,-496.864318545226,-718.268571971861,-469.770639845305,-574.450033459207,-702.744902365669,-752.901279608113,-508.589049576122,-705.645043379282,-489.083630824549,-572.931242920342,-651.580437240799,-735.865416251839,-522.481021584199,-674.87339142385
-505.044102174228,-564.362441875719,-449.95600688322,-544.953678360814,-606.446688327124,-407.903724978295,-495.346486649394,-562.138102400022,-419.026554077836,-516.896104044153,-566.831667856734,-356.874455938785,-460.336772156782,-534.481499577343,-357.094156514073,-457.843296066132,-232.310064188526,-386.947151631561,-503.559341249006,-304.291490535826,-438.884452468311,-108.643545292701,-318.961984133516,-651.224208722571,-213.276056215628,-385.85460083549,211.944661214534,-187.976377175237,-586.112114336698,16.8621816187732,-272.406260327281,-433.074338727283,-700.160776250676,-105.291888934457,-138.788693957692,-459.843061617207,-730.862388000147,-732.68545336741,-697.530703992369,-444.750840180792,-849.861864573432,-699.413698972789,-972.673253576366,-620.097151132971,-723.035063584831,-495.883884052595,-702.62115317805,-560.541096509603,-652.715831048086,-738.336595557287,-490.397250600424,-698.451346004178,-463.838800054708,-562.58805198282,-687.51690030257,-729.064957755491,-501.298917186502,-693.467141657762,-482.542494737643,-562.839654133596,-641.871774600316,-722.275553344411,-512.002947021591,-660.238027651892
-492.998192995571,-556.215777518662,-450.134868785754,-532.08223882116,-587.835022500175,-410.839927218761,-496.454814748131,-550.549916395391,-427.746684255157,-518.56774489626,-561.257669194342,-370.380781124778,-474.424787825688,-541.416207165817,-383.489874668619,-482.171151798208,-261.808131957001,-412.678086996339,-546.199852752676,-316.623536707696,-494.213972389237,-138.92391084546,-352.981261446863,-724.587958330105,-217.841043932075,-418.715985229683,160.790119478364,-164.998958645965,-531.356237800869,40.1516134302102,-284.312158308378,-371.404135821569,-783.49848153273,-146.006754784864,-68.3736847991464,-436.722368205975,-691.489321389391,-830.554854483752,-369.843947300351,-340.263305456198,-878.949647828773,-810.438604047262,-851.756313326664,-697.038677422076,-828.002843978983,-478.746669325117,-662.603042589593,-536.769625421586,-620.738109754634,-693.30756419206,-476.138072130439,-650.98694407101,-451.03381214806,-534.602424463954,-652.53539191372,-684.82757094527,-483.385245015054,-657.482286337439,-467.561291056511,-542.110902116561,-617.655747379469,-685.166337489053,-489.371769508934,-633.387740897744
-504.438806603314,-569.110286810958,-462.510204384095,-536.3736102264,-594.504698969021,-428.47609229642,-512.388448581355,-561.791219203111,-447.886376613454,-538.792616087453,-584.019846171965,-392.544838872617,-501.012078926477,-572.862659605247,-414.605254630173,-529.021732191184,-296.675758553923,-459.592044728482,-615.404750745702,-343.817653831502,-577.91587542198,-168.472723274453,-408.346828355184,-820.234804682121,-245.265911197424,-516.714544549965,97.3948365060713,-234.59983019864,-594.90389057524,-42.8886340573057,-471.823492301648,-496.155519238765,-1012.94120813434,-77.2234182811856,-302.498182901709,-601.598107134707,-854.995545337083,-1054.11880082611,-246.012024489471,-492.583903904806,-1019.72052522376,-1069.88953373184,-848.322045756689,-883.046343355185,-1067.57855044954,-477.82039103778,-646.729803949861,-535.251612106887,-598.38683938466,-668.293012561433,-478.65488612265,-623.986309317758,-455.043444489628,-527.264355473615,-632.569616277023,-661.107638303022,-482.342199508882,-638.358154787753,-472.381467087937,-541.302543110037,-606.843701325573,-662.752547662546,-486.297831361058,-628.573694349597
-486.030040972878,-547.668319890828,-448.10979180442,-520.830967426553,-576.972604543874,-421.723915814631,-496.073985692092,-549.082509181336,-440.059232029152,-534.70737775431,-579.135899787281,-395.316080786022,-499.578454416739,-573.500488459978,-415.678476593312,-539.751119015777,-294.731963948218,-473.326365482539,-634.098648767563,-353.11051117412,-607.639872223437,-167.601188955733,-428.932773833329,-827.463118271336,-258.313643588173,-580.635485075267,36.4902335228372,-321.02911934191,-626.762576916118,-175.984072596774,-626.855904931834,-601.227417478706,-1176.71862645355,-10.0672246347952,-560.148713304576,-722.388888482481,-1013.52232893266,-1194.44837569093,-210.838906047574,-547.297005894905,-1109.57627500755,-1218.99438201614,-761.643495133058,-1015.42607520721,-1215.14440905783,-448.746281783256,-598.325520651704,-502.654966893851,-547.546953628431,-606.981595220326,-448.473381615153,-571.804650596257,-431.019537870835,-493.685662108729,-585.716968712549,-602.634179537568,-453.811848582715,-587.73873067096,-450.342596142012,-513.834035902857,-561.861230902843,-608.067901997073,-465.008114856262,-585.553395507871
-386.100894480765,-443.484069327564,-364.264232750754,-435.448330334884,-476.542290011582,-349.571696891992,-403.200116173821,-454.246838046999,-364.058933799021,-458.074733634739,-482.652580549246,-340.23123506436,-431.885978206388,-484.085870723352,-353.265769443547,-459.154544390718,-227.736623049564,-402.709420030058,-537.620609854379,-303.903950748481,-513.491626389795,-110.987290969872,-356.941580611359,-673.894937074585,-206.136242285495,-510.934452947396,0.597735501878712,-314.182068230089,-492.734286028037,-244.762525076673,-577.279317759296,-500.5111315206,-1079.82839418221,-23.7286743162552,-562.114079493139,-613.211291089073,-918.805897734221,-1078.52106775572,-118.776769516269,-309.81726148073,-946.966236316677,-1076.94134850381,-411.817824989401,-883.129039925391,-1091.73588607745,-349.435156954183,-454.028792458352,-384.752386182091,-424.527736170605,-455.181306443105,-339.868220455547,-432.657481107128,-334.506113279141,-382.714595947755,-464.704705446273,-448.526921389591,-352.034277776569,-448.897223780515,-357.015984502497,-407.314374816485,-436.232650940505,-465.910265587735,-375.688137014789,-448.667572199485
-236.801617455496,-289.886159135263,-233.908560296278,-294.230634373845,-315.935322125637,-232.460603645685,-260.72570199108,-297.759303789344,-238.15243276242,-328.035925357727,-323.174465342635,-235.907981783703,-311.301084647058,-330.558694537375,-239.064783625418,-313.996989497121,-119.723400582058,-268.897189988106,-367.180062895334,-197.124645177013,-333.531043407478,-1.02988768791627,-210.965267078628,-434.186413578911,-72.9474307220425,-334.336623440123,39.8734112758184,-190.107088196974,-247.602270775426,-166.577550829175,-368.607352703325,-288.139700082269,-801.821236247257,-25.4139670228613,-321.881840101082,-392.354189133965,-633.222445435293,-784.500304540691,62.6025130175694,63.5136723239541,-629.443786816222,-763.55739898076,66.2907293169463,-576.888703241772,-789.703238112973,-212.913053781965,-256.151589695469,-217.843595081649,-253.796911418344,-257.584569165203,-191.455944884809,-242.277229493742,-197.786612147553,-224.487546635905,-298.372088449058,-246.942122825932,-205.992687829822,-258.456668861521,-223.512402714595,-250.125633495753,-261.920815145581,-273.452084384442,-233.737951668782,-259.783335919516
-113.46471024638,-158.670983677344,-123.937531385439,-162.155983843235,-168.797580190179,-129.617366784933,-139.019076519838,-158.206838254626,-124.650302923823,-206.129323888647,-186.913434638693,-132.271697554287,-189.614985209551,-191.324718549374,-120.788185944563,-179.41649316726,-19.7246224775617,-141.26501614061,-215.641929281347,-71.9445249402207,-168.125656432003,131.158127424144,-60.4125962134721,-238.572750762699,113.189089374708,-159.86834805423,159.61646930729,-1.74638848690762,-47.6096691415946,23.143701278359,-146.029122927405,-207.821207272329,-588.659547865847,70.8913886301805,-38.6106397760529,-269.429880093389,-461.704950477215,-529.008495544802,259.098594441443,326.117204462366,-439.928538925696,-518.89410909857,358.120299014832,-386.232867295444,-529.337487144434,-104.866499499159,-99.3966060198899,-85.8784201113267,-108.305947710672,-102.567004430347,-77.9706529195899,-93.9080398516699,-91.8091469610101,-94.072888381722,-156.642639394679,-95.7882742176987,-85.7857356784212,-105.572931918964,-115.337926442913,-120.684615361896,-114.08124393671,-117.436466976093,-106.775200826558,-108.381014282758
-49.0059876071768,-80.87340539459,-66.1839455535663,-81.7580192910473,-77.9701913449347,-74.9903618687971,-75.9452777486737,-84.5256526237416,-66.2219313405544,-131.341891663796,-113.550912305852,-70.6220431826411,-114.327886787409,-111.408823765752,-50.0650156479272,-103.676613793865,26.3621651567407,-70.6242293494403,-133.417326734716,13.7237891327481,-78.1856313784198,209.549649363351,33.1733453570414,-140.050864593767,268.930601248446,-53.9060306637811,251.983462842616,169.884457302753,30.9750264843673,185.748106375306,5.12770165010075,-322.078448424271,-549.251668465093,190.433631803022,137.225585396147,-259.584460763079,-532.281204665902,-426.553722119494,369.112607590119,403.015217234841,-450.491533258498,-427.528406568275,367.790294851026,-403.351183501168,-416.59862193777,-46.2280586727602,-12.5608736787996,-21.2759804380572,-25.545305484873,-15.5586378420852,-19.8014358667971,-18.8781619570026,-38.7824920436677,-25.8422904275332,-68.3198929450388,-16.4182709640196,-20.84809937735,-22.5234629806469,-57.0410322573593,-53.6802503623248,-28.6447614413828,-28.4953472033915,-37.1510311528715,-28.6931342440663
-14.6746166619018,-32.7023175425919,-34.8882751426892,-38.1724514062859,-27.598103266252,-55.1013489585128,-49.5707021450771,-53.2862394275976,-51.0478730296076,-95.0459697537207,-70.4954415074705,-52.0744952328428,-87.6905822799523,-74.0306750498451,-46.2493876604211,-80.5326889592517,1.21016397513617,-58.0130179732741,-106.327998402085,15.164946122437,-53.3942061377158,151.504732008477,48.4674578029712,-106.167441655403,297.894604857136,6.37122268403955,198.075952982516,272.952897517607,39.7322913966131,254.998133301685,109.859724786416,-439.520460686919,-547.926469280095,245.98901329749,226.493413930641,-220.542340768074,-617.976235707426,-394.825521415272,393.671822922895,407.439953189651,-461.590347790881,-382.628158203774,310.687832578966,-445.331739727837,-374.16328604895,-6.16188866713515,51.556963546195,17.2194332949212,30.4095983567847,52.0804004581308,18.4278978994426,32.9513703740695,-3.26081564439324,12.4565414159198,-2.45327124350875,47.3496566369361,15.5473265181427,35.6600357610164,-21.4781331706029,-13.5535621397032,24.1784599781872,34.5772032915312,-3.24892290884492,20.7618835297441
31.8969840425539,25.5151969243769,5.31710825929368,11.5272086862406,28.6507111167319,-32.2415152613105,-14.9978408260657,-7.14727981287943,-34.9475649433547,-58.7524834977163,-11.1847036617553,-44.5907152092327,-67.2355964783618,-31.9611402550683,-73.9482454413395,-67.4104594769661,-60.428462366332,-65.4954632051149,-81.5616489224788,-55.2546065772096,-42.6678012941241,-38.9344061374549,16.145252976856,-65.6677889295396,186.279767508147,85.3492178106787,10.6096887674281,337.58298190836,85.8390971177616,322.480039571605,251.746619958362,-370.679424057668,-405.136187840923,245.635755144129,372.81654417316,-47.5201719796597,-476.963550366136,-282.680723823869,441.517589257386,483.381139905074,-309.301554925328,-254.154954153997,392.071493177736,-345.563867726497,-260.941698394955,50.0929682179243,142.103218643075,82.6657689653486,114.088850860351,149.795220568804,74.1548055029596,114.602308989064,52.1014680454515,71.4837475810416,84.3822886655787,143.180887180829,61.4103784275158,117.876448074136,28.9128732840721,50.1043018553546,96.3956683527329,121.460819583041,45.2278993702195,92.5136801027909
105.941004990779,114.320503429681,69.2456325862205,93.2851133546812,121.318095253363,22.6309484298831,52.976394194468,84.0715205464035,17.6531276702572,14.2484614200327,81.0281931127963,-9.87811151976393,-10.5685178198458,49.5483794608199,-64.9038260071476,-14.9962966507519,-88.6550519345462,-36.3612692145773,-5.03881343883126,-111.885151006786,16.6620242862448,-230.016136202171,17.2833572348683,65.6465088567852,63.0234176018201,247.526563532386,-161.419412718042,465.031303359642,270.341185197519,490.36891606513,502.197940252491,-98.9810227870351,-119.969207465255,188.465186874233,671.163850598479,281.964465077488,-158.833933837769,-53.3144997654399,572.742085365547,691.000683722531,-26.9305771359781,-21.6103914147155,607.187572502657,-119.804650325729,-36.5223361935161,129.655954462165,263.054474310765,183.172047256014,232.433941994037,277.629202097962,157.823971093287,231.120880816373,132.168827518122,164.989551576236,202.160976365522,267.974879350851,133.378783356513,226.853230954816,107.582786591524,148.454392792374,205.666960310352,240.949007479838,130.394646113962,198.273994257031
193.595386267418,219.210936115431,152.934974049752,196.799949895824,233.348770632923,105.455583074044,144.606353362705,200.028181136433,104.044532771965,125.889025948839,191.046782478669,66.2087748298807,85.6697313140004,162.749121401839,15.9613462392124,93.2440214692913,-36.3989837023215,64.0415089264283,129.929244581002,-59.82289653486,156.327648031463,-255.24872363895,126.897694647727,306.966228257014,111.99848772195,509.794195311649,-145.818619317168,721.241530061324,605.783129910898,736.338609009924,863.895242816516,271.858463496872,166.551750140663,58.8964835824361,1034.5073227974,718.789035370821,147.722042215266,190.088380998029,733.345236684293,993.473546303151,254.30923714485,227.394275382074,855.166176299534,129.73469296291,201.613175137857,215.683340153726,378.212297212994,283.902621872192,347.749779816927,398.624597890477,247.809974933639,349.904623022269,214.34032098717,263.979520655183,322.535992640278,385.301488247072,220.95303221481,334.545580123271,197.690002706417,249.961546876393,320.884646394749,360.268939061195,225.447661557815,311.224493487272
257.272710346355,290.540780356142,222.812345163635,275.972137097033,308.205251592589,174.491645984032,216.891241513917,280.695981214052,176.649264948812,223.244055878333,271.881384360177,148.04154167801,176.106830388988,252.823895080639,119.100927038804,204.115540190465,65.1027429787838,191.7631408489,253.057487809496,87.8785365027361,314.651164477912,-91.5557321673751,310.097180538214,531.550099135652,358.232000321638,757.822744429663,79.4159269222752,1013.68623435396,919.920808628541,954.853393569507,1198.49437533035,563.354283739369,327.496509095465,-54.7057859448476,1245.09763615874,1062.85406539601,335.91853768014,307.978030452174,844.405988775091,1243.35991627186,388.206155112148,358.995449556188,1015.78971369526,287.356760194351,312.416874305814,273.706995773478,435.074495781362,336.853850643068,409.313408629237,462.157264912782,298.466521111332,416.608552780737,264.391603874871,320.089020569856,392.108918041743,445.902953849316,285.063221626287,399.767815424841,258.506457314456,306.753578312747,384.835072848717,426.834574255585,279.891379822462,379.864899106321
258.478027981919,284.3151963896,232.37537866308,281.066419830904,302.103131884535,184.333748967719,224.416602691203,273.574282393191,186.903277547002,240.77521761755,272.382903170273,175.120292002673,201.896197906518,262.101889588353,160.168231028545,235.140886991674,131.893937241662,251.828989451759,274.478715330412,210.541489692554,372.805736824106,108.466885511433,430.370886116859,578.142274580831,614.976976278325,813.888983152541,338.50548631872,1145.71341388278,980.996829190166,1059.78049071275,1296.73803192537,602.467325715158,306.49773463504,-19.7127674072807,1180.48489962774,1054.09089154841,376.51543785848,231.688126912057,874.854968869222,1260.13698319859,296.388042916388,288.960692387351,962.173833923383,271.490473736206,228.407097093383,270.390288581099,403.281884811171,316.03747720598,384.193738580875,433.169539306706,279.245699721422,390.007173524707,256.497561756969,301.731238639513,370.736913067703,416.543806252185,284.147531891339,385.48524912521,253.945227506806,290.899116450749,361.135551832719,405.16323166702,266.122378643013,361.146994095174
201.832285113204,216.88645536385,181.054705017657,216.450873311094,232.295044338782,138.856960081678,170.447521763013,195.431020128929,142.97548439936,181.223293495886,199.745517829819,137.025993883871,157.256587861775,194.889159564126,126.944812856365,177.6861485787,131.094400955301,215.478995594829,196.297502511019,236.143550067053,304.505917188804,211.37373315436,411.942878456882,458.416995889194,706.564502146979,665.189535237687,470.095450969013,1042.35485997778,778.270693604321,1030.00585645444,1115.15057316375,392.823403600893,128.631562751823,161.202339555926,946.895760095295,678.062808483476,279.468608749529,13.6956114789304,844.862269100303,1028.14480054104,71.8066019722261,64.5005782401327,681.888087460322,135.506740355988,7.43639954161233,213.675240842998,310.477533799287,242.437636834211,294.624879904459,333.95110529835,210.60002419222,293.991817253362,198.258724331858,228.764460522585,283.253633787073,321.746954298875,222.611223868209,302.65499423755,194.135532482159,221.993159026213,276.752605347408,316.168260913993,204.936561533446,272.875686844937
125.56327438788,137.939875801766,110.892010393404,131.10529606014,148.079509708846,79.5316736338137,97.6021162902958,107.152226812361,84.9320257010123,103.99990571066,109.260649131467,78.7970338029498,87.8317719354356,107.022019448162,74.7918961823637,96.4419680626849,101.386257423663,141.028251520432,102.317965063044,202.942386480615,199.78905568112,224.806282419842,310.737406773572,320.197517611706,629.702512728848,478.356431054781,481.160112462138,824.748381679144,513.307849581839,900.535202134652,818.871412600789,111.193858020907,-114.202027997638,363.880654093137,730.425909197098,194.538816233646,88.8635952983181,-229.495924990313,788.123426059657,719.956890188888,-120.121032573922,-190.69111333054,314.096595468533,21.7507206343323,-235.114975838686,144.862276947701,211.548459643279,158.935650215966,196.675194071812,225.070731334226,134.689556015742,190.294007353128,125.692881263955,148.463061058325,190.683939542288,218.681990676295,142.091870657144,202.995568237018,121.170522398027,142.858432289261,185.726053746469,211.834991495195,134.118842445664,172.946913231532
42.7764298468017,53.6368043619713,34.8714717408986,42.7956678490267,58.5583790769833,16.6581433041212,18.7259506229445,21.899327241741,16.0718447487175,29.5583988959919,19.3252411201274,21.0197822997,12.2654537188815,19.6763776744595,23.7554100296329,16.6471292090773,60.0907040289294,62.9040480811902,16.7423538673183,145.783437464312,104.301475827501,198.541552679084,188.782655507887,212.723868170642,459.562092290163,337.265450650193,439.469931294571,610.958526339468,302.716532799137,724.644998493286,531.364470312854,-108.383897392781,-355.664577775265,493.717089646006,589.70520894554,-222.591393849205,-149.083983275567,-436.698118433382,684.273317578279,457.778160608202,-238.544638189965,-412.518848434054,-24.4297596990273,-18.870608547465,-442.093879500983,79.0411545033586,118.475282842095,78.7898849479449,107.29262661385,128.863938083881,61.5905128171669,96.7960182615891,56.8529601705117,74.0448391942297,106.222645972458,119.781667659819,62.5833173463883,106.055803446437,48.5173516846455,63.3724842713059,95.4351376419055,107.599364561082,58.4540926134882,79.1183703403718
-66.6163199433269,-68.2806031375034,-70.7461930910485,-74.3861329767636,-67.84675327868,-75.039375900427,-94.8241171567857,-98.3183095735551,-86.9848680030726,-78.6176543242413,-105.826615404314,-61.975667963515,-96.8388181174942,-104.66353724938,-62.5614491672067,-101.631769681285,-19.0910736386791,-51.181008191997,-121.779004548545,43.5536796624872,-38.0625154345616,133.790427220077,30.3647151981294,51.1922059960599,234.399600431584,150.162615809297,372.578656491516,371.350051585168,87.1278569336318,529.365186803088,188.615820093372,-277.152794800955,-602.291849749545,526.545437199582,432.302239528228,-651.677538295175,-407.58649787972,-632.42363376488,458.628996129007,151.338040151407,-367.781670277201,-626.938052040015,-362.62381774992,-66.9342400680987,-636.694038173071,-13.1322976476157,-5.01165043450905,-26.4504351592642,-6.55497145180349,10.3987489486854,-35.4277661297861,-21.7805881871868,-31.8785311573035,-26.8436970012978,-10.3834633981123,-11.3486490387761,-35.8978995133366,-18.7663991323954,-49.4525391325681,-45.8675848406549,-26.3337488205837,-22.8400611005475,-47.1003994663235,-39.2611754022408
-204.687736359273,-225.910683475418,-200.842963101175,-223.549971380998,-233.37803976372,-191.652983953824,-244.103383563368,-257.130745740163,-213.78024433653,-231.028335760697,-277.229710700363,-175.496294649409,-241.514015958415,-277.440213961082,-191.586130396988,-265.297012786861,-128.560974558683,-213.518798987757,-322.847217743992,-99.4679388567363,-246.414364993943,23.0660640001148,-173.723412773581,-187.587391437252,-17.3515955584082,-128.508628975903,297.513304175151,59.9998466663576,-151.059091772074,307.770556925512,-271.193310989419,-427.509165699038,-850.745419428313,478.114141960861,146.273197045563,-1128.2239653836,-669.468141534857,-830.965161493578,93.1658501402944,-334.914958812726,-565.160760607488,-852.145847147516,-747.683417310519,-195.429330358546,-834.973703309067,-160.04967656141,-182.080209192438,-184.411427616199,-170.475532706625,-159.288497874383,-182.17925236259,-191.218084710453,-167.419520006645,-182.277773949452,-183.16394542856,-190.810643637024,-174.821828129676,-192.419546759643,-186.772904463911,-200.413780770114,-190.654253597088,-194.42108543605,-190.393035573908,-198.21164115135
-333.602526041745,-368.95672371916,-309.052482413725,-358.486984164927,-388.304407217896,-284.768184133467,-373.026801583809,-397.482203312469,-317.697977762049,-372.219594817162,-437.753589133224,-271.441583025641,-367.291593623272,-435.639261873872,-302.911699642013,-409.127671998711,-210.332709022754,-362.591383282761,-497.524485776042,-222.263571579806,-432.645371555825,-99.144188145284,-358.785187804564,-394.53278073524,-235.827462402589,-374.047195111068,235.861425824568,-251.065612337922,-296.545305620852,48.1777142159501,-716.17810308377,-513.117773796203,-1032.42294929285,391.600331657242,-267.908347768787,-1449.13443285447,-908.822147905273,-987.683523555175,-311.249099207164,-920.118691375806,-772.536674062549,-1036.87464633031,-1068.06739405621,-357.925454906167,-994.102828475516,-355.062416810522,-390.751946809631,-385.438485120954,-372.58613070424,-360.508764029434,-374.361410019232,-392.105103111505,-341.844219187256,-376.962983861942,-386.813308433095,-390.9583565333,-346.411464430368,-390.480813186161,-342.2613713375,-372.387724233444,-372.990087224453,-384.024090885853,-343.794105377662,-375.951625753961
-421.373967390373,-464.979818999881,-369.575822348184,-441.532334117023,-492.481171902604,-322.791888394863,-438.104426552589,-475.942931289649,-371.329711550762,-451.92112225448,-533.311322478296,-308.684038729223,-432.624031413311,-523.495947335711,-349.670022010039,-484.420056318876,-235.234214643136,-438.314780577999,-581.945915327561,-291.235291860039,-522.542871184535,-193.114933000772,-466.110109040094,-484.849955747524,-387.684389690713,-472.34753814918,176.210548099856,-474.105830681948,-297.336292926865,-224.580317130114,-976.295944300361,-486.564043374399,-1101.66268402908,296.553885914301,-704.820805382119,-1440.77252418789,-1076.51485513803,-1085.10701853147,-641.207613359146,-1371.32972455896,-888.488988340616,-1129.81693428495,-1155.06885630985,-454.125760861121,-1085.56488051049,-591.091095880884,-613.871334996684,-615.856492654922,-599.181805556896,-568.545947174115,-595.865350394904,-599.78829114259,-534.49410318551,-582.025821598723,-590.45007015957,-590.568460978682,-534.036442048654,-581.994893478183,-493.941629252751,-532.733888018808,-552.55361070875,-564.492285093676,-482.653148680531,-547.655073367469
-474.149062337467,-525.83999669267,-397.943797443939,-481.898878332096,-550.779785676007,-322.351686397777,-456.078331159223,-509.146889669246,-386.465603170239,-480.215645502637,-576.107614796071,-301.270816894741,-450.182597432436,-557.586431357185,-352.374415337721,-510.283559466345,-232.977999532807,-451.091301042403,-605.767537352367,-330.264833856559,-542.77525683866,-254.112542048671,-508.395557082718,-500.706351150561,-489.658901127921,-457.007686321236,97.0622925854273,-590.809175048014,-252.153350110213,-422.7636855837,-1063.36847064113,-394.349345724747,-1111.17735046712,195.729442762763,-1051.46746151612,-1200.48817217399,-1109.20414213146,-1170.44394130298,-884.695002464997,-1618.38224454305,-908.009746819308,-1154.40694962492,-1057.21173146956,-489.988661338723,-1148.81111394229,-880.63353604145,-868.4631138586,-878.948363786053,-852.21671123541,-789.338430804096,-833.155545190634,-813.763940269694,-731.657844046821,-784.445227840506,-788.818950484424,-790.032280684839,-721.012700441888,-762.179594862478,-630.7555826117,-679.496097760268,-724.424102423175,-731.372458215068,-604.717039197283,-699.973371747708
-483.141153737808,-536.683388395669,-389.870480790352,-478.440349908426,-555.20305508682,-293.986896532203,-437.333861092889,-504.978514944814,-362.824964751888,-463.176150276639,-574.93002259588,-264.755366763834,-421.312359355808,-547.419554325421,-321.393164856456,-494.852430371353,-211.535526887825,-416.218090877376,-590.320296922227,-323.838771081988,-519.691859487092,-256.009101764172,-478.881960829174,-491.990944193725,-499.890453985381,-375.763125940364,47.6769104752958,-549.75099962276,-205.419635701975,-444.185900651197,-1046.23427725327,-314.733220513109,-1118.54625041223,128.455039879121,-1224.52352220667,-941.46629395552,-979.94630961436,-1249.48412203522,-1037.16892127873,-1775.45308560335,-923.564891135861,-1162.02151328175,-1005.88736018176,-576.892381272297,-1206.45052238646,-1155.87584960825,-1105.82042568595,-1105.88075383939,-1068.19762895651,-977.011771744204,-1014.3694231122,-981.226099962874,-868.980235794405,-925.961777925019,-933.993305306773,-933.644698790549,-837.995403864037,-886.483547774606,-702.360659061344,-771.321330550905,-837.011253014774,-841.903734229762,-672.303605088818,-786.693750205889
-388.500702932171,-429.958812771867,-297.269965201643,-377.783347084686,-447.870460124557,-210.055515701061,-339.196767735913,-407.34709709408,-265.337968421431,-353.294530485583,-470.468465878039,-176.507467050991,-307.262346951035,-435.699357902298,-219.287836108839,-388.549455782262,-127.638705867375,-296.580508806977,-478.995201660379,-203.259137109127,-398.478198696817,-141.83462511396,-308.918562824259,-398.674186764719,-320.075488710699,-179.095930858873,98.3096090336292,-268.624245482527,-41.3932565577916,-272.452817075078,-850.335833772554,-223.646849408946,-1080.32113676579,163.503226800276,-1175.35103934029,-727.514995260579,-727.275701357657,-1229.75147791186,-987.987503458406,-1822.54897878206,-949.525410594621,-1135.08041316044,-1045.35519657793,-725.967737704752,-1188.86587348341,-1199.01269394709,-1141.32396967341,-1103.72632652749,-1067.98996925052,-969.008550064361,-975.056139432611,-944.331569004547,-803.446741679247,-862.71631507893,-882.744062069076,-875.724936558176,-757.665102744331,-820.915698657908,-609.444278367544,-689.565179587152,-763.779527569293,-770.016723971145,-587.202794484408,-704.038781693148
-174.148361634548,-192.951189344049,-116.33366915461,-162.688317879964,-209.189284620138,-72.7044507480384,-154.796146405515,-188.853206886652,-101.227899954974,-143.139017616246,-236.798250074278,-48.7871845817462,-119.014753116619,-207.836139146287,-63.8011923550831,-185.297250484487,1.76297327160874,-97.8908021893553,-252.841554659002,4.92478221827479,-164.613293511781,41.33775262631,-18.4729310824788,-167.114610851478,-2.30827462298826,147.176995984153,184.86365361307,178.229930312683,311.70674173473,-30.6026450090452,-397.774186354025,-16.2104575753089,-933.129117694175,265.373414039832,-935.221248917904,-441.000410767506,-407.320417051168,-1036.47308725565,-690.168065596592,-1582.1859855211,-836.20393570675,-993.422530885459,-923.823133010984,-761.919268508282,-1014.51723283709,-817.565223124987,-809.555020368653,-718.273547784139,-708.521117540388,-632.700641086007,-600.194309783646,-586.571791219108,-451.922351234289,-499.675292816139,-529.046260833635,-523.797188479968,-422.553381833271,-476.646077819329,-312.786246360942,-367.46570009035,-431.74944157166,-435.404303710811,-302.869401487276,-392.418787688508
52.0045067483434,63.6134339343587,54.5748985648062,67.1287991664609,59.0259475557731,43.0028753625383,20.5969378085286,53.4455531805294,34.6615694325863,59.5795633114641,18.408776258809,32.4599054115247,41.0054496426897,23.5404328959997,38.0421137534193,6.65851324605207,60.5100128789556,66.1217688966881,-21.0377476784187,147.893439561402,60.6941490377156,128.788887412752,223.070156356763,107.291498335279,229.657386626562,467.190716622017,157.902770097773,540.468779678417,731.869625808118,78.5465486810832,175.048764271933,328.645506032739,-689.439193986067,286.185792800651,-628.527239606731,-11.4925717744861,-57.2809328707357,-702.520687551761,-339.071659047679,-1061.26232433887,-456.259633013019,-696.018118392753,-454.589908913807,-537.085515139142,-686.860377862904,-91.7000922999568,-162.819153604238,-43.4513400235589,-74.8558793255266,-50.0756732800815,-7.11438451266746,-9.77636750544533,53.3673213825798,43.7757311422489,20.3917702300903,9.67338062730182,39.6453287379833,30.6697880054575,68.0066163818721,72.3980164608997,38.4806135317201,45.8091839438683,65.6967277127795,38.6292055650185
163.173344745605,209.867721923523,118.016611024959,187.996892360101,218.714554414939,71.6777520837955,93.696678969229,188.712256116528,63.2356612076434,142.601367218987,158.515803866796,13.7484041388963,91.1855155401003,137.010932284111,28.4967528506792,81.708577008542,-6.48749089274077,104.381195013805,99.6034057876172,138.353507747705,160.642018939573,55.2467527203419,286.871543632985,287.151672879855,252.026768879697,628.412413104642,15.8410764114662,637.668833202887,1036.53504590005,-29.2307172914687,610.281523520766,677.067017799323,-400.493312274767,190.172062159904,-402.445830713156,409.196361067504,243.878906518147,-329.722205637774,-189.224893924358,-508.932453397862,71.8350079853128,-321.389812710826,206.844713466892,-163.143874655983,-301.515448858492,636.835137996395,538.373317408247,607.545282840356,552.994536761781,526.645403313198,506.00594007502,524.090280369183,444.194532676512,496.135122614202,499.357744057069,479.869216328576,394.001257968882,455.112974901983,335.985096721257,403.008513593442,412.315447785328,438.330818058106,322.30511260221,376.803321561297
140.579230265443,211.259107293156,82.065677167244,174.503639575703,221.80403216032,30.7247672222935,71.3424630118947,181.644195249053,12.0857604550348,107.200021682695,152.734433400584,-53.5642253817293,54.6278978043779,119.963990587908,-33.5601784486791,45.360453211666,-110.142902910592,48.651761715877,92.4496543156909,41.6572555551391,137.621242747466,-72.2291891393615,201.135496765102,322.805498990616,132.954240006137,592.646931866485,-117.353157975265,500.358951333407,1110.3689135754,-229.022059652983,732.750032338257,815.801634133567,-191.719170591384,93.4516544659762,-350.927324903943,560.269415233808,331.329867258293,-98.4568593552385,-304.230858630829,-149.123720121777,416.887592027558,-86.0074849299899,710.284538443761,42.9017807209382,-64.9480831398606,988.216259175344,951.516255038025,907.616526499803,869.192824572139,826.705841757545,684.974635130538,768.043619956998,538.056640947917,642.843523895365,681.39291901783,677.611357274848,478.327968485647,606.540591198967,382.098981031375,481.349621629981,527.893923276435,568.812332090532,360.82378242797,475.35939173708
31.1620355035463,94.9646650452224,-0.536883463942938,65.7886567164609,93.8376489871553,-33.6419427932801,-6.79712026591075,64.2942345547555,-59.2401179375558,4.92988067205813,33.1707065218897,-107.58404016533,-20.7427417180192,6.32849378896971,-94.6733747610014,-57.5975422997899,-171.324928513471,-50.5448118817249,-25.6302641271932,-74.2993644882139,17.3069967980573,-173.723127420263,21.4961671634975,192.993962270914,-65.608557412253,370.65137525022,-240.811112509754,217.606691471102,889.731184044575,-423.472006202391,501.22595826081,601.654437032816,-261.41475131667,-9.96408941485267,-487.03961769916,285.321294957889,106.533413715966,-207.801476294196,-603.117239921147,-63.7663830311955,326.474190001718,-193.772348405707,788.128706334367,-151.647873914643,-190.989694420199,749.646401208493,803.612913859533,680.116964802775,680.000006596968,663.738935971243,448.828509322993,583.653779251984,319.479780473729,425.285152330028,480.690291699079,496.740997674486,273.695565027256,416.710930186387,217.119619145304,296.534487541125,348.733419036621,384.8113908337,200.90874565382,301.562843750316
-121.501096276721,-97.5007580351095,-105.465288194592,-97.4456441992922,-113.825323004508,-105.041106039778,-124.016890507549,-115.729947906111,-137.73503667368,-134.472514053069,-160.988246611415,-150.492481590656,-124.175705659038,-172.428203373202,-167.590124648787,-201.034147122159,-214.535427285097,-185.638764631928,-224.774258979173,-211.108119281043,-183.535347452275,-274.310768347844,-230.423174800904,-77.40279066184,-331.420132134948,14.4909229974328,-421.260269079114,-160.493983311094,437.892419114147,-652.05723386154,30.1773658057371,157.396279998504,-593.707546367577,-232.422242198451,-708.905953936683,-296.249590563923,-261.174577710129,-591.572384033214,-971.256336944343,-197.305307416624,-76.2578362935947,-559.970938624748,440.606203866837,-651.862074009375,-600.69680864948,13.825022451379,122.147442721527,13.1132434374105,50.053299223083,80.1201165121548,-91.8271870471187,33.993934917996,-103.214606945162,-54.5600539496296,-16.8078595619293,-0.793263062711282,-117.092814291297,-37.8408326378774,-77.5525734663165,-59.7620753472009,-46.8241798728129,-32.721243125972,-70.8583672972099,-65.5962570007122
-242.825133933347,-263.968606703905,-190.698260477492,-232.680689380242,-288.173877803431,-158.566718165393,-223.225637932607,-260.811236228308,-201.791182877602,-245.789221319745,-325.074830344003,-182.279823632239,-212.669496462262,-319.887477124469,-233.905522486479,-313.104716110054,-254.799860660355,-297.436091364969,-384.945703279608,-328.368884093506,-354.947023029912,-360.301878614898,-450.71718943704,-308.54641640173,-550.955545650708,-290.424958006148,-554.73965761031,-489.320034005103,33.8919156830253,-826.756337190147,-400.793391211849,-129.493457337716,-834.229922169299,-451.46690965705,-809.412755926446,-754.435426441768,-438.93497192533,-854.924325774371,-1200.18377927277,-333.38746770387,-371.25206170836,-816.790728434574,-6.66216617816704,-1093.12145226016,-886.370834283161,-780.782380963846,-650.971109359196,-692.897885649025,-631.058609446384,-558.442882424654,-629.89524379211,-543.289516666641,-499.6127185143,-521.702333587058,-520.78915698908,-511.128394963706,-474.237849479675,-487.580745953992,-338.440663266394,-383.279297356011,-430.899057382711,-436.676575540128,-307.150078742857,-407.504300691328
-233.424567390507,-265.950963217482,-182.101298846426,-224.973788570189,-285.262482953394,-144.496559407775,-209.035564095278,-251.32209743328,-189.833918330961,-228.458220594076,-316.608547162507,-166.01384278698,-199.300834000851,-305.319942795591,-224.072839476086,-291.424106326944,-244.733487236387,-284.240308999118,-363.562807851615,-329.594922083152,-352.191827997435,-352.087292059033,-479.864782551853,-304.029005065728,-558.954621337168,-349.868778289389,-489.366433173727,-559.154214883384,-41.3130529479858,-729.203505778366,-541.912787304384,14.9395771966694,-666.301232686443,-392.163122448973,-654.217431420492,-696.514235065706,-255.738246105205,-680.280355166055,-1041.1465817974,-257.324394592187,-289.967398957509,-677.752720192201,-158.565544729259,-1157.58615347928,-723.335188639711,-1066.14516044486,-940.660273760169,-927.711654361697,-869.962618161564,-775.88997057328,-782.599282363523,-717.665400670716,-584.620083465889,-638.350423896133,-660.78011186376,-647.445302695356,-540.390219633476,-591.515542234789,-369.458360501682,-434.837464110784,-513.774277113931,-525.042365617111,-337.205958679166,-463.850487011184
-64.9198230179596,-61.7460764506403,-52.9492509531078,-43.5740871855679,-65.4718766985874,-48.5138747632923,-53.5191583048242,-57.1987169471237,-76.5046436444401,-58.376448473386,-102.61661951447,-87.6953402598268,-56.6884881955128,-104.341357248,-117.885228536702,-121.216659259565,-167.207501280683,-134.977464362955,-151.860145920369,-196.272127589125,-168.680643707165,-239.603290254751,-297.816840594918,-76.5497733885058,-354.488016139959,-179.793051925426,-287.997746761323,-358.63730654979,207.114482999512,-383.224746689593,-395.580929311085,474.429944787027,-119.757384690553,-67.7444559544338,-346.612113591164,-167.696537704906,193.699023181369,-118.562132971191,-514.792493477057,8.55797194474817,58.1283139897358,-163.322157829646,66.8592834019374,-813.787529404705,-156.294394966919,-593.390152764818,-522.223011512871,-483.422323084037,-465.475451808605,-387.312035679452,-387.808045952976,-328.621353360563,-243.766020532169,-273.039653042722,-286.356313658672,-275.361153408838,-219.163729628444,-229.372716784932,-105.662579193657,-131.194217317896,-187.063236717408,-187.182574818111,-96.1472490320668,-149.118648297287
199.502002873345,262.316409258651,153.54010243394,235.69732628766,274.546190662044,99.1113769812112,183.91299513235,242.760465300429,99.1119711642388,194.499412610114,219.096179392325,30.7678154626882,159.230146132331,190.428889953947,38.1748394319135,119.645574563245,-58.771615203091,71.043644837719,146.203207736506,-14.9468118705243,88.0482640791734,-106.322701509189,-40.8306482955468,228.569155964529,-102.052474440784,71.0052909270626,-134.049144783086,-82.5669944797946,567.19827928927,-66.2295044363754,-117.060115719809,966.603521438548,586.589843032187,212.394435910104,-95.763939414104,529.569752944499,725.338355871506,609.527034785695,14.2811344331392,321.42841484444,452.002483162155,552.18126376915,475.013851470889,-246.93714048407,589.555741527634,335.166501072211,324.758106671991,365.536128789703,338.491822994831,366.094649630702,341.203553200016,395.284028001103,353.854520475171,380.097649348812,399.373619037786,393.493983669663,338.363425759347,399.350530181483,336.789383242971,386.782237450294,383.46182719769,408.096933814266,319.30244027812,383.058248820835
476.795097950807,592.592596914331,381.235174031802,523.546704576915,610.974362497323,267.383300543283,432.24798531262,546.571482441499,290.492278377718,454.428966389068,537.067922641155,170.085496698849,385.108149847431,481.517995844948,200.068944186084,359.764679692824,56.3893448527784,271.776401169106,438.423739120453,139.647697190469,339.04918769068,-10.5854267607741,177.470494298928,523.232421383922,75.8086855494532,318.772016147935,-79.3069831311184,135.78899014425,866.156100351335,86.2404670653924,200.520944316689,1318.78283377467,1268.84340827041,260.571793299409,42.1358805321483,1222.62686870051,1207.92829777452,1339.98919979591,251.367447730582,649.355102607806,810.64715637442,1313.1483711115,904.977742249863,370.308325207103,1342.76798672805,1190.91708576306,1146.91875158566,1164.85950586084,1121.55527695179,1095.81938278926,1038.85643880384,1093.52597164404,935.272751557573,1007.74017003151,1060.87831643342,1042.82890472205,886.268528605117,999.306404622541,786.449444918166,898.181101189198,939.224753430173,988.166485551367,746.207449317682,903.54471430961
707.440982079255,857.351308837674,586.03331958843,764.507376826772,875.423402937579,429.271850796405,643.518492554379,789.906898214284,468.501939830785,676.684185395414,791.76894807332,314.565491630716,581.698051630734,720.514788266402,344.994312745537,566.231723378417,172.053341463836,443.958733797946,676.505362865424,259.421173291213,550.556928308621,52.6262095839673,333.65988219158,766.332241736321,165.645350496659,524.308829423538,-74.7513499434549,281.135521258107,1030.41481824183,144.266829983245,511.175124563522,1485.26885140646,1808.5191242147,130.793770735608,174.974360687294,1791.60166620832,1597.41622810963,1938.07185529203,276.483382548394,980.550955924849,1127.1004141598,1966.17852112785,1278.5727639343,968.393219738778,1965.01387287566,1696.95459478234,1687.59712000821,1671.00056808758,1633.96772834396,1581.57254096955,1494.69947907225,1556.80135743836,1338.39429613824,1428.22746863327,1503.36429040294,1484.38245060651,1266.54725604688,1407.40199343017,1124.73269779714,1260.70175744733,1327.01545850258,1383.72470660352,1067.51050064329,1273.09752182182
860.967531049876,1025.95362185512,732.64605769612,929.507629146566,1048.66291993487,562.685288693873,790.80717083845,954.727459063685,609.42767212988,834.119428850492,967.761369389689,441.71866994433,725.308671256531,891.767050265167,459.437913459022,720.05208489753,267.422092411682,571.144016889712,842.549478679386,347.719654839392,695.867065577005,80.8163991142269,421.956734004445,910.724482428128,157.260287973348,631.539782085354,-162.687832533151,313.561309836295,1080.07317300363,85.0960131423084,773.232407884496,1538.98152751209,2157.66159800213,-166.368095907567,415.90171426519,2061.35919794337,1928.03317084278,2310.71605633719,361.186125686902,1274.5014424419,1409.14276084443,2382.38068335117,1533.68828740091,1508.55169950579,2351.75243683576,1890.18197777103,1931.8367096688,1888.69405961092,1859.7945610691,1807.14549196061,1694.64870479621,1767.55323671689,1528.450515647,1620.98137945272,1707.68676641177,1687.62658305379,1442.72729783137,1605.12441379416,1301.04944632387,1438.47917315376,1521.02578020384,1571.43621014001,1241.6527518838,1462.56152705885
932.184179036263,1095.36802278247,809.602464213869,1008.31579387484,1124.81067537013,659.417224309696,868.834352096303,1046.50359476474,696.072445506165,915.064047107202,1066.88229051069,532.710208085535,807.811955603998,990.465345374417,541.276354109219,811.103070276097,323.630195862767,645.808746301302,941.261490112271,392.980212923172,768.328032624515,62.8693666754358,441.927564425216,944.876045669861,51.1384497491492,631.14154398568,-388.514610582837,200.469380790406,1075.82376675589,-150.616002992302,980.796101245783,1552.73180187061,2302.42653618339,-654.883575512688,792.95587460096,2019.57128578885,2175.22301779419,2461.20126399397,687.357809903309,1602.75121479169,1668.88018613101,2522.50052741228,1674.8191749541,1897.74504917712,2493.46183730761,1889.02565699269,1960.80639409005,1896.48400295862,1878.36957643734,1835.59534858742,1698.90814676234,1792.06903060115,1534.9054060589,1635.50836676441,1729.01437300433,1706.74735735818,1451.65562999651,1633.47950552882,1325.07468949803,1459.41262297594,1552.17144351237,1596.93785863153,1280.3973834861,1499.83772352906
918.306981420078,1067.38832067235,817.074441287065,992.792158620498,1091.01768665636,696.317360211812,867.517312473122,1046.98512595504,712.062287382967,910.113713093523,1068.21882713112,566.221035397104,816.461653040746,997.191050022711,573.418510787228,822.966118029908,335.557404565209,654.416794472088,954.236122794868,384.974356472171,758.000381626926,13.4443816417134,408.43154335397,870.250728603886,-84.7628190310618,540.925424669036,-615.563109509528,2.03625538733803,939.252921795367,-386.523583165464,1040.86316679578,1400.24097044968,2211.66734713069,-1056.74604668643,1139.10390928093,1768.64951936085,2179.49488304795,2393.83140828319,1168.20060713347,1931.1654295533,1796.954568428,2387.36081829395,1676.08350022869,1967.95945346002,2397.52821928508,1750.42506389403,1828.22920538973,1745.15226714287,1743.76597162111,1709.24785736552,1564.15766817244,1673.60231236841,1414.87021538762,1519.2268792817,1614.54595159666,1591.24559817255,1346.93426322451,1527.05729022748,1238.11317870754,1365.98240831918,1451.14493743644,1492.44321145722,1207.8680816872,1413.44876255867
811.547450076765,937.879124281066,741.40799993001,874.785864781108,944.910936525837,639.165544718234,768.848870508705,924.370782930712,642.826213726317,807.791887250034,941.317757590081,518.891406576941,731.799817898593,884.48162634865,517.877529725853,728.273468095348,291.467180821487,564.768414251237,837.199060460884,308.271209718624,627.787220724998,-68.9754408125512,303.387838597024,660.199963606727,-219.385134408225,328.303819415129,-720.806362727988,-229.368843585663,519.868414595147,-451.874211264417,785.11769985453,950.324297838099,1925.10114362896,-1007.96387859302,1134.39873727392,1305.59163413061,1852.95932596204,2078.93796574903,1454.15211368008,1903.81451023134,1637.45277841849,2000.01732759689,1377.0132490421,1620.38094896997,2050.49510453761,1472.57779721722,1535.55118543148,1451.56040980409,1463.08657728337,1431.4911235132,1318.51089034642,1410.64130623549,1206.10154988033,1286.61441535296,1372.94671296924,1344.70687275969,1150.1440917737,1292.10292272147,1064.77149180141,1178.00979753206,1232.15483801433,1264.17049505525,1035.89851719149,1208.73920008287
639.328106233606,738.383971098157,596.352696500838,688.561684929751,735.729094467603,513.264846723687,606.188709142132,717.724596712579,515.622673412488,639.45358568533,728.26937769551,414.17117333043,581.996714239753,685.846886602527,390.484732656133,554.840048950999,206.502379303639,394.719030108738,619.276774112979,177.237137096986,398.906237595864,-179.794209554142,115.34076388951,351.208638349992,-382.251842382469,-2.59287801663122,-774.709654651514,-506.27753502382,-89.2889869395339,-497.616345005066,283.202919339548,374.74186242099,1572.42094691724,-642.272980054342,709.699710282006,724.230906070392,1321.41385973388,1583.91585066507,1310.67631989373,1333.28459372785,1252.60191812298,1477.3234976465,741.329081638345,1031.86397470408,1532.37387608759,1081.23123441611,1123.12197219518,1058.43604545673,1074.78334708964,1044.63140722525,989.890563791353,1043.44058244006,928.166228769656,964.866503606442,1032.87027364361,998.151071160887,878.028333418112,964.370937942769,827.575612902674,916.570996916498,933.857402828838,954.342705111195,799.075599920597,918.847011530642
477.408972313894,551.677572716617,454.992278698221,519.660677265207,551.264259106107,404.876414501306,467.678260120122,536.052382163415,404.833963389903,488.560419433087,541.837096149104,330.767061143189,449.913907520995,508.250306402201,285.566280039214,405.692100649506,155.403858427102,246.194764178433,425.653323003428,79.6943741117976,193.675016076183,-228.097412706172,-67.288948650554,75.9178245650371,-511.177029318864,-330.30061041267,-789.645793979304,-781.722923062745,-620.052835520655,-655.539380348991,-176.538065011578,-61.1229949972622,1264.65964170814,-394.960633011686,217.080875171639,296.452483231848,799.453971567601,1122.56177839557,902.288322568533,611.293617129482,869.91137933724,1025.67187757873,72.2125864265261,562.8185628232,1057.85004305692,690.909342141565,719.901880394905,676.236392861702,695.368871921567,671.648820433057,657.863957926871,690.923235592017,638.725526494095,643.566524991306,695.845339944087,662.292672561943,601.673885728285,648.04032056061,589.60251560095,646.987124993598,643.390985919375,658.28457691669,572.816703010788,637.563372949795
384.647432763154,440.96423303365,379.808381568784,430.037402673997,446.677127766267,365.88029084466,407.972856367024,447.950114774804,361.027671419167,415.723568376131,450.935017513287,318.600210885684,392.468689188709,427.684187098888,272.601108108556,352.790483888342,193.152605168242,203.503862158801,347.364268970143,97.1743333658351,114.520429187998,-121.518321184902,-125.291838379981,-71.9137154035092,-475.839351276533,-528.589982063591,-625.242228034416,-909.0236052503,-968.071567881929,-715.328366169465,-446.442777864274,-315.845425377544,1083.1813125235,-339.313582527197,20.5825396650298,100.969836272939,468.838937405316,910.533543063257,539.700215226976,255.949454776739,647.432016663227,823.472629312157,-258.080140221161,422.165221139628,844.670062480936,421.808112379256,444.032072634531,411.297612919315,432.87982032581,421.411272315095,418.776607310631,452.446618756944,420.145864746115,418.310358980782,459.663414923859,437.147548554397,404.966946921288,434.744407142032,416.763895375485,445.675455341397,437.688072440848,453.15225415719,414.240110833864,446.806805634005
347.745886017316,392.670697327368,355.464056648942,400.897625471158,405.703995266317,368.130694320882,399.954875551454,426.544912026131,362.270900485024,401.83500580026,425.481328136778,344.524488715813,388.82338399563,416.472280926442,314.896636771879,362.926491781581,275.999768726977,238.925708201705,352.022805771833,193.40716947631,132.657617213678,80.3883538691133,-65.8828413730533,-125.78312130948,-287.705170216804,-594.168914366247,-304.569567435161,-831.738056506275,-1196.40491208222,-516.306611547595,-573.652060784036,-501.549958394618,1040.17189492606,-247.973251479484,101.316526773078,-31.738201472168,374.328940875153,956.235255516986,307.743207031316,301.258597381248,603.440536443072,864.842981445999,-212.924232999311,518.629273217229,906.612810030543,280.20159487064,300.116724370579,268.302709784951,291.251792745569,291.68679607973,287.397997823951,324.101787397791,296.957392517837,298.467973419698,326.843023725801,318.365108786503,296.37530837664,321.811277977073,313.1454642082,330.358341964037,322.083989966586,342.014126988509,320.325893023134,342.660270183484
297.201752680992,334.685077270372,311.105822915589,354.736200074287,353.998305317865,342.387762451241,367.680127258517,385.590730639554,336.002198037397,365.86478114918,380.496306561261,332.673552661905,363.257066801967,380.931555292512,311.909740669095,342.772271713338,306.540641902876,244.596734525667,330.445512658397,241.357420422884,122.916104825279,205.642322891599,-29.444269218393,-192.485194369654,-132.318961627676,-633.029636544619,-86.721913834272,-713.638413472904,-1362.64253444775,-296.163097777576,-646.910222692502,-727.816630339973,1006.63738610638,-87.6753706764903,129.784809839169,-207.765761393966,330.903677323568,1049.32977335715,71.7147516133101,328.716875097195,605.267579694462,949.264197273245,-99.4744171909588,601.750204432406,1021.41448587588,168.193383854683,188.666706733507,152.186625639123,180.318111748999,182.470226779493,179.442985956573,215.350353600514,201.271371766236,198.542573494181,215.308933211947,212.82394429976,202.797029216283,224.364778043946,221.600636786922,240.609601302559,226.932895292477,250.526513408641,238.293326375119,245.754401036803
171.126189819507,200.861535823095,192.148883639521,225.321929812243,218.4936017217,238.424742458407,251.83181457261,256.172999376177,225.312129286106,240.401280109861,249.004614407392,237.534706758342,253.473037203173,252.259366565759,206.163764104725,231.527636547789,234.355367158978,147.546312403668,208.169216643617,162.955069606511,4.44528700513975,159.049341253167,-119.249575306551,-327.436367936088,-157.188186329534,-723.851547280365,-112.13953048941,-735.666217149971,-1483.72438738711,-338.432046413742,-726.782847797116,-984.924569234513,868.030210383061,3.6543958062747,-115.213925627701,-392.461620188125,122.438225671976,1008.85234799519,-214.956346105851,44.9437051310695,462.869727085641,903.657933259737,-171.846663322739,490.646410673193,987.047727546193,3.07552220038152,9.73475055203023,-23.9095727058861,7.00926312110145,-1.6961957214978,14.4512776579271,37.7287609226431,48.6366520917726,33.7438979885401,41.72538595804,33.4533517228762,49.0735999453679,54.5672141715295,82.5436695302184,96.9698055531346,68.6036020973698,87.7192350942153,103.701412800112,79.9489739224075
-9.20901943082272,9.50636680988469,25.2339623017242,34.8476069121247,18.5170970488894,81.3557408353248,78.0959195408668,66.6775476760004,63.8196149425415,58.809355793903,58.1593857906119,94.449646338183,87.9939230956945,66.4094311026311,52.0729678333294,70.4024801153816,106.038595974382,-4.3766936491028,35.4249489037215,18.9125202679949,-153.136069174612,18.9657983996971,-270.276798860285,-452.565142183357,-307.959316113794,-812.559794425475,-204.534057178481,-856.783083145879,-1525.76918778687,-546.736080326843,-797.279152645958,-1054.79510634232,704.669793687072,53.924964514163,-448.581063660809,-526.016002259701,-173.077872932907,862.343582838229,-379.386843095904,-345.599940082763,164.664562960054,763.338482297182,-358.158636907185,210.926573718573,832.118306194524,-191.371284466268,-225.77013965142,-235.741291066088,-220.878897501252,-242.462543429651,-184.891022425896,-194.654132525639,-149.564630228626,-176.524748555697,-182.994315913353,-199.356751637375,-150.203008335796,-176.689525257069,-94.1656396049522,-100.39751430588,-147.385122101076,-141.13759261979,-83.0645692824072,-135.090085403003
-142.62916002649,-138.626952562547,-98.1768973360098,-113.051316705247,-135.541054489412,-35.8751244906008,-51.4952979869036,-73.9516368033038,-44.9191174403287,-66.0783695205948,-79.5834216230795,-5.18336568045122,-28.7922883728897,-61.2660105906393,-38.7312642065824,-30.6798601435888,21.9759195375499,-91.4385718032877,-57.4295979014669,-59.7228581980825,-209.495611700981,-59.879258172533,-335.704392022699,-443.491144466312,-402.304843102765,-792.027125217762,-106.213367288429,-899.646481515917,-1396.89508024354,-574.812635954556,-806.111879532875,-733.281011902048,684.823547640165,213.018236080664,-506.620375632426,-538.991326658318,-257.442120229232,772.422494508722,-277.245208450162,-494.214122543911,-67.9678157224934,707.893124623975,-446.314904343823,-35.0790459946994,741.148960082005,-326.469761858616,-406.535983139467,-383.710961994062,-393.624776323909,-424.043995290682,-325.758634488509,-373.197063437764,-295.86220928102,-332.584665826891,-357.182791159692,-373.169538186185,-296.654292212106,-357.248517756481,-227.050514709574,-258.967844194377,-315.751717550847,-323.399647030334,-235.695881226544,-294.741843983972
-157.654924922113,-168.496436835162,-115.634037828904,-140.404936935757,-164.526814454461,-45.7919082016056,-63.6292715283789,-91.8088103226471,-41.7838276636286,-67.3684936439586,-86.6895094937228,-3.19692882530533,-27.5522967534075,-59.9880581800722,-15.6490026174197,-8.16020173110203,44.8379056245384,-46.6527573469738,-6.91323478569611,-3.76900552108911,-116.801110622161,5.1677529646524,-245.575912933682,-278.708769131828,-298.99834320654,-626.493848594308,227.067215238201,-739.893101727073,-1032.17309042641,-231.421769974242,-725.613040229568,-134.992700354221,878.017211133602,441.943382788137,-180.031196649684,-305.182456743147,18.0340250412111,876.219352613747,-5.18963689015305,-368.021172017731,-14.7156377112565,881.920209291846,-368.528397719386,-27.2067188327685,863.746106600181,-357.1991879465,-448.369373597217,-415.316166098752,-430.80684428241,-467.522485517032,-356.35999958795,-419.348398454658,-330.313626587699,-371.444778154397,-406.337789464842,-413.231978617135,-325.56630990714,-403.395579249282,-254.981988508744,-302.140657355162,-356.22056569765,-372.496797972847,-278.341674549551,-330.410900025244
-84.2753153831445,-100.663583326147,-48.4416240943457,-67.6454680830837,-93.3999050255806,27.3873838319263,17.954179615844,-12.0323004892051,38.0135680945939,19.8072307897827,4.41184366557239,74.3866026835644,62.3814733382214,33.7322724668147,80.1976528584282,101.561986158303,152.615737043243,92.7581439093832,130.969530671109,150.210168816511,55.2952630968321,175.612767884691,-36.2612368235051,-49.7815547410665,8.68332795223223,-361.359736941508,622.761150782649,-354.295708457903,-557.597123378143,363.378511443728,-540.579553432061,377.827330064785,1206.24466449252,551.988624648361,306.943703363128,195.281986885216,493.207543707677,1156.94890797839,235.271863976601,-149.382734502006,287.619024639055,1241.99223106909,-221.465918728279,274.955571648533,1167.9833907045,-314.070651896877,-378.578259249131,-365.978016535521,-368.0770918774,-402.313254887107,-306.925907090441,-362.178974398591,-285.116920466058,-320.48551380394,-352.905189946335,-348.079880962842,-271.241404416232,-341.693206634051,-202.250618335856,-249.200008194797,-297.352713002381,-314.336081260555,-226.84595784939,-273.651221635282
-6.85384330258042,-20.1455943796942,25.0259839544253,15.1315224571675,-11.1343472940346,98.2915292765856,102.501126018642,74.4969001724564,110.982835913222,105.253851035749,92.8377811104922,146.388592771787,146.928889686476,124.161960340762,165.640941978339,197.932466868154,251.860368655387,211.84049761669,238.574090691811,285.423058373495,185.035978687793,321.753232101465,166.564790782676,98.1782011631167,348.061449183976,-128.592933252672,856.605613748536,110.064690102288,-324.63941514055,899.6888138493,-343.241001013484,433.697177725511,1426.75189980646,513.703399356448,606.014416916164,589.509686422468,793.406598152096,1375.90521205675,347.876922777546,-5.36772903479483,505.561125729488,1503.97309784969,-174.906650647355,636.95284361201,1394.87348684344,-260.805020613641,-297.336944295982,-307.371682635017,-297.343240566457,-319.746975580061,-246.717826879993,-291.284509682685,-228.974982592576,-255.660619492176,-275.467189225501,-262.828897460614,-208.590295710196,-260.089211929996,-144.086721331024,-181.759870831727,-227.627509046876,-238.38090516331,-158.959984136657,-204.638190369525
12.3291102016974,-5.68213563629092,35.9914722940751,26.4432946370649,2.43446997898216,95.8194458109049,107.462951817842,80.4188304200001,112.231677292548,110.973695073121,93.917490905488,146.394545687879,145.517371581552,129.921978061764,169.431351085939,188.126738271425,240.84618887374,197.289838398572,210.320413388567,275.53622789983,164.076131027872,307.174311477894,193.40493817673,39.8634120698046,439.070672087007,-98.7978153256493,750.276747009808,343.761045790153,-554.487889587998,1057.7090529149,-329.453420424908,-130.492598426556,1252.09148220583,412.562782808935,521.655905669145,347.549823721577,598.046892820101,1238.55887104731,336.024667809147,-55.1992181528362,319.813855563699,1362.07514309236,-375.962717680155,749.374903618539,1260.17024774597,-247.389499203807,-282.692508103378,-290.628047472257,-278.30919822344,-295.793244061691,-226.366250683822,-272.331799505299,-207.552608923514,-234.161845794107,-241.783804119402,-233.561394851528,-185.220565979037,-231.287648010204,-134.304882511727,-164.17014578689,-210.609589773881,-216.47228474267,-134.630358644626,-185.013085430565
-29.3167323110542,-61.0639800802534,-14.6053915224574,-34.9124723660483,-55.244864026876,23.6827325819727,32.0265568634675,-1.00042988480856,48.5651526848284,35.1354519139132,12.7199731818003,79.2670738215283,63.0676744500891,47.2355693927377,89.4497507547999,75.2147435463386,113.371767326648,54.810002544069,51.055851816946,112.595713850981,0.0134268280973942,118.468675995113,9.48506465615431,-189.046550841351,176.733364133502,-264.926298550471,261.309611416052,213.157865295793,-970.175154218118,721.442495020236,-480.74268094154,-1025.91108153382,664.556921554188,195.216656032488,215.5043849233,-513.006984229886,-13.2956633806831,739.449207367075,225.221044114032,-290.246030320122,-157.747324424169,837.89923066099,-814.576470069482,577.416856798297,780.302316898046,-265.463536129669,-321.21151644507,-304.335688233142,-299.672481525537,-327.431503631007,-233.77316847767,-298.673954530547,-213.42193728021,-246.82985921668,-255.507327904667,-266.533535758254,-194.401316739843,-258.148366752596,-158.087673539376,-189.813986698328,-238.47501953052,-249.517577502176,-149.775799987438,-217.8297339714
-83.9901718318139,-120.184545341154,-70.8280201805661,-99.8857670783696,-115.684308365374,-50.4311683312613,-52.7557276411496,-93.1701268091327,-20.1741773337988,-50.075206120069,-71.3767721872292,1.62584372489853,-24.3013918946956,-47.4953912927498,-4.18885559142726,-42.0236641334491,-22.4667655439162,-91.3341964175424,-110.59034193993,-68.1321167484563,-170.801221225969,-99.3545273923182,-205.036450560259,-389.949144175414,-209.759841528,-401.312733312079,-356.850813472112,-62.5227442988693,-1090.41159670682,84.2821338276196,-509.765400443857,-1650.93649469517,-31.9147269831141,-173.539175850461,-22.1907828683388,-1304.9362651683,-641.306133919559,163.205583970655,75.2823621474756,-557.814759607033,-484.343842037238,218.100696035303,-1301.87839040314,357.415484417587,227.156912060888,-246.639088107521,-329.047420678138,-283.22212305322,-294.759426282776,-339.907886413115,-208.246953127867,-306.02771942767,-193.996966639075,-234.381280605126,-255.318107503878,-290.383488663407,-184.245285497419,-273.528246227338,-158.793941467235,-202.415879645983,-249.922581657429,-273.49558680467,-159.211196144979,-246.260296446168
-112.470378720065,-142.209578953941,-103.982248575769,-128.657984395605,-142.697780073602,-83.4234127482285,-103.26838933961,-142.044765243262,-63.7745652858374,-93.3992414508222,-115.501819656899,-52.6235818333031,-72.143199149421,-96.7152299036413,-58.7878970970944,-96.9756001564162,-73.7084527504083,-151.603297233588,-181.387664205331,-145.409991638214,-242.819846858198,-183.592197433447,-270.37006169348,-437.933940085401,-408.259279835238,-368.615764115014,-636.272202372667,-251.98926199787,-832.301366008769,-508.952379089442,-299.962863249022,-1691.97817066746,-539.444761913239,-446.080577872599,-195.963604923775,-1423.7778380249,-1017.74589791689,-277.414574616837,-54.1720603657882,-744.087641381119,-411.286631673419,-296.636089316347,-1553.87758804838,287.761079089575,-212.47170623211,-143.590903385131,-257.84269773636,-189.489613489228,-221.544991386849,-286.135685606964,-124.402768643175,-255.468588754562,-121.978586611896,-168.633584143917,-198.903090777609,-252.560173303747,-126.737548735887,-233.144522956425,-121.9481230719,-175.39383436649,-211.502446062902,-247.157875862657,-139.987027128113,-226.998014460811
-128.700441125924,-158.300884079632,-138.059655305756,-153.473702846813,-169.64980434979,-102.219598122341,-140.40211452598,-169.711509753345,-102.559134491006,-117.285909269465,-150.498446865545,-94.2116276221052,-108.732337896625,-128.688971519861,-90.6569429601978,-120.791914773411,-58.9991135220867,-151.219663964294,-200.626727540989,-129.386658150678,-243.761100102013,-113.829225071246,-199.213831781715,-404.390400620763,-335.941085797464,-262.054475655075,-391.519636200152,-314.118501247439,-502.991224242246,-788.80309596081,-61.7221758788257,-1364.25955301076,-803.295442209771,-400.741710876944,-451.780445297414,-944.692855775752,-1130.77208593845,-569.825822158526,-203.908736122481,-863.89359394817,-56.5966091645101,-637.860533185737,-1329.01059068955,431.042580572591,-512.459145953011,-0.83159401679619,-146.168418446714,-67.6711550618711,-118.808392211592,-202.110489038052,-35.0463438374817,-184.05906147002,-47.0542603846984,-94.9549803561508,-123.149515475288,-189.964911720901,-66.519457051891,-177.77404287993,-94.2319901173262,-143.474415709549,-162.327082892473,-205.43715990025,-117.521644614818,-191.529110948745
-166.783512258511,-207.186763971726,-190.109661247431,-208.538169059905,-223.758771056391,-140.803151649447,-187.89512377893,-210.509037463894,-151.401676993209,-161.437554256988,-205.536430487271,-136.34264110041,-164.69769144216,-190.982173779053,-125.326896014809,-162.500615381519,-41.6607443326388,-152.573414172912,-239.997764119303,-94.7653332324726,-248.06496903593,3.6758278538391,-106.388158012192,-406.484489645591,-120.002351999993,-200.556325611166,33.4373281854892,-219.574092083488,-325.293324436243,-696.071602153924,39.6151599510617,-1019.45839471583,-940.434195642396,-231.876546921221,-667.83891014878,-354.017329257247,-1071.66919471126,-755.646152203507,-489.540657042663,-927.470611239846,339.625573276932,-774.680187011255,-686.642836523279,758.301545377198,-683.578528110709,72.2791469821643,-69.0127559781554,-12.5384787629305,-69.1713128802594,-157.791970439656,-20.0823092249681,-158.940182872659,-49.390154455454,-87.5174562621388,-102.749008481184,-175.634305572839,-72.0565438480297,-173.011848841561,-121.872022600433,-159.329216133365,-165.254013637402,-207.847977879509,-135.799484028446,-201.329913326787
-229.175828854975,-279.750364514774,-241.344207171585,-279.835115978694,-294.140331311635,-181.2626077881,-237.598633021795,-264.325807317412,-193.234195965495,-222.89943072484,-272.345751037473,-166.414228309195,-222.235778378565,-274.779043671202,-145.126146980158,-216.877603683038,-26.708603369343,-167.102500239227,-302.159932151808,-65.961093042095,-265.348198545769,94.0020376114489,-38.7931555325558,-455.851466257096,118.692244194673,-176.728813900016,242.545814462022,63.0942474436968,-291.445018075735,-376.015058884044,62.8550439554091,-812.668240630259,-1042.46168071423,-234.111826007902,-607.981561024848,15.7413199150062,-962.238826257657,-882.056360888464,-908.476531873119,-831.88892752578,579.209049837657,-797.067975777623,-16.4035731778934,1071.26646716817,-782.106321116554,-21.8529880037471,-104.420600204743,-105.510308100886,-143.780562652705,-213.353699970984,-129.139337379369,-233.64675574512,-165.419394555279,-191.316406043221,-190.523092496139,-253.266095461705,-172.890345969718,-250.373342156846,-215.100965578128,-250.387387542332,-251.65827423908,-286.850527014701,-218.222904417798,-283.887724986754
-285.461817558638,-344.116872699239,-268.188971157817,-335.076292819103,-363.727746588861,-183.763242753629,-268.103318623805,-312.693202901474,-203.305467849115,-266.11119314448,-332.574150261084,-157.682551222188,-245.264888512771,-336.149196854176,-120.528385572499,-243.26532309441,26.8295802079099,-156.832800459014,-338.00004867,-9.73000745603913,-247.370661797588,174.654333302237,34.4313978881482,-472.856614368202,333.462074545524,-126.300568508029,223.604779584374,408.052305661662,-300.561792082692,-39.7502685441408,112.610046403681,-685.447462570833,-1090.82709076217,-362.735628084568,-293.051645267356,160.259778042344,-846.075554566781,-996.309878617097,-1213.55269508398,-498.057069182987,565.749309552424,-866.617731620987,372.302337564716,1098.90645828769,-894.291610068842,-299.134209811869,-309.649217057079,-355.162811219375,-365.480836016172,-398.261468825591,-352.992257018861,-428.814308088333,-361.905457020207,-390.831072569962,-383.712718270969,-424.947232134216,-345.814115296684,-409.557184377414,-348.513036362155,-402.917470396553,-408.473134252606,-439.934571867835,-344.167854139579,-425.440893224307
-313.636008949403,-389.672585220674,-271.464527653984,-366.319485574509,-423.43477400903,-154.82418010666,-273.792725979124,-347.424561555602,-186.44361163747,-276.444924648066,-378.746892724116,-116.30257006662,-235.332725337195,-359.699210130948,-69.9004552765067,-229.888073317168,103.93238178929,-114.730906953517,-324.064355158796,67.5083727850557,-183.554169210346,238.778219690321,107.42443236611,-398.202049475288,442.917763707965,-28.2668106473896,135.002994312757,578.704524576667,-214.776485327722,134.183623362837,224.522754973257,-474.537829310899,-1029.69359836251,-421.703942381602,17.9565652609479,233.943697068377,-657.110204573843,-1053.97156063334,-1171.60302335564,-85.4006214776366,368.233660196458,-977.099982308961,496.029168869573,802.858437544763,-993.535810676968,-664.295378850777,-644.02213447558,-671.514403767934,-671.696383896815,-669.846761741971,-612.486104073801,-690.615996776676,-559.046275119898,-611.858669059387,-612.609581480248,-643.911635638319,-526.350071577256,-610.432560994039,-471.727662814958,-564.699402271214,-584.522312486016,-622.782372477938,-463.632693551095,-583.47698161952
-335.441278596784,-433.209579000171,-284.055396744471,-397.594791547347,-475.420082689067,-159.558754508897,-287.583467366611,-385.99191653981,-191.51081065383,-289.870569277885,-421.167266380893,-106.861227275755,-243.182846424187,-379.6050096672,-62.9365745652171,-225.607186411238,110.686184280419,-106.515995866127,-305.138285864679,77.3416863992448,-141.840178506821,203.661056660113,104.672736849127,-275.957711886104,350.57272305512,61.8139220657277,25.1340926512748,461.500029324451,7.86143634339113,71.8920606942037,328.96477231371,-135.444796273714,-840.639413940853,-379.009742009424,112.547604769164,314.808532126004,-401.401350574288,-942.576844808167,-906.383834219823,139.633490191362,116.262777740797,-962.838524184925,484.763726391538,364.423318451558,-945.444393268509,-953.636799280868,-950.013064090115,-913.054991794466,-925.64121276062,-909.441866159924,-796.536345722247,-901.209123261121,-684.390640797436,-766.079335831151,-780.621690964928,-825.019297975156,-645.334891448326,-770.88030909071,-549.172512152647,-676.91219699559,-715.816048857692,-762.21313591649,-544.213772785002,-702.038511123025
-380.029830462279,-480.048497302494,-334.601290670616,-444.875002067746,-517.803171919026,-238.061525606013,-340.15104511879,-440.280031367263,-253.383963374169,-338.321200129527,-462.511041212345,-174.861889080977,-299.433168043086,-420.880562312567,-134.685303107178,-268.657008356958,2.62875814491166,-170.857231912156,-320.50964239503,-22.8613063592606,-164.318906035502,53.9654142850822,13.6454633684786,-185.553417860229,134.139140026799,93.1269370359731,-71.8463312288829,224.162693008312,228.609666987828,-73.0162198046905,326.462999586448,200.042181607901,-537.930333481917,-278.821829066775,67.1447243290588,385.088760309942,-167.989411576077,-642.764573617425,-654.146997310128,189.867672440087,-128.737921513794,-729.035675105778,441.30346755965,-60.6847804388976,-689.569580064592,-1010.68620940431,-1046.60661070062,-955.571545421823,-987.742376804759,-981.055598573883,-821.014806520842,-952.2086996307,-699.915024523844,-790.607725975649,-813.606257438358,-880.533549219215,-662.050711710426,-808.481982934678,-574.051871328904,-703.475973700349,-749.259543644103,-794.081295373023,-578.108584852117,-731.905143763436
-423.486736067197,-497.890411902946,-396.677077536991,-479.378116195395,-522.847947147799,-341.433219502285,-397.535160351223,-480.422096148287,-332.451551131343,-386.782712999956,-472.182190782783,-273.097506721303,-360.187449783486,-444.107394958269,-227.109080718837,-313.022225608727,-138.61004766096,-237.906075896405,-323.999230689139,-129.474372755681,-181.967561787642,-82.2392883193843,-42.7476396140849,-112.582884836459,30.4289052033458,124.86767701265,-53.2149460673059,170.571839370624,370.524004009354,-15.8740352349911,303.719148390715,453.719962755684,-180.48476157228,-107.146548761867,158.188407316399,493.275261433797,31.3502907238239,-285.231354697362,-334.854041511404,318.457328608874,-316.755418946699,-358.893519982964,474.17846721429,-365.375399572933,-336.640027247567,-776.965177751839,-853.169535513731,-753.657554005679,-803.361796644915,-819.210524087309,-669.491781680618,-803.908621183696,-599.37844193463,-670.207748405855,-685.435768682094,-765.040870456854,-573.572344736019,-694.554343685823,-541.910153556777,-636.390358264925,-662.773553073028,-696.220661540177,-556.384577142532,-656.554491734554
-423.942101717521,-465.310514764587,-421.147370606926,-469.701903277427,-477.147516811958,-401.351261714223,-408.855292478064,-475.669297541942,-368.314431775703,-385.354376952286,-431.402781190793,-330.605034445846,-372.193441765639,-407.773712235125,-266.469922763485,-299.648863906977,-216.404924872917,-232.879011734114,-264.543381150581,-127.897306991764,-121.502497066221,-90.9421687905307,33.7151569484773,5.68581889154976,152.858792453686,240.260702231334,105.2318436997,387.602144583736,525.875390032203,293.712555421199,442.583122570913,635.001435646963,77.4218798790152,112.748291945807,454.76184481685,671.089496761851,191.298634830499,-70.4397212776669,207.373475566583,564.452838361618,-422.429890128599,-77.1285298237813,581.604350383531,-496.539950748495,-106.332423533352,-382.728460822412,-481.567686028069,-415.250411886894,-475.714896070735,-512.605330588293,-428.37847225777,-533.496559255368,-437.452138530037,-471.168545628454,-459.636544693635,-538.288875902601,-432.833882485887,-494.525535902926,-468.359075902364,-515.027867115789,-505.217624851855,-519.675824160111,-490.461692753654,-521.082806686072
-399.899301326164,-426.248920063477,-414.825979519162,-443.768973169863,-430.885718719884,-418.885646264023,-395.095180153272,-453.983891542478,-365.580374624227,-357.812913944546,-384.833919474165,-344.290327434445,-355.850634667702,-354.326218066596,-258.569749393873,-258.407773060589,-232.818663551255,-190.411195348828,-196.209855938741,-58.2981891962221,-34.1694398030109,-14.3846564568537,164.910547836074,129.168760986484,361.333657733873,377.178683537367,278.474890503521,643.78472615225,674.82428710916,572.650066217275,664.961398062761,645.939654709021,37.4984881038812,270.613498669288,672.305047434373,732.492256294415,185.347980611644,-164.762438895404,753.985532917928,675.431525052116,-547.430495689918,-120.88011202095,604.066966123209,-575.927326402071,-192.63036505483,-111.979831393237,-202.225978970134,-185.658221461697,-239.788021056744,-284.563569061879,-272.198244876477,-333.633061828592,-341.854448536541,-337.957206668316,-296.903310287926,-370.305368513633,-348.255900785163,-355.132545932055,-422.222958212346,-437.010629704202,-399.356584894197,-390.836801663876,-446.597841293092,-427.134460673262
-420.647934590354,-455.76188594006,-434.893550900613,-466.497671235732,-458.617865055059,-441.79997053749,-423.915721249461,-483.023375961298,-380.585518656569,-379.353616122727,-406.752807476198,-356.741808416177,-376.400298097197,-369.450351533549,-267.093626892828,-272.191474355232,-254.564441988593,-201.87812547586,-220.130694339736,-49.591150280408,-34.0882646711292,22.5669539852154,193.947264368657,135.477361371706,445.998016424239,375.973817267277,325.05242250705,676.045608056351,611.570358529219,561.561659429531,675.682243420838,342.116978324683,-379.139254879652,285.816586400439,530.181800774639,437.411270928548,-102.370389191198,-609.813739205117,903.671156989616,473.355485215287,-811.707295025423,-561.089430612419,407.372251263577,-787.877458008587,-643.019965818734,-198.451191846353,-247.687905012893,-269.479017953029,-295.467614903942,-327.657879145398,-354.158042715645,-382.141420166213,-431.276905620624,-405.574156598012,-350.159333684489,-419.492490883289,-421.492743592406,-406.479611008105,-487.847057915692,-499.843878278067,-457.78397160956,-434.569056552717,-504.153926508615,-472.65120409235
-513.592951190483,-566.828718729348,-502.443255928992,-557.78543540403,-569.270345966692,-489.041197786315,-511.109360441799,-586.871683158451,-438.4931096378,-470.927157367278,-512.313871002965,-387.132836886117,-450.31436414021,-471.151282958125,-320.065826463699,-361.79098469405,-313.826136608516,-291.857371537172,-342.273359347209,-143.087596761117,-144.381714777792,-32.8624598699448,80.2218601570456,1.65951475164829,344.744039293124,197.705940895099,223.36257599898,462.399241027418,284.453621412455,302.562572475587,382.04416007292,-190.042834217623,-1012.55033132744,186.236514394365,100.556471711547,-181.309074494971,-577.139234279202,-1244.21104724958,592.385670691725,46.1959135089929,-1149.95904434412,-1211.25690857558,9.36654011404482,-1110.19329985685,-1286.69967499478,-614.788632368736,-605.397694316043,-639.957994055191,-627.804207774383,-628.826600971017,-664.626667390531,-669.044305901852,-695.553208442391,-673.280118422151,-617.58578998151,-678.027296134134,-650.886339183071,-640.91097306063,-673.778230267107,-702.618352076735,-673.225442856072,-650.944619266887,-664.611023230377,-660.069375984701
-625.999918687247,-693.338060452257,-580.324487244918,-668.191798092786,-695.271369982097,-540.604743524532,-605.232084603507,-710.350524398026,-507.733960366748,-573.912390011809,-636.875624146481,-423.423741583528,-529.758803315115,-593.523366137493,-383.558402451219,-465.467374949035,-382.105016374498,-397.340690033858,-468.925438657629,-267.674889101716,-277.569046271363,-129.747666275664,-78.8917369269157,-149.386604981449,157.690998649739,-16.7091262471153,68.0370591588609,183.064827001198,-63.0124108221193,14.68404755648,13.8047821867552,-638.372711251622,-1551.35934183217,60.7166000547836,-291.351358288964,-829.813749333727,-993.177202517363,-1766.59713324164,148.97806687938,-385.80275463442,-1366.39013326093,-1749.19312970332,-441.675178153936,-1362.05967226168,-1813.11331737,-1098.71692972759,-1033.64669155698,-1066.0982833676,-1021.86594207213,-985.641966123816,-1026.71133523275,-1004.71887072605,-994.408632797357,-990.131746575752,-937.274661439174,-975.399192338912,-917.951096762617,-915.360385944085,-890.128909082594,-936.936710525429,-920.001716230767,-902.585614622427,-850.3530197711,-880.610526107892
-703.400701517574,-781.612409457081,-642.633045141991,-746.000246834852,-779.947805683065,-585.192017147995,-668.222253615938,-791.626251026813,-561.969013782413,-642.191878070903,-723.628759176801,-461.477993391636,-585.17188398894,-678.102280411987,-432.815304757463,-536.569705714404,-434.31218940027,-466.814112073318,-543.067164062355,-361.696229177025,-362.329327669425,-214.237670617812,-196.496532852018,-222.145024252155,-3.24167514029488,-135.862655986936,-41.8330612070812,-4.44568055726087,-214.272635857804,-145.524534337477,-207.926038076534,-811.860441834194,-1812.23800430459,-11.485804718393,-444.567371497198,-1255.14271433859,-1218.36738956033,-2000.89310038623,-143.004733562654,-671.302110077193,-1380.01682408236,-2000.75147533402,-769.704758397616,-1477.6721228998,-2042.034294067,-1418.04869852209,-1310.43754882412,-1346.1905300466,-1281.25849842732,-1214.61972116607,-1273.56236643054,-1221.47968059921,-1199.09893600586,-1205.85472471246,-1152.82932075266,-1159.22521637649,-1105.50412431779,-1098.18783032473,-1044.56660575616,-1097.29948958074,-1084.20518018711,-1062.88553216375,-992.993982515583,-1027.12176781333
-730.786231484942,-816.11503326535,-678.799810873623,-772.417937149865,-804.372328743501,-611.636688284881,-693.78109530883,-812.614450583088,-593.207745070682,-671.294257044584,-758.178331606938,-494.192073017628,-619.315420729759,-707.041302358942,-469.659213845131,-573.836209274501,-472.165070330652,-500.858874611295,-575.086082517933,-424.262429090235,-398.436505503558,-281.98037344322,-264.542641189124,-236.1875191321,-105.845987725674,-161.919454554073,-78.4798334900039,-77.9946873782951,-209.483646867915,-142.579420756025,-295.717593901427,-786.862461748017,-1847.61728072625,22.1621518621957,-439.087859528348,-1392.58006091707,-1289.11439177496,-2005.32442664827,-318.444339634333,-804.689836727775,-1260.62582049063,-2022.53465107552,-883.541126994067,-1488.1837157783,-2032.72935481894,-1516.05767139264,-1380.52343145656,-1426.85240178871,-1352.16907544775,-1267.61470544738,-1351.81931787801,-1273.54035118891,-1262.86660616885,-1265.15213039681,-1211.95014714379,-1191.14548898784,-1165.15682280025,-1145.22028375834,-1094.92397928361,-1139.09609660089,-1126.17332115652,-1096.18633750408,-1046.72342488588,-1060.83844815053
-686.455176734533,-762.425768570399,-645.849388348394,-725.541252314235,-738.06910897138,-577.989243897161,-654.397656231517,-755.342014894631,-566.939592807004,-637.945908225686,-711.497697104863,-481.604149195835,-599.217384771622,-656.895509394634,-466.31356729222,-552.467150057852,-475.917548880828,-483.537970280889,-543.282313801397,-449.05068898519,-379.32168449405,-319.783112522747,-268.972045539401,-205.478561563868,-137.157312271501,-121.481579058694,-63.888201529717,-62.2479530250912,-151.782218376745,-13.632970901553,-326.646682526728,-656.967161904644,-1730.57288655232,142.663666225899,-420.103466832484,-1244.6190547241,-1206.90093910512,-1857.79635000271,-549.369331464789,-844.667146890192,-1038.31329439298,-1879.99148945541,-770.770531624384,-1325.62034170898,-1870.28908128682,-1415.67632789491,-1266.60554944017,-1316.92839333655,-1244.24714610142,-1152.9255797095,-1254.35818001371,-1161.2091257121,-1170.05059057532,-1159.24370043675,-1113.06991599099,-1071.50792211404,-1075.10565433606,-1043.0871614587,-1015.26466818318,-1043.52228729341,-1028.56059370457,-994.534939796759,-966.749045790405,-965.769184588928
-551.085672761798,-598.510335769543,-514.372645237686,-586.201845070588,-563.946073065161,-462.120762358217,-521.518088219851,-597.55255775306,-453.802235567393,-513.56107525981,-556.174814725104,-393.050741645312,-483.500414679056,-511.885006005053,-382.909305150213,-434.39740477828,-409.537233218415,-375.473722254719,-401.379269678383,-399.014010515468,-265.749052807799,-288.299579443476,-162.450143928117,-83.6441028757515,-68.3526619498135,19.7882235024148,-32.3181949897616,50.2115905803068,-5.40878356020102,147.724522059128,-256.992904370513,-370.256455006563,-1422.00934352501,209.819384847945,-378.801495459022,-812.062046721388,-897.325553815453,-1530.31805358362,-875.343005649366,-784.933645650553,-674.416616295336,-1539.70819277478,-441.744500745808,-914.321906713997,-1534.88015921692,-1154.456039629,-1001.33102704843,-1048.0575226433,-984.376082553696,-890.845262037275,-1000.87670493616,-905.363516501963,-939.304402825166,-911.541409118963,-880.168425952005,-814.255397273821,-850.592771238743,-802.432404155793,-812.790981820295,-824.874203542026,-798.381656523763,-767.69833230504,-762.498131761811,-747.334821089519
-362.509356362428,-385.813943903188,-336.090528116261,-392.877041533603,-343.81546504289,-310.378023644648,-334.315030155326,-378.559307520261,-292.696781695591,-332.456382841942,-340.682992435776,-260.076545501996,-310.644868487413,-318.063055463855,-239.600186285157,-250.868533072736,-284.184535418121,-197.976526070264,-188.05683101089,-269.834026035796,-71.0800707866017,-191.828831820888,31.1754758901264,123.294617229994,69.6874803235085,256.065045465805,-11.5222255719534,230.717152017023,281.447386022427,235.73942209602,-33.2689110398711,94.9730884862834,-935.644994108527,89.6031798734884,-229.522191305124,-217.984768629089,-397.983261197067,-1044.29787920346,-1129.82621702422,-564.125221351296,-244.524680433147,-1034.44708566122,22.9857956316354,-391.125896273428,-1045.1133810378,-815.998972267891,-664.252173257524,-712.538978424732,-656.416380840621,-562.751828777058,-682.684816173131,-590.204595624306,-654.948367044446,-607.02558934071,-591.124572591223,-502.402368015044,-579.612301437841,-506.720303205261,-561.607202250239,-560.719909661478,-514.544222017234,-491.866278041153,-519.467016640633,-478.153671025909
-203.88609187571,-227.662641631813,-203.646071126885,-234.54626346533,-183.651235095491,-197.528419077021,-187.765328580544,-198.697546304114,-165.749550600832,-184.121961325933,-172.548685124862,-155.496162371932,-177.812346891624,-164.852049776326,-118.92770357574,-99.6666064471347,-167.730079873402,-50.7415654372457,-23.9228867515288,-128.253986086918,99.8581314272681,-99.6994060825871,186.471476761066,304.96224497127,170.823461233221,463.446983260232,-6.93258205208506,369.925901351736,598.88038146106,223.281284264866,236.280837404035,564.185936967716,-470.073533509736,-158.003522767169,-10.3714899211059,246.692620820524,77.8291025784871,-582.145005277411,-1086.53464064402,-237.433980158113,33.5445318885803,-564.841455366773,430.834128340597,-41.6120130581414,-575.888840480675,-510.321718800746,-372.021561175669,-422.41859158323,-377.802454384321,-293.081274317859,-415.923754088895,-332.62133075104,-415.336748604378,-353.969730705827,-347.122445635661,-259.756393981926,-362.315468832898,-275.591168983319,-354.948276309283,-349.986576210152,-289.455532232924,-274.858251817477,-331.119312910018,-264.43176421606
-124.16956516958,-160.749006718428,-152.673150234041,-160.621670789524,-123.250792784011,-155.084812808295,-132.97885643849,-115.308819284417,-112.906838232769,-122.076215721549,-108.909383585239,-117.806901054988,-129.993733753136,-99.7142851103349,-77.8936621671508,-42.8284104682188,-110.440947517823,-3.04606020951092,24.8763379993323,-48.0844267256938,158.0850928622,-65.2705270398414,215.012561588155,372.566046747624,165.449342480746,521.767897567977,-7.85588264844807,380.094306073397,785.838963740681,162.628549687935,375.564268918115,815.054361924165,-242.935150336845,-333.676265358838,123.224129693867,358.346262843824,320.140092756481,-334.632504739715,-729.030328448937,-2.28150932680697,27.8377115871249,-329.072874575158,593.209951050517,-23.7292245425151,-324.299430302169,-297.759399084358,-192.907795427945,-226.515039894323,-207.418139090867,-147.166115814489,-243.752710359194,-187.707035010476,-257.361907222692,-200.643829937074,-195.7960008183,-143.083826884715,-223.566356113338,-157.652100970899,-225.542192929311,-231.119301750297,-169.639969712884,-160.487078922922,-224.289480300294,-149.480836035951
-90.4444618819736,-132.73594851191,-135.026961625126,-131.919197315996,-106.458966760295,-147.922593221156,-123.12761188663,-85.6698780513955,-97.0961973017288,-107.959835964259,-100.225569056599,-111.786618089274,-118.284440146076,-85.5479680115293,-79.6116693497739,-44.187560864066,-86.9555821981937,-13.2376632338983,13.1070683479429,-25.4106326560203,133.584601677284,-61.0648137743902,163.041811175181,359.643659557137,91.3670028647122,445.803629879331,-7.95436312506284,274.992568331092,828.359205415101,83.8656782491204,339.017844014424,814.916463819384,-264.01259760156,-332.842275047129,72.1718263335006,184.149254814321,288.850039492526,-313.503022968807,-313.506261083266,11.492743308608,-169.888045749084,-328.030048398311,472.990270243696,-246.046149448849,-311.544841042114,-159.806680582433,-104.415814392928,-101.865733903461,-111.741207863442,-87.0634631577143,-126.82469610549,-116.615431644061,-147.635711638791,-108.126861917403,-108.795418597754,-103.077585110309,-119.801048414809,-103.196400665558,-138.152738750292,-163.19832028007,-109.158053518815,-105.057186307391,-155.250176337575,-89.1529433062934
-46.1667763570367,-88.7453027624299,-94.6700798510113,-91.3666215679015,-70.9964473052473,-125.014267635375,-92.0354007531189,-47.6424574814869,-65.9602373057378,-78.557528891557,-74.1875546558755,-86.1276797806746,-84.8140653964388,-62.4870336327428,-58.6243508453322,-36.0111224016594,-48.6415449577977,-7.95427122564919,16.1861502568833,-3.30691070196546,106.951221038714,-27.3889055919102,118.807318993603,330.099606165514,32.4952001289979,316.149051796785,-1.31150092888957,120.644872927659,782.462446953148,-38.4968196310544,186.235819124032,686.56346938994,-368.596861105787,-219.573611337066,-140.875539458086,-54.5481156053924,96.5316212802082,-394.105343081392,-78.6848524125711,-163.258227005066,-382.658563994497,-420.570229279868,179.449863722381,-508.315988217362,-403.365949289919,-51.540559259299,-48.7154970945582,-5.8275731750828,-33.9196729113088,-41.2433974694553,-22.0462867567048,-59.4932816490152,-45.224413220857,-19.7966964189538,-40.2902228723663,-63.0398957189955,-18.5014471218844,-52.5860579680994,-58.6353364114962,-96.4185080470308,-48.6066070078015,-53.1449047961802,-82.4521500195345,-30.6456462475067
