-33.4208578807944,-38.2781192213871,-32.9133828153594,-31.2459647432156,-35.1607723908575,-30.8109861156998,-32.5509006257629,-29.2885609193947,-33.8558365083102,-33.3483614428751,-37.1181762146784,-33.1308721291172,-33.7833400703909,-35.1607723908575,-33.058375691198,-38.5681049730643,-36.9731833388398,-36.030729645889,-43.8603449411727,-39.3655657901765,-47.2676775233795,-38.9305871626607,-46.9051953337831,-61.3319864797225,-35.2332688287768,-55.3872785703404,-30.7384896777806,-59.5920719696595,-72.061459291778,-52.7049103673266,-68.4366373958133,-59.6645684075788,-50.8200029814249,-22.8363779445775,-75.9037705015006,-66.1892478203152,-56.6197180149684,-50.5300172297477,-51.0374922951828,-66.9142121995081,-55.1697892565825,-52.1974353018915,-50.3850243539092,-44.8027986341235,-50.602513667667,-31.2459647432156,-28.9985751677175,-31.9709291224085,-29.4335537952333,-30.0135252985876,-30.1585181744262,-28.0561214747667,-33.4933543187137,-36.3932118354855,-29.2885609193947,-29.9410288606683,-30.0860217365069,-28.9985751677175,-26.3887034026229,-26.171214088865,-28.636092978121,-32.2609148740857,-31.0284754294577,-25.66373902343
-159.741151229288,-182.498759731218,-158.710625941169,-149.638822220536,-168.214495201055,-149.169780190258,-157.280641972428,-141.075950109469,-162.820065024661,-159.977128788559,-178.879764011781,-160.032593525098,-163.056042583931,-168.794466704409,-158.673649450144,-185.324664265939,-176.669350927308,-171.979940340463,-209.783754242774,-186.281236572007,-224.936519483838,-181.099926076975,-221.694124567114,-291.96133038775,-158.843966463953,-265.711230796709,-137.443845492845,-277.325789192844,-343.234916301732,-244.066393001539,-324.222808149566,-288.109270197306,-249.186859411706,-102.34088803906,-356.464341121736,-318.706242975241,-279.823721768931,-246.070969125308,-236.951993104727,-314.461559996633,-269.826496056727,-257.825141048956,-240.090741269033,-218.460468915181,-247.139927448585,-144.926553755782,-136.147648875089,-149.23645045165,-138.646591167107,-141.326046281857,-141.869041294186,-132.618181294952,-158.780209290825,-172.032491988737,-137.958603278939,-142.794463285756,-142.032522415537,-137.235095443878,-124.851313456866,-123.891828062534,-134.645168468428,-152.714822927644,-147.156911629899,-121.701359767706
-309.195251031258,-352.817308477849,-312.56309447588,-291.813364106747,-325.987777287375,-295.495467099061,-309.553073503887,-275.483728754255,-318.621894405149,-311.794967613455,-349.973351004875,-315.410725294503,-321.294107425265,-329.464693219237,-308.920149910554,-360.161134365575,-340.342611538513,-331.314370742817,-405.586503679679,-351.247316300362,-429.602067012588,-330.612409103416,-417.629715248907,-557.584357434544,-268.445393683546,-513.645928235406,-229.084284899089,-504.520191453144,-654.839015769639,-438.58831142381,-610.136318541634,-564.937027183723,-507.382231691059,-171.355052218767,-662.153257883329,-618.893642361111,-575.820731414303,-494.747622379356,-431.76618957177,-583.807641117127,-540.585147308621,-529.530064562136,-458.674618146166,-435.129333034201,-498.484789666504,-263.001574766489,-250.769441820334,-274.234077520005,-258.096601582831,-263.175280801846,-265.546627495557,-249.05751507796,-302.503127066951,-325.251131450044,-259.169563962351,-272.492851688498,-269.034789578299,-259.844158629232,-238.052001160377,-236.416864996737,-252.345184682769,-288.588656552126,-281.141944169367,-231.23595494341
-312.831063557327,-358.924679414329,-328.117387921211,-302.34952043423,-330.286915621805,-313.451321397352,-321.850254372165,-281.778920421944,-329.498734831071,-319.781987834476,-358.691314713056,-330.479914874438,-335.99619223519,-338.642053160308,-315.548352660024,-362.998001774714,-339.078024815367,-329.212122648419,-405.962492362303,-330.539475794777,-416.950969530459,-287.079905482304,-392.326122487465,-536.521803591676,-177.778859099136,-506.407482641601,-147.25291597645,-429.043214395578,-625.605282572951,-359.461894456356,-560.267479347636,-577.194126948424,-575.523195298567,-112.214842099307,-598.057056454604,-612.326609994985,-661.86598588915,-548.495445303966,-374.97173911862,-523.309500329605,-577.590122398318,-607.474346878146,-443.618957514748,-461.492724221998,-553.454821620052,-225.95304956001,-219.861802827738,-243.18968515898,-233.985257121386,-239.311272419896,-248.152112871004,-230.891024347465,-294.302186038449,-311.847431165238,-244.955076607532,-262.040173263992,-261.523663606295,-249.058090726068,-235.303569525307,-234.121620894708,-236.979015381746,-275.328396281098,-277.698862316606,-223.244896025846
-193.993624183701,-229.445108212032,-219.670370995306,-200.611879908533,-204.99270357383,-213.480235432436,-207.89534577037,-178.289663261684,-213.661671138402,-203.507460615751,-224.395003727557,-219.215357260933,-219.54380915601,-215.602550286266,-199.111042008146,-217.917199226803,-203.77198431457,-191.314041039967,-238.480732158306,-168.333724167222,-225.770868076512,-109.501466881486,-198.456129480769,-268.407169155213,25.701628161657,-272.935261153171,25.1898333319899,-139.958030082733,-302.686130631279,-97.1714736260768,-233.288222871966,-344.486602345472,-460.166563479752,14.8642895614373,-255.167508213587,-327.727984774918,-536.852486226068,-427.920271785741,-142.919274462573,-209.040550485137,-389.853886236218,-497.69676501866,-237.77793612203,-317.941222873643,-429.709762189537,-88.4286483428924,-89.6754785955296,-105.412852643954,-107.103265700053,-110.39838030046,-128.282168061724,-111.111687010736,-164.788794022468,-172.541477787636,-131.054970377555,-140.932903587429,-152.166854711108,-136.570620987455,-141.583854184953,-141.890470034447,-123.382053180298,-151.092504040252,-165.703268846742,-124.122499529691
-113.012738444121,-141.74683011102,-138.69351697459,-128.816888682476,-118.71845921969,-134.633722516731,-123.106806344976,-106.878649300199,-130.697774979212,-120.768610009269,-129.287375456406,-135.640904874452,-130.031067224972,-127.613913476913,-117.529878850189,-118.334169700189,-121.112362186875,-98.6069087005128,-118.305765563813,-81.074539704199,-97.5638124235675,-26.3129719469032,-97.8953304131053,-66.9416783059121,92.1360850729837,-98.243721174854,82.2276362855086,9.11022724067269,-63.6578415570702,26.1480549982141,-9.27634727246835,-159.270659581191,-368.832213975504,60.6909571814713,-51.4607375232679,-115.628843492526,-441.462156891548,-354.579812920316,-17.3189657678125,-10.2659677346362,-248.532470858699,-427.794411238095,-106.415481709239,-239.558448452411,-356.223813391137,-36.3412976400198,-37.3972868696729,-45.0194623708635,-48.514466468849,-48.5712623703005,-68.0101441993943,-46.5462055567096,-86.9756834371716,-96.0787955764055,-70.4008697659325,-73.9111515487243,-88.404077816638,-75.2137260235853,-81.9485420808796,-84.3642755339151,-62.0911086710714,-85.3077740185471,-96.6861988186679,-66.4533001266097
-76.0906724964001,-97.9738089512923,-95.7182174740745,-89.2964946886203,-76.8993649123681,-88.7888290982144,-80.3562168190758,-66.0811547088081,-90.2727639344676,-78.514472366446,-86.2428237182557,-91.0267152606732,-84.1840049422617,-83.9433361458592,-78.7590421017612,-75.3399408393321,-98.9812035700252,-65.0570777950606,-62.3795677553633,-78.2587705676821,-46.9443568228448,-52.7839687073002,-105.935914983043,28.4548264466586,16.8420577999289,-21.606435668988,45.4789493112125,3.22886624626531,40.2809018745179,14.9583381332868,62.4848482117456,-65.1084274285739,-306.128439790857,46.501571531159,0.637537900737899,-36.3296448158655,-396.814316637693,-330.621893154256,9.23968497334468,56.4314684685465,-190.221556353217,-409.022775226797,-59.9199800966001,-247.70886658829,-343.722136319648,-56.585430436756,-49.1424231143791,-52.6178438223849,-48.4936948341665,-46.1325676843989,-58.6912644624284,-32.3820913639172,-67.1844184564568,-78.7098699005714,-53.14906466021,-58.3515783846364,-63.1685668989283,-59.7394946011893,-51.069641904803,-57.2459673378193,-45.3722923952669,-66.1521313694806,-67.7448749896814,-43.4567957464131
-1.72186568242643,-12.2849252998681,-17.9493029974453,-10.9662217729366,7.83826896817723,-14.5230891409937,-3.13264579675138,22.0102104621593,-14.0860786993546,2.38758462984304,0.373853269313142,-12.622225101774,-8.61958584506506,2.95583482177567,-8.15810178095568,9.00189709234242,-44.2752250776814,-0.483170709327948,32.5556189128247,-43.0425129333537,44.0408850913479,-65.0469622449604,-68.5925967158962,158.174707617984,-31.5395874693454,90.8924054660224,55.6791814951506,46.3746746877576,182.048167812449,70.7313028037502,166.030574158649,74.0077787402064,-167.523895107351,76.3486792055288,124.118841663746,88.4456354716393,-273.824842797557,-237.660659586536,94.9429082804736,183.755659831858,-65.9862873067492,-308.649665598778,54.2664413632138,-185.663819868254,-264.971091593123,-12.3631530770798,8.9934904066979,-0.163223124141878,14.9841823110284,16.7748536471941,5.33973629249794,37.3306352649407,-3.58552216581857,-8.37640230876172,18.2260245562856,15.2885378076865,7.35380195963279,9.84083616783538,19.7194710739494,8.71252552591885,21.45154480244,12.8288996689991,6.90519801740558,29.6653343747714
98.1394815664481,95.1660156175719,79.6192205455934,88.7120163713366,120.883606102908,73.387939980571,95.7241273364603,130.713557768551,85.0204229667438,106.147079718651,120.282636350513,81.4457536123911,84.3011833065783,120.392396309061,77.3667816892061,114.365346771007,29.7261998924124,87.7792070118363,151.872447457313,23.6770042945202,156.924538788087,-34.1443020477176,30.1732902572338,305.509555874109,3.28914686743272,232.929826516013,119.800956329154,158.459418729707,351.449244160062,197.529856728298,306.533907357373,255.098733979705,15.2045024969608,145.981632967911,297.734430898029,284.263532758505,-77.0739868400632,-93.7828201364821,221.961989565839,353.678342681814,123.180763403342,-127.486410111424,225.95721811723,-29.5380250296507,-122.851511276361,105.790990205208,137.818423400388,116.882171344276,138.153427581001,139.245633738399,115.593893680493,156.695404412726,104.04672123444,106.770515577355,132.350339266325,138.151167108835,108.767475766655,126.981604193018,112.40764677984,101.490429344521,128.162541937201,133.477449218498,112.028260335561,138.872686498921
180.161111312772,181.870415739173,157.003899771248,171.049357578928,212.119022137915,144.735518292873,175.347156161061,206.426745142375,166.080029032688,189.43295849816,219.859484560999,148.65575283683,157.906366287755,217.058542261974,141.787914280952,187.939947663111,82.9896282304436,159.872141483155,242.578405463701,79.6855724933265,233.634748206963,18.5481580257727,123.227223608644,393.584288413183,75.6665906884679,342.724440817346,177.697807121335,256.694651916915,464.153890631504,298.627790381533,402.862157521724,413.380198244137,186.671354967401,206.686446861021,417.936359714375,458.744104007884,141.721532920253,59.1719826424728,314.312686956288,472.234487723646,281.182068408005,80.0947346231376,367.621335441927,132.834311211514,40.6508100080631,214.814074664855,252.493293834502,222.577130731177,242.548446836867,247.617410152257,205.727653814202,255.951924688579,196.573939826666,205.357204651977,229.133692805759,239.514924833347,193.20636948168,226.870973194797,185.67062750005,182.657868487473,220.631467885314,230.284183319002,194.783818208901,226.88202650827
252.429709721106,261.317213055196,227.392202466447,249.723336030294,288.383783085377,214.714089084976,250.947448764137,271.609161160145,238.553581648045,264.723122094479,304.945642241815,207.480174078625,230.872314332806,299.883327190201,204.501590285704,255.6630289554,142.902968543239,233.928973876761,321.609254758601,150.02405053029,305.18819469533,95.5280345478041,218.89903672633,450.152625774417,163.44694854843,456.920774870828,219.238261851399,363.616899764581,565.622374547844,396.245549016322,498.835957932823,567.310329222784,380.742522490008,264.72798869152,546.920865869419,592.425754716308,411.471851045899,259.198633350178,409.987559349727,581.923424497262,408.415158868736,327.659925970725,500.477598231142,287.840443198691,254.16413467322,281.414793040354,332.618354075111,294.679727237481,315.850900582857,328.297144186219,267.463736407215,326.160939908029,263.309144632631,285.673465200309,302.639387890336,316.120869808079,262.426332937732,300.773167815618,248.258740786231,254.142684299899,297.762518027937,307.770026159527,260.807030086447,293.146485380007
327.85515112179,339.900839181545,302.546402119122,333.968229355552,364.426429919151,290.529566293535,334.718160924711,353.363987810419,312.151924960409,344.344862029948,387.661792272461,279.166866956051,314.261362150625,382.047467398762,277.528944888929,340.439377157826,231.169700480095,323.098400158085,406.70160177984,250.062741571769,400.40616859734,176.692205796059,343.16873479964,517.886140301243,256.986880769185,601.76361807074,232.586502067797,522.077613556973,710.922526683798,544.968104680169,657.425183582077,728.814331193502,613.932444440371,322.097342619186,743.066762631863,702.133868942338,739.367865292889,504.17895027787,559.179491200328,724.969764696292,545.360188615616,610.628403078489,664.276128042166,469.912356797522,509.42091098981,317.209501070595,394.200156018304,345.182976971111,376.441566192103,394.951751212529,314.402045961343,384.198053953494,315.259089996509,355.145296188959,361.524661748284,383.997613513248,321.840895924058,364.820430605261,306.387950162614,319.518930217711,363.312908035744,381.478146221605,324.899352101729,352.847308065953
396.002954539685,404.704758882908,368.199943479913,405.281356530631,431.270784365854,355.472344236441,406.416402997828,430.24350057788,377.27246638428,413.257838738419,455.597387228072,349.397988574288,386.105064327207,450.018675138914,345.078638441489,419.58085327513,323.042113927694,402.050426285659,477.029593252918,345.603142684456,482.09868138251,225.672394950746,451.517783962893,570.332871314457,319.781704771369,700.701608564541,187.180581060118,654.392877465125,829.101864436064,683.70408907256,794.77705381891,831.16744090405,827.530585560753,333.549112866971,893.542757166214,739.111135192672,1033.84855481719,717.294175482964,700.826892290027,817.187371372737,663.719776758668,854.85845937331,793.75114270975,649.699540294339,728.099738110967,336.008489383489,433.421778716822,376.794048644696,417.579981812302,441.240782443452,346.717849130938,423.699574236807,353.506812212158,399.746330935683,402.708911319876,432.146033749393,361.138724151604,414.969360775314,345.772036701129,368.977469098522,403.938713540768,435.855751918607,374.701882332431,400.397973619606
440.942282285605,450.183345220477,412.839647191575,448.093062345329,474.006366187649,397.344626707367,448.337476577293,473.982140864691,423.207156608052,454.846600433074,497.734432097476,396.64754769596,431.647878361541,488.534374005727,395.30227809514,469.754301620584,387.711304250904,443.139664810306,509.243036777968,402.585095178632,505.371325445205,242.917037203571,482.609202910745,564.072578499309,319.750859384684,677.248191827019,105.723042081891,643.311394695895,811.368957023673,693.120351286228,765.074712873827,810.060888020378,932.156535525182,267.305273945413,869.293412138787,649.874851617837,1173.36203003823,831.996850409152,735.044999180901,779.581181832693,720.319976757988,978.293172537577,810.78642855269,754.941827751987,849.086592817688,353.129065492918,448.019252905247,394.55218252615,433.043779005483,463.630053552355,370.549824617664,438.540304387734,382.721970583262,421.68294241021,429.903516974111,454.190676838864,381.972318192291,441.291508213954,366.198808721888,396.933873878878,419.947043492606,461.031970589163,401.03830512985,428.394407760777
440.606113550141,455.575968575701,419.829249620333,444.676176992944,466.930223768772,400.530047183785,443.62442224524,463.64456474403,425.631702992876,447.291467024159,490.312353085451,400.46186637578,433.583137442587,475.125779104815,407.584134976992,466.333460121535,399.451742673851,424.554939540768,480.273472080444,397.685550841003,454.263571142376,242.756502793753,425.2361502938,477.370635172439,254.857553812549,540.803593093962,44.7508738863255,480.256771144003,636.585213737357,528.405049764169,560.155004430525,668.55463024682,852.398486306843,132.239708878461,699.292763338607,487.852773304241,1094.61174493391,817.219476753202,665.78106240171,661.280198762456,710.012434882284,937.108972935299,736.423324820646,743.130074564214,844.610454183386,359.909070208694,433.373325263812,390.64353240507,418.451150699109,452.334950350018,376.911141181162,420.745851358048,390.389669054636,419.219362127018,427.843097775789,440.797964681598,379.894312056741,428.447163613922,362.34718220017,389.894546393542,404.580245609965,448.136229006151,396.295765673339,422.458269092621
380.674130479998,395.44135782601,368.756652275444,378.315873537359,389.785621499094,348.721743633204,377.077585575266,384.188453379324,366.665946364939,373.735612812917,408.052729745004,347.922344690482,370.758060264701,392.332880642807,357.04860064171,389.537419663056,345.964668438747,338.66396011248,377.14547114355,322.844830715145,336.750985177006,212.629033411594,307.27089443613,315.345964431177,138.920098842641,349.199639745103,-6.14800200187059,250.178837034469,369.688534800041,234.147179609784,299.996279892359,449.170554948291,609.282078148944,-50.7195165472106,461.248925027317,339.076642459356,834.840319474477,683.686751501765,557.903561697473,515.904156102799,609.370824067516,740.477743281482,609.941928119076,612.234870649737,712.804400364872,317.73924841599,366.303630270994,335.998667291165,355.295327275102,382.450545682189,333.687742923938,350.213996303697,344.252663722109,367.350021056799,363.140659223134,370.207084893578,333.837179049933,360.286972369113,311.100897224111,330.746113053802,337.140718491189,377.692936117424,346.062257048029,362.075392316027
278.307004925568,283.586509038382,270.468746818161,263.762394563117,262.105404153206,253.34507976789,262.865747802061,251.942597611459,266.757513301022,252.659306897284,271.894100817447,253.587354016448,259.143368832506,260.844407339035,254.940177706027,260.386153287731,251.407687080593,210.368950998477,226.478334392175,204.832652422395,178.654682843926,136.229786891681,158.506220195109,117.87912348195,-19.6675747251797,143.3310969989,-119.83183330643,7.30134411726912,89.560077126618,-125.760156767569,43.1698336466596,197.081595911298,344.336075441126,-243.916882906785,125.710149277044,177.550059867856,501.127953647706,493.265964451432,373.004338809592,256.661454599771,375.804017482289,448.709785394024,383.005026846513,373.720804080141,504.834611365096,213.45582976475,238.941335885053,222.1722564337,235.400707341981,252.22407105689,232.322337426066,223.88289172548,242.795068378938,261.69250997054,237.865779590163,242.924082492435,239.333624128775,242.40198600463,212.664529047862,225.488261603021,221.371309708261,252.132683295202,250.773878411113,245.760588187283
168.407954484041,162.299036388527,165.612932841403,143.2370967749,128.594837842599,148.261403570018,142.481472741862,113.018737069251,161.575417172909,128.950519436552,134.776121775741,151.671790411658,143.277368838527,124.829000069744,142.666872094066,125.392275117189,158.019740765182,81.7226273737586,76.5841897759613,84.4911619371604,17.3194222636304,33.3321180833155,-1.16504373248257,-62.3363417714861,-209.060181322967,-67.4903279300987,-302.081823563345,-261.897581032193,-147.136849329357,-494.318253437886,-236.635137330891,-39.7830434544772,184.320393089915,-390.02852310819,-324.23013382251,-54.691052627604,193.990598002549,317.375449727087,33.8743030215751,-177.002815601871,46.1148763890374,161.018174528526,31.3493400069939,69.1082054667533,310.5829072909,87.3169630121729,86.9715427330177,84.8026815253818,89.8946567644797,99.1997293479642,109.069188714334,76.9297272942296,128.664365913572,136.334349752228,96.6784548542676,96.9272230854166,124.457038913169,104.607129575601,102.885692553829,106.287593587806,91.3637849872003,110.880535510672,135.342914241669,104.156754973965
74.8404086826076,62.5037613749256,82.2070336664165,50.3776336399471,20.5017162940984,61.3957127540573,49.1105006946079,3.96537566850565,72.2725212379365,33.1146589797526,27.9980720630502,68.9001459291427,49.8349237348213,17.150975612069,49.9385106639275,13.7935279939852,86.2254607965257,-19.7170557585994,-43.3197392042632,-15.4160817986705,-112.513332143491,-50.4676079025087,-145.817841235977,-200.865294785658,-382.954153490286,-276.914482069519,-439.969090492067,-550.638242654983,-332.723430976502,-788.464537003244,-518.577398636342,-247.16453178178,122.839338090694,-453.29242969332,-744.766728812661,-309.872124532038,-48.8595214250349,194.43359428785,-392.032155602109,-618.55458106474,-264.244405569568,-19.5775201174663,-321.9456406071,-199.998824366356,194.803649849925,-10.5677977109073,-39.8792772466456,-27.6367205382649,-28.8801677025171,-31.1927649894146,9.03857034082195,-42.4064507291673,41.3311817863391,31.0779795771386,-18.144408565275,-22.9818378936411,28.0397288761486,-13.5779264119934,15.4046620581253,10.4155093844193,-17.1559360672694,-1.41437305720765,35.1263563649579,-14.7953720277985
7.25020612050174,-4.66335802771317,22.5146768385191,-8.21608517612758,-51.9491984320448,6.1957662627963,-12.4755726906105,-67.7480347858539,10.4941112065247,-33.9695920259721,-46.2497613648753,14.6875557156856,-17.0448055002183,-51.7792489583442,-13.8608170477749,-65.8647019240594,34.834852762321,-88.7653673249241,-127.088778568557,-82.9673777939244,-197.552401297442,-83.6220163429454,-238.277058136098,-308.210606359944,-468.120729991681,-460.268563685968,-423.018772533719,-757.771759362937,-529.894992630233,-893.809495750968,-727.532216938044,-471.103371476526,68.5080540275274,-432.331653307795,-946.710332563707,-513.639169380502,-251.001702323101,126.796067633358,-760.497193872038,-844.560140436137,-472.187252437052,-66.9595056529763,-547.841517849225,-334.401121827044,154.270823082006,-64.0073960583949,-116.551502245209,-92.1986761534594,-95.5452552011512,-113.935981979031,-51.117700054977,-113.423935339117,-12.4980930061643,-35.4339789002955,-89.3248156085646,-96.0098491945949,-29.2697712210777,-84.6636442273713,-40.5907574396537,-44.6803803381073,-83.591857119871,-68.6949769193249,-25.9054147591862,-83.9288467784462
-33.0724894948386,-41.9555898802698,-16.7484707139462,-43.6785677929397,-92.6904957143936,-18.8158861934578,-51.6949591652755,-110.71994132696,-19.029656372094,-78.5609159835317,-93.7047965501309,-14.3117915193176,-57.2072141154766,-92.9839740574471,-46.8860980540415,-110.704523502848,8.15870564920854,-127.202669710449,-176.028916297222,-102.574445498146,-241.186359532041,-60.756125390152,-257.024779105988,-390.637704788048,-422.100848142514,-571.684484712779,-264.709740754448,-757.419108673738,-756.653546933389,-757.231470908931,-796.817369718585,-712.931412442892,-58.0253810503958,-336.824948158163,-859.116663184678,-655.233266076843,-435.838574394782,70.1281394377486,-973.998805440935,-807.756221996995,-572.170904262738,-73.8158173791532,-661.372231122481,-343.698945495596,121.921938771901,-86.7787932993434,-149.48840960433,-118.1623891352,-125.4758334237,-150.454599685302,-80.416533773106,-148.358825919978,-42.512529600918,-69.7544634822908,-121.862810917417,-128.51691047553,-54.0873876027598,-113.033950411892,-69.6393200440596,-69.2396782605893,-110.0605291398,-102.579169175388,-51.6057395697109,-114.96500746469
-67.5705052921495,-73.9074866269686,-48.9897957865229,-79.9061622494003,-127.742049502071,-39.9396076872907,-85.2108951871284,-147.58863364864,-41.0272865349647,-114.423270829784,-133.603262885049,-37.0107369212546,-85.8084875635697,-134.395994982196,-66.3675430049489,-137.291213937235,1.67834537836379,-146.181901928486,-207.866209628014,-82.5281098987244,-256.509574538944,-3.77550492671983,-224.673184281656,-437.610132809852,-289.421192619204,-584.729579923061,-77.5900639782597,-569.913071636059,-894.17062236385,-486.525552434827,-714.206365768174,-875.909009725584,-287.860898224206,-194.100548619089,-569.193798837664,-738.927057653397,-593.364481703722,-61.9400894624246,-953.941009339761,-620.279012462523,-620.712621694392,-160.063284119901,-741.368928796154,-344.499923724361,3.24126764744202,-107.544203180625,-175.534248164082,-138.11267479606,-154.274754943676,-175.634107794505,-103.07102023068,-178.107929133941,-66.9581010646838,-99.9072458305617,-148.723957574911,-154.91674592776,-75.1552668943623,-135.59926664968,-89.9006082131472,-93.5996765629088,-131.289357239982,-132.955364987015,-73.8816569081853,-144.177274608863
-132.184031632517,-134.405174324768,-101.668042769248,-146.114365665594,-190.762830643514,-92.7401344402219,-138.12063833968,-208.497144661736,-96.8520134218152,-171.566965358697,-196.354171003033,-81.9686275188296,-136.03576221812,-201.206990414102,-105.709180114164,-182.038764768647,-22.6677837421821,-176.083579924779,-255.763195619301,-73.4209137981098,-273.61154604342,39.1194155109445,-195.149858119918,-456.819520831663,-168.357320483567,-546.722314613283,39.6624369187859,-370.482081652299,-864.932882131646,-268.285979945365,-572.465969283118,-905.837314428118,-558.495748051724,-61.2194015232626,-284.748264763162,-771.229064645802,-703.373280551962,-289.244480311708,-722.976373062688,-461.97295255147,-677.851873072227,-328.860168735289,-821.37424981667,-418.009419028554,-225.978263920914,-155.804263846694,-235.1693018339,-185.955166152618,-213.704401181015,-236.132792953802,-150.720542829713,-236.698918660919,-114.780713509836,-156.52552378308,-208.087487501191,-216.724301621452,-124.66344847253,-192.117435333205,-132.46976099169,-147.172242233779,-188.02100645209,-193.523790227041,-125.294261528722,-206.385104576877
-228.139277384645,-225.585756649679,-182.568074031763,-241.826057478878,-278.812101244394,-177.570252528702,-218.593311854041,-294.712557851208,-186.887600403373,-255.563514007781,-283.286347805635,-159.367611622231,-216.629521927403,-289.054672044368,-173.484345050044,-255.022396127097,-94.2704979875842,-233.052326983002,-324.375439165876,-115.997735511444,-314.660562578915,34.5386134063104,-202.524196619992,-467.986693653265,-101.68113407437,-521.725361017793,78.8363956530501,-270.562608341665,-760.389086243192,-175.457793015498,-479.916577383878,-859.239643791511,-727.760549722134,18.7504121582126,-175.524056023641,-787.427861526531,-740.16604237642,-494.963427934542,-490.638923185166,-463.391885555059,-705.663184471786,-466.498631567941,-881.521619961459,-500.339404082173,-454.110869545412,-231.226873990256,-322.957796687217,-260.893899262315,-300.411134262124,-330.739132742643,-229.869774963901,-326.017184685268,-195.169853926611,-239.223269373265,-295.195441046297,-311.016154792029,-205.076935576534,-281.935525875693,-206.511727560425,-230.312825496602,-276.199706392904,-284.045049558559,-204.44387236248,-299.585093790906
-309.232094715504,-304.390621065549,-260.169096298361,-320.559590776169,-346.372861173381,-251.191390507732,-294.164796579019,-364.096847598387,-263.244568427192,-324.305316758755,-351.667228628331,-238.516423479081,-286.326947224606,-358.762852500934,-236.497807904626,-317.162246077314,-177.838153491335,-281.329585066444,-368.812044953916,-178.140300612667,-350.076441333685,5.62769917555649,-218.201084137004,-450.6863629385,-53.5295975339912,-484.347639355637,99.7004904198134,-215.481022476125,-646.26399817013,-137.13290878734,-419.647307636588,-762.467098846952,-724.199658822523,59.5931804591209,-206.251534877496,-793.872404551188,-657.747476129899,-558.359653040271,-413.40686705678,-573.487022945225,-591.268131283577,-475.396605231988,-863.850584334037,-457.654288900551,-545.126366693626,-292.618094898303,-389.391249141013,-321.01970132184,-367.896281498995,-403.746681304625,-301.142615717643,-399.323613681727,-270.752638496074,-307.943628814353,-365.694723483622,-385.809159018037,-277.348096585908,-357.660424965767,-276.38282305943,-308.712242526004,-347.496299523865,-359.189348420357,-276.073000011402,-376.871068657706
-328.737019110472,-318.812040707473,-287.196334298647,-332.44403902413,-349.491625895569,-269.162229007744,-313.089506846486,-367.425903641646,-281.6044468978,-330.869994638164,-355.934771901318,-264.599861433873,-292.046695716349,-364.064833980738,-248.999792763807,-316.271506963223,-202.581449921856,-265.446494830401,-338.615036280824,-183.792040463038,-314.748685104078,3.26694662139385,-174.285951753058,-352.973355789655,8.37842388194823,-357.345510690146,145.722582131163,-123.394027762473,-450.322138364767,-72.9449571472868,-314.483696792937,-541.434071816728,-576.105872831906,87.7984983881251,-216.495968290665,-714.559776681188,-402.426975340886,-464.242372707112,-393.948564329562,-628.667242323984,-287.103134183658,-328.784293141742,-714.919544919662,-233.553214917083,-462.077116813769,-296.714509564189,-390.030470078457,-323.192207896851,-371.136080008694,-407.672406538173,-314.584069221766,-405.285011832117,-291.048343844056,-318.177226298056,-377.598774960474,-393.257558165422,-295.256819396134,-368.489072740151,-294.985064408652,-335.754721376743,-357.702953267353,-371.349805537431,-300.059657152425,-390.153700737662
-286.666945018266,-266.398161080901,-251.197216235998,-282.200633407638,-293.494260445279,-230.051674264718,-266.491763005703,-303.966605477581,-243.234377827181,-275.153771054808,-299.362814363854,-222.618300358392,-236.291416386167,-302.934685971058,-205.650516388744,-249.299294474814,-158.430804142583,-190.881676477641,-244.878277099525,-126.84605827949,-201.212450386158,22.2597325795183,-66.3742006111566,-183.06085468043,58.3809593707283,-151.650080073064,184.646436836649,-4.4470214602364,-159.016475814909,17.881489220924,-169.995017224655,-180.61339567639,-311.309493821955,87.6246512658902,-148.404960062094,-483.619931586746,-4.18985997066575,-255.748172195986,-292.154091497755,-570.576826041491,117.076108028324,-65.6960536947728,-468.391972356161,86.1403377425384,-255.387807890668,-249.917145188239,-331.025577888704,-272.188667542,-318.513847657456,-351.610289589117,-269.567762279562,-347.952780643175,-253.207787438615,-272.49531844098,-328.338624241079,-337.673337340278,-259.486041522581,-315.813361174692,-259.732012115378,-299.927423868558,-311.925157360503,-323.735024316849,-270.077152979666,-342.790787060708
-231.322280376537,-207.120192571797,-200.134292335063,-227.70256526994,-234.473887876449,-180.186886674661,-211.519708441636,-234.263760521571,-195.075966889777,-210.743802402419,-237.732968386635,-169.041811934778,-185.006219506617,-234.861434147757,-164.018812872682,-183.796200832511,-120.702469629849,-138.581890199235,-167.544205513958,-101.010809083106,-102.42256042967,-15.2053856228114,1.49252235075922,-42.3073090985995,32.5078817935149,17.9895570462905,138.39485348687,72.9856932182471,91.6917699939992,78.0974857198147,-60.5514127914491,170.873031924776,-13.7405554132562,39.5697249436516,-92.9651791106158,-162.846796568322,345.513236745705,-23.5431370131288,-141.812881121087,-481.876039903241,437.55139016151,181.760100663177,-236.569764199671,327.590207223045,-38.2338748793319,-203.058174314849,-270.468566464577,-218.313976542873,-261.744574344951,-289.63391667948,-219.776793309237,-283.846810124774,-205.023024260237,-220.88624575536,-266.123549884054,-273.290898736008,-217.16597315768,-257.206035350289,-215.980740063471,-247.192323230304,-259.773418483047,-268.985980620469,-225.771872232161,-286.560225472398
-204.544283762028,-186.32068018126,-180.566887054565,-206.225196308124,-211.575508255009,-159.13943524289,-194.782557273794,-208.571988246603,-177.285686998009,-185.092108160134,-213.111511804594,-155.264433544336,-177.900047949593,-209.287262080957,-169.718708820347,-175.045660084973,-137.603290870533,-157.077526989044,-158.222074158067,-156.050141529047,-94.180621866494,-132.793010189104,-44.0146346631808,-6.58328171213899,-84.9306190597084,79.4589387239798,0.17475601317892,78.5831887655869,209.595998980007,77.896692343073,-22.5557878398522,363.612883773188,155.50940008407,-20.5120650942549,-125.540827910873,129.015718547539,456.618370295346,108.151723389726,-38.162212475206,-420.97820475572,552.09685745128,278.642297524658,-77.8721026992988,393.082995804396,68.0774702398405,-182.775202910016,-247.564008873428,-192.966261410874,-231.291888959598,-258.465320044778,-200.486457391373,-249.248607269137,-182.659490453617,-194.314902182029,-234.611089320944,-240.282931546416,-196.687636414007,-232.262919822813,-193.731657638397,-219.627006218467,-232.007657244921,-240.427323710547,-202.522011820806,-254.75694782413
-192.407186250947,-177.09309980824,-172.563445292327,-190.881442594642,-198.722614606623,-149.059964494811,-190.592795509247,-202.874670615575,-173.274991857293,-179.590744041378,-201.862214449577,-155.158251608356,-175.050700761067,-199.750270732635,-181.227902873736,-184.495419283076,-150.470415354399,-185.16186218034,-169.297894756811,-200.81133781961,-122.476439059097,-210.37990560615,-112.575683546532,-28.1779813518916,-181.868167210962,84.3162527181295,-100.504160075888,66.8034190393199,247.09032678277,81.1974289646625,-23.7320530677949,406.705581679769,146.911421422046,-32.7327947911279,-193.031466274077,355.616502474763,353.141940277389,95.4325652595088,20.1795308253768,-347.157194388234,516.151506417106,232.811595584559,47.1987308214984,341.128463917018,43.6833907094769,-164.822897216562,-237.100160157213,-177.152390497496,-211.130611699455,-239.342045950683,-186.191064592611,-224.237867379972,-172.363331705396,-175.934796117544,-217.788607874544,-220.687979938991,-181.667886826791,-216.815898968938,-175.692002325659,-203.76384560712,-210.021579236306,-218.274059187084,-189.901457294537,-229.787966027051
-165.504458546284,-146.843989942312,-145.331822654096,-154.756261531019,-164.727818204562,-122.329933803291,-163.949668304667,-177.240357503159,-149.616586451218,-157.568235763611,-170.973979791006,-128.920722649577,-140.851003082161,-165.910015229753,-145.190490650403,-155.616604515908,-100.934147946383,-155.499592141107,-146.124020701932,-146.77324448209,-103.067190807202,-143.808921751393,-78.2508448823082,-34.638859692799,-130.45560964521,105.586913779799,-59.0522752313481,109.943831312078,259.251663266336,148.734518953517,-20.2838442417956,367.415336596702,46.8925642147749,-1.9568997312379,-214.164345714496,523.068632581671,154.575336430034,-12.2973104168719,68.940464694257,-227.619561537651,432.255394554906,116.802765321738,157.688687317204,237.908164915066,-56.1238119044295,-134.931491167056,-213.059338567389,-152.996145763108,-186.909099668918,-209.007603805542,-153.179499108052,-190.676048352921,-149.499779483911,-151.686037172128,-187.551902915986,-189.775051317916,-157.260886361265,-184.15565594055,-147.202414596502,-178.103024854806,-176.257091680789,-185.585056536833,-169.308632381457,-197.395348408642
-145.018590440696,-125.793815090367,-127.923533548515,-131.924631818364,-141.72999276068,-106.286233290725,-141.201893627943,-157.70052005489,-127.505850683677,-141.598835195395,-150.525981493613,-106.494762906055,-115.993003171946,-139.472904532833,-102.540770693989,-124.239814315785,-49.9990692577259,-114.522103807234,-129.46190666899,-67.7131896932883,-67.8718390079707,-41.4758458703666,14.2889844772995,-51.8042475480858,-7.35139759747245,125.19536730154,3.64778128439419,167.109291829095,214.664601617156,173.754970393032,-18.8772120772135,250.939853462113,-110.45722286607,-7.0933882265253,-228.166220352846,587.201845273486,-113.966878205362,-185.237035639545,62.9804107673154,-125.147502365805,290.140799246075,-71.7885185786095,195.348417732387,60.1190346559074,-222.129428760558,-123.425637808662,-200.304330017019,-143.684184622276,-178.489873195479,-191.549329726969,-132.686314018612,-174.046903286214,-129.220725521354,-141.64821075948,-167.591264227167,-170.317385365654,-143.427099258229,-161.451115190055,-132.697477631545,-160.168096014077,-155.078405902113,-168.914025272246,-158.992024593475,-182.445431468031
-163.20591444912,-143.60715826733,-148.464164369039,-154.758266897303,-165.166518934671,-130.309824561512,-157.936536666489,-180.821841963903,-145.926339177972,-163.620665334907,-176.146985862546,-129.208068596039,-141.315976777899,-164.282341224386,-120.700521842289,-148.797928823282,-79.6302642614029,-135.300973665397,-169.829978514321,-79.6231881471592,-87.4608411261081,-70.5953402935891,36.1849005871238,-121.965430215783,2.51240553130444,89.6978263158832,-80.0163541557897,124.141339798533,91.4728014105445,19.7723335144391,-55.8416049978613,82.928963934975,-313.407208446846,-87.5304322387853,-299.052511876067,546.820474357638,-411.351642985026,-399.914484573544,-29.6151583740362,-76.2472469967659,72.4622645811007,-306.55790134433,148.19345941452,-171.41996804096,-442.410592205602,-147.30840822327,-216.675927607088,-165.239674675776,-196.256391583495,-205.935595993008,-150.225403811162,-189.132076747974,-137.08623146648,-157.659409688806,-183.587423978168,-183.691926824987,-159.277354009295,-174.839913834688,-149.358066193377,-165.691336597792,-168.517808975761,-186.314428718194,-176.806442789285,-197.0909425119
-165.525568434085,-132.803907513199,-143.28349240871,-158.220351847459,-164.92726878279,-134.52685633078,-159.537446002439,-179.214722114872,-151.843958957048,-161.928863854151,-176.165667481335,-139.325480983868,-149.124908753803,-170.692322543337,-143.801473957472,-160.396045863969,-117.071007158793,-148.028156768902,-181.337582515677,-106.875322605146,-89.7480905133709,-139.663470947298,39.6084771084232,-151.523853077935,-30.6977547994247,65.6249785198112,-177.156354862724,63.1131155592293,-10.9517300814434,-151.653185912889,-43.6762799140012,9.64688781910408,-377.16659025719,-158.646563654653,-279.610420791967,571.497054925432,-539.816069947216,-507.405628557254,-69.5600899937723,92.0226127351476,-77.3990502689047,-402.819081959204,169.630718357246,-300.102592216716,-552.18985965581,-144.780501404268,-198.9864969808,-156.371620305014,-179.09764645174,-186.521156238485,-145.101101115562,-170.97698789445,-128.792409102209,-142.172351011565,-171.058781170975,-167.083438156418,-154.960417663339,-160.595674170782,-144.020057540352,-146.418292825889,-158.907109119682,-171.675622917985,-166.064705578962,-179.820908366459
-49.3903575204528,8.05183043018418,-18.5497792711539,-36.8373415650058,-27.8666646895306,-22.6938739702313,-40.9170208826671,-40.6421594438169,-34.5486309543468,-32.6272169065587,-31.8792811752367,-27.7866163278549,-23.3686417629858,-32.2608435115671,-36.2486364461525,-21.3776404022254,-7.59687864875786,-0.407374561272226,-17.4006811013584,41.8017046771979,79.1601786557606,2.35301154033398,215.556342439179,17.0020001530155,170.493950887335,218.572390515885,-1.12961211800544,268.45404627803,84.3920287355452,4.85048378760815,246.069293499556,176.282741601092,-99.9451424795379,-94.4863100153152,83.3451374000539,845.22658885422,-307.962637158175,-336.208407226419,117.812008784356,599.335334163367,29.9121658561613,-204.536692344198,440.242334416128,-181.554990827147,-364.511967905421,-29.4691163634039,-59.5106818796784,-31.1328217928495,-43.2634375998169,-42.5096943993891,-29.8210274313357,-32.3815949415658,-18.4664502127459,-9.57404683014244,-33.6523212183545,-25.1443072246883,-44.3864962454974,-20.9563831188242,-37.2045723400007,-28.7629086817937,-34.0492368369402,-29.1136197627555,-39.7865446247509,-49.9271808096913
160.959035640237,237.372067358474,190.5302515549,179.374907394722,206.176649929998,175.929481690562,175.781660044307,194.998038377795,182.99286676398,192.531792940381,218.98311104103,182.465340306137,208.912962053384,217.602196397415,189.887608215422,238.804740772663,224.120919828763,280.751373645041,281.134477820145,344.820088403691,382.903779424673,336.923213481917,546.853980054171,346.639055293536,599.617954309368,542.42197475423,408.736066340243,768.375849312753,398.249057172394,509.614632110165,810.129607430049,483.050853970376,351.255108408765,121.374803267777,723.895069550605,1231.1430946427,192.950924330029,-7.41303167722575,473.391010982613,1299.35307518332,327.449769462885,139.685201085341,860.18784172594,96.0814686294721,-10.4564216187106,160.023145695165,158.125075708905,169.308298026291,168.715871720438,179.811536329873,159.145631377949,181.686443616922,168.346158505997,203.847716947288,183.246398922774,202.63801505747,145.588035226981,201.066702811475,140.972308086321,158.057677308302,170.63133606254,197.981601374975,163.63671890974,152.022865596948
299.166915247604,379.722251157642,324.191495953966,320.121829798441,354.012890672602,302.92687324393,319.757014645002,342.621665430725,323.663369863658,338.552942926,383.280205988964,318.593547928727,364.487725149662,378.805141657639,340.806764343374,408.615263570962,359.297974751474,462.768728751887,477.316785774761,539.984906930214,572.879219591594,546.641571625834,758.19758436179,574.498829156202,899.20043538026,763.475461553521,692.593887566586,1170.11626189421,670.700254340467,976.446386647236,1216.35487288622,628.611987793386,564.428657040564,371.627266385486,1223.45199382695,1310.8877466044,624.503979453842,134.775229802352,775.084616239811,1703.65010235673,487.126874743835,305.525615200263,1062.42569968478,254.533509673875,144.717505514171,267.850548300628,287.080165233157,286.542374250544,293.654504383527,309.4555914058,274.363313889051,306.607800344952,282.672888155475,333.749620419018,309.076909682574,344.757178597943,267.68678851092,332.191462784082,251.992890594023,278.817623635431,296.285393403344,334.514827504057,285.582604554562,276.243764884865
275.509634964485,350.535646210705,299.53262244487,295.404881577704,329.270515555324,273.34868984941,293.344882971495,313.528584141985,291.309251923502,311.587484479108,360.476136125013,284.563671075143,337.7076126815,349.95150776756,303.382606354029,375.630333370132,286.168918150427,418.534891838561,444.16940238183,487.441990447501,517.189263099927,467.690806984028,702.611301204741,537.580849151574,876.004881673456,686.611616759156,669.38850308521,1178.84365434295,669.161005558106,1111.76172549041,1128.31511184411,501.049812274105,416.411998020302,524.646229131557,1321.2639953472,909.992625142188,766.458296268239,-27.6075673419872,931.247531174347,1544.90724036515,340.627206623961,186.178401853858,863.203209254298,162.310279375336,-20.4869885249305,231.419843476126,253.90154844758,252.995393557503,257.261792654785,272.02900151274,250.460245758844,271.298934642048,250.829801980854,300.03194875156,276.566068695405,318.618217864071,250.595093854338,297.742934385318,232.143265908968,265.11552583809,270.071957621683,302.25686610767,256.399179023045,254.930451481022
180.444702342926,244.942477759085,202.299747964394,195.838631184934,228.239169645618,173.913552279804,186.627544921593,206.335413937064,184.309878705605,207.342746105288,246.295933541861,178.385800123482,222.275705397029,238.182605224902,185.87059757136,255.595952989611,143.717199827679,280.838058835702,307.604059332756,339.305294594029,358.631710502087,288.9878479319,542.71291953439,371.198889585644,714.656890232761,461.24216808873,514.480108982353,952.369839220762,497.303144381559,993.183163554181,752.819401385443,307.188854795332,132.061726746422,548.727241000015,1148.74708959833,313.265116440554,700.782188418704,-302.244905075874,995.52661162199,1059.02457352476,94.4483191628817,-54.5215907004299,485.035677967993,-17.6062811301815,-302.334092430795,151.309718795102,157.521192153538,166.604026577601,155.743570860297,169.241916787885,170.56478714133,171.372144001161,159.844718544393,200.553729757487,188.399673826022,215.714527053813,173.784841801697,196.465847778208,158.573732539537,190.018666110776,177.637859583705,199.591481773316,169.610491252909,167.712984376515
116.578968692283,169.164508291356,134.157262822438,125.684819276653,153.869123825557,111.789650356074,112.569061171747,129.242424839322,118.175766047001,140.378992467508,158.767658473392,116.61923871706,143.028823236529,161.572319330737,124.13277750551,182.392406873429,88.1506444460131,207.620242237298,221.069939129131,271.831439340494,265.77297994872,230.809522260978,455.114956512623,275.662959134933,614.613222419206,317.77238213292,408.396555360284,743.285508839933,368.552513517606,786.024760819993,421.309097885707,220.962748861785,-119.338492885593,494.723298810611,879.167192078838,-182.322137174929,576.788151764643,-504.256825198329,946.9592969544,581.204185964238,-10.0876934878704,-264.945263384007,207.005706711146,-99.3840655431671,-511.60632578655,111.807153478383,94.6066697119136,118.20636022717,87.1994027882191,100.349212160282,116.295214094167,99.1787065827523,100.529981776609,138.728460201186,129.940766337336,134.061791530907,116.535379633048,122.586629233845,102.261698348836,132.772023095177,108.007549672626,123.420099258374,113.661978374814,98.0255643338697
79.7296372757199,124.312621700345,96.2351237434132,84.5688985683364,108.702928927688,90.9014948877416,76.0620741674909,84.5041835786053,90.4572923203234,109.631050295423,110.1689066365,94.5925110084877,109.970285718597,119.344184984112,115.677877742403,152.572482552806,103.761130485476,192.006177489986,189.638787139015,269.902187625182,236.634421027838,277.690529142819,408.888777933373,275.277797616432,547.386130713065,260.971491179121,310.355972790314,543.0236030245,314.112654481964,506.346850997076,139.714350725078,211.294420974856,-322.117320438236,386.662087372811,520.084003352769,-530.944392315882,422.895207306601,-565.629073914722,711.600553610979,169.976964962765,33.8050225175691,-391.782644409042,65.427103212554,-78.7037864895373,-578.200170368572,85.809636569969,57.1031327468427,89.0865282808851,44.4547923676901,57.3983512094044,80.0209919706754,50.6837466387958,65.3468055915042,103.58806112082,85.4582446059305,78.1437245981772,73.6103989992382,72.2077277311734,57.2845657730384,92.458584935129,62.9045488632936,71.2711204119176,76.0159582187627,51.5248768849781
45.5237491487742,85.8769277682665,65.000878762924,51.48614584852,76.8067198548592,77.954834251967,51.9183654763372,50.8425624797118,66.4969739264345,81.2566057864508,76.2278808936155,76.4397001120802,89.4476060471363,85.655086243412,108.187676409349,125.256151250939,116.374906276079,170.770113994166,167.35983262815,246.712988567184,209.405615742536,294.06085097208,309.805151412297,297.30559190042,403.274526531325,188.723653731806,109.752103846741,246.024960031102,301.839005571273,144.516635841276,-147.290119274504,245.903561258943,-428.089680742728,183.492580462359,125.669422463547,-703.504212352531,260.050466461108,-453.104333116824,372.211707894301,-210.372960815048,140.745925472155,-374.318492873143,-12.0377478311733,-7.56426585187069,-458.596437927945,38.9895026556935,17.9158596156646,50.4007332326821,3.67747676764376,18.5203130608955,41.4371354430222,12.3334959409319,30.0844279112353,60.4827184000009,44.5601754835035,36.6476170397819,31.4192428507665,29.7244335759422,21.4025988021645,56.7778786172385,25.4479331208639,29.5814813449787,37.570530410394,19.5686103551586
16.6550515105123,51.0527805808336,39.4825063513709,27.5385700784401,53.2647629942665,58.864180121871,36.2074754255056,28.1542273832945,41.6116880574635,52.3095864567029,46.8083704396815,59.4614043189823,68.79448578158,57.6803482274976,86.0237009106817,97.0926620262616,102.440793339718,130.359668091734,144.071711315576,180.284303422613,171.513118125516,207.093126863357,160.304309463041,303.216034821998,158.082443158273,99.8300866458789,-209.250879792431,-105.142393990238,357.339779340769,-220.790830496347,-288.812162847998,336.86597610995,-390.247559534185,-105.428583552481,-140.024947035133,-632.339368500684,146.977523266278,-220.343441257464,119.268991546366,-460.600546537482,247.404202656474,-223.851270810662,-46.5204656919081,94.2397027949316,-208.135491164471,-17.2791353510194,-24.9637714630088,12.2246666322008,-30.2336467604322,-14.1770522998158,3.31868563684965,-14.4311607777655,-3.43866107785035,11.9307771134958,15.7944030478497,5.63937994156005,-5.16614492255086,-6.82805273695971,1.71416361827579,25.9155032462089,-8.52024434859193,-1.31025255162296,8.34821205095811,-2.85342672626288
-8.55518443984994,15.8598018322501,12.0699503545993,3.12462251807689,21.8272773789671,28.9162837795602,16.9776201771978,9.31080086178294,13.8136672122876,23.4688621872172,16.0360867855952,38.7939125426758,41.8083566904965,27.3191917059595,51.4644417854448,71.1684824998563,66.3471126891214,81.151348768217,120.761425977833,96.129549841841,136.106633579912,48.3087541061894,34.5926813045368,293.957346505629,-105.778412490873,60.5706711932806,-540.80867019522,-360.145101974257,452.018961746393,-497.014898174101,-171.604391140266,415.690607567536,-274.650188248179,-336.086278190716,-247.308972354868,-386.075393008266,59.2423867075389,-3.62797707641723,25.7167958286644,-502.558153862853,280.059367287485,-98.4983787128894,-61.0037304364575,175.783341717189,18.1954363855567,-61.8066914543867,-64.3968803062583,-19.2142200242935,-57.8000676732554,-46.8656710659639,-30.1157263014276,-41.8424922220003,-33.8927492203208,-31.5583813066715,-15.6370522756674,-30.5353029454278,-39.8163073265169,-45.1719043925429,-19.2361137659744,-9.45806442492902,-43.4333785078604,-35.4904119318264,-16.9162223496347,-28.7104206084002
-28.2444393577766,-12.0031498496719,-15.7600774518693,-22.0115083448357,-8.42091554570798,-2.90853917044952,-10.3267437963855,-8.61504045426402,-13.9742530394019,-1.31307844528615,-5.40802736365565,11.1816099024204,14.9639649069622,0.344717281115548,15.3733180601263,46.8872395909919,21.5935520413414,31.6313408128761,93.3633669078527,13.5313588934081,99.4631744971668,-99.4574082720996,-39.1156677568831,256.81327674655,-306.043317843719,51.8889903322054,-745.139338187603,-484.964247137199,447.917547517005,-687.731094716125,35.1851387861297,370.302701744676,-186.069379295685,-404.454877203374,-356.668427655715,-128.874167168258,-119.672565677694,128.753703324544,-10.9339187051944,-434.268829624014,170.220219570712,-120.147236413022,-126.797835375359,157.415621325269,151.258042315798,-76.9831623747272,-79.724080172683,-38.5739433340366,-74.0070366992681,-70.0627811235149,-46.9236721138649,-62.1451434638787,-53.0963133691371,-56.0734465515173,-43.4914211603435,-59.7862789717624,-65.4239400542673,-70.4864178298499,-42.7307107612225,-39.5325980802612,-65.9707630132558,-65.7376897702659,-39.1553478340111,-45.7537970411496
-44.5589062504114,-28.905100018721,-35.7611165468781,-41.0312942544369,-25.0279866616002,-31.448580128705,-39.889391980238,-27.6659183920339,-38.5043872572993,-22.2328893775569,-19.0212466016017,-18.9151869219013,-9.7974426063582,-20.7082289790402,-16.8010105083591,12.3016173159895,-22.1085086860886,-22.6907473816923,45.4658099673896,-64.6389340254636,28.6632165695926,-172.904766263437,-116.182991464757,135.516989642262,-427.487702533239,-45.6237020175508,-755.703353045221,-605.453013678089,241.314280629482,-825.904529673198,68.0803477867821,175.230589164102,-159.312839566483,-376.20313138936,-520.154387247589,53.5577139191996,-453.436799992924,206.89432510238,-115.366140010827,-364.867599820465,-83.5585911102266,-248.619346604372,-247.697782640841,0.139666334765437,235.671315409031,-66.4049463819218,-68.7757868351029,-42.7201428819118,-71.0814556167414,-68.1808504353442,-47.0302462295921,-59.8357532719696,-58.3504810426027,-60.9878889104493,-48.1088015883722,-62.6846648480684,-69.7076267005044,-72.8845042356746,-53.5116803613496,-48.3625360131863,-67.9522881074478,-75.9987004909364,-49.4435947270488,-43.2587870655937
-62.6688877297089,-44.608104225564,-48.7213977229964,-55.3192955600474,-40.480615707261,-55.3701152253903,-62.7526988992557,-48.3232718431524,-56.9496950714701,-41.1656183778205,-40.837239336558,-42.8867367467695,-35.5208752250307,-46.200866380768,-39.8211602379026,-30.6067262071649,-47.2337580101202,-66.654984036684,-12.1905730483001,-100.648551138796,-55.1295593940179,-128.784060320295,-185.887493912581,-40.02724913132,-404.952562443706,-232.17347758731,-554.988982945969,-719.050843612762,-51.6531448229073,-814.85565115086,-73.6903880560151,-61.5731784321196,-106.990483324835,-285.112825958884,-570.46900242055,183.988987795569,-802.498264623333,325.656495718385,-267.716321094237,-272.418072955655,-344.202813081565,-323.963599663324,-287.918618552856,-219.162035083457,352.961446862195,-48.0248242691411,-48.934013560477,-38.6900854519629,-53.241596404467,-48.3859151477752,-45.0224422080239,-43.010490108491,-57.7035087529144,-60.6240268343867,-37.6053323383529,-48.9129821080484,-57.7134611050814,-68.3900817707435,-52.1822421776382,-44.608940574113,-61.3519638532064,-71.5612258807062,-51.7905757101344,-37.5124104762995
-57.1484815096426,-41.9024414881235,-39.9341950374262,-45.0340225302584,-35.9999265158935,-50.8774394738803,-48.2975964297533,-39.2581450625362,-46.4545361378356,-30.3630456412209,-39.7340757113154,-35.9819448022249,-31.0305353806581,-44.2320342107531,-24.4658227899083,-29.9773725910875,-19.1048393281391,-40.1060537771395,-4.66517277577192,-41.3145621304941,-45.7431453083897,27.3228435880109,-137.922333314461,-82.9888397080212,-178.843736775214,-308.049658732105,-195.160232155954,-640.571273306208,-199.150251312076,-579.673303092454,-148.906869847577,-208.691532267713,126.290704800099,-82.3067037993679,-467.197298686976,300.914266311718,-885.335785315317,616.984633466689,-392.197139630296,-148.737429341743,-415.981031175739,-121.086641847943,-160.825640005789,-314.369436301955,619.326698159955,-21.0456747722231,-8.30470268536132,-19.9407873005956,-15.8897886459001,-8.75402194513591,-32.8788705977521,-9.53531976974351,-41.8052920886606,-45.9574858627013,-13.4915390083842,-16.9879067622147,-32.5158001451065,-48.4123743159027,-35.7798711842019,-28.7256388640836,-39.3744115537996,-43.0857513159492,-41.6832495317214,-19.3486702295479
-3.28919910425701,4.86582659087273,7.66411297646078,13.1303985772052,24.7859557890956,-1.76290862929066,22.0428944557495,26.751413519599,6.42282418163862,34.0430665714831,25.7998860620795,16.1446378907516,28.3346987725247,24.9265478147832,39.2715297890283,44.4104643870917,54.0147245900488,67.2983048055182,100.711901427731,70.21267080577,72.8520829368177,175.973106175156,8.51330559954611,72.4968823129346,80.1277022699803,-195.431157667412,129.111452195058,-381.258905199927,-206.807947007145,-280.886081729135,-60.5662425496826,-266.052409608839,565.45370227543,139.504349586357,-421.793583522178,386.119271214157,-572.923175369479,1077.94701060407,-525.677589064906,-107.561206865144,-291.072056160249,449.889827370865,12.9875723288523,-179.678913576596,1062.15060511135,21.0121119815247,68.5262058096422,23.0095122993082,49.668824172795,64.2479885860973,6.41732330957633,54.9806184594073,-0.233911101395535,-0.275547088516704,41.2068520462302,47.7629805081807,10.8787543723321,11.9076483226055,7.43842629949829,16.3852537099258,16.6842707112977,25.9169685013404,-2.68854858877587,40.4825730087461
66.1205852193471,69.8737731006268,67.3114609276487,88.3766507983499,108.650279807444,60.6546488037585,104.651297568583,109.846004049712,67.5840182353407,112.862433459043,114.130054254062,80.0011009311525,97.4202964189715,116.441006252946,102.776878354747,130.523934241154,108.913023391046,159.699676909731,205.527010489841,124.815746615181,159.982964567533,202.279454201715,78.9309413213201,206.092134728446,152.58987882197,-106.203427947112,274.370937060317,-191.364049147856,-305.053506049594,-75.3559147035067,29.4552514821785,-330.327549064784,1005.55626464102,230.373829778766,-473.82150812013,348.453697226867,-56.1829918297291,1480.38319945131,-696.498864788167,-190.515715736779,-176.715198114472,1130.4984750258,72.5110003390376,75.5994869253254,1476.06140814702,65.3491056731479,147.719296975043,72.0080237876855,121.655539662596,145.19456966471,57.8462891797755,130.341073790908,47.198604052993,57.0436379139547,111.091315203877,119.641762123005,58.7076076604673,88.6936738233636,61.0424227601346,77.6842182450918,89.0255604635554,103.319749361509,52.5798611625371,119.422428281661
93.8841166784028,94.9659282417721,89.4772701643712,119.120281460408,138.967952382475,88.141485021909,135.349194393822,142.772838300675,91.3143948247462,142.366302015587,146.129207491889,104.706548960277,115.857817387855,148.939588143587,120.648869425727,154.506896423726,116.323137094145,163.380277644049,213.221136813831,105.720492173048,136.354029616653,161.518151578807,27.6332129322784,148.618665882287,112.409679505234,-173.866992523632,350.504383695499,-123.905263471765,-521.262037396042,111.148947667272,40.0620147248633,-439.058643723834,1187.54913704244,236.696141881796,-348.696132422884,129.248699344393,327.008490808252,1594.10510265579,-800.136066598192,-207.189750135506,-204.242318507931,1528.2794214337,42.8627976298551,294.426546509648,1601.71303191695,87.1938994430935,178.609808949671,95.4211125595738,153.051185671267,178.481641255343,83.7322853343388,166.428011102747,68.0965181234093,85.3712852192373,145.525293970772,145.803012907782,78.6914550451378,122.013647847941,84.3001628404324,108.219689851171,126.965072718591,128.793698459571,82.2151401628386,155.048217367441
87.6024207249447,81.865068979373,81.4983297216808,108.201489019896,122.874470844331,88.8786765781439,125.552640646446,138.028287570108,92.4705783405832,135.452480757366,135.115719791185,99.5555391223644,107.699571283798,137.518105780001,124.047856570065,147.385571483835,126.73890760896,142.726593145136,182.575775547598,110.46474940976,113.552381216077,186.003041985753,12.7082068222116,59.5087902434432,172.931795801325,-199.360801181423,514.217716021267,40.0833066213712,-575.583128784341,371.896348666115,153.803112690896,-479.773466055056,1083.80548812064,277.435709547882,103.556122691531,-83.5284860162534,460.346022268457,1430.36851530659,-730.721829027631,51.8598178018922,-208.309316505619,1561.90068092355,129.842117319572,507.116246558268,1432.97311328926,89.2270255927733,170.547498267171,96.908186549898,140.956448599939,166.145979441266,82.2878111234718,158.480629410038,66.7119581249115,82.9824702717758,138.512078016039,130.48561967301,72.8583692358803,110.074489325701,79.9348531672709,101.403654153505,122.195491281778,105.139040231742,83.3090887244349,145.347893420752
109.796729294199,96.4224165985407,100.428687402246,123.049965795239,144.280679595679,119.471966731627,147.006978099125,172.708030407054,125.102087322328,163.00013498456,164.068714624654,124.164349275675,143.904635928708,168.111134903836,168.695810244822,192.152876193073,189.087675173193,197.051005973547,229.265004708402,201.142934176789,211.794343131316,281.142548711691,134.587484821603,161.432536749427,344.195941015264,18.5079528732261,705.431235048824,377.216345636845,-258.100848399933,661.255223724211,526.751417945843,-253.434423402355,944.994287816388,303.520680924406,731.242605519971,47.0153888230293,594.508089616052,1191.38469947149,-437.002788134959,569.107217054235,94.3572238858517,1483.83348258652,500.96087012287,842.228738697541,1188.62187216512,109.623317938634,183.787208498206,117.369471387405,144.716915631514,175.817968556153,97.8236297138534,163.618078227859,83.2829383844661,94.0352549490582,145.334674745883,135.705491393603,86.6665291520953,118.976236395424,98.1319777410099,109.177783485086,130.18477297057,102.039500853192,101.049427800506,154.886302260675
163.137676502446,148.501623183647,147.940808880553,175.45987521295,209.269317904305,179.462311162759,204.07735873486,247.012960157352,179.172750343427,222.393801308372,234.328743469691,178.353790194445,212.431911617436,242.012794283954,230.88965280146,275.071482048689,259.652781419464,297.947677472671,337.156535433259,305.506821855104,372.363666818569,326.972308506181,293.229409066854,399.552378320194,465.784917565152,369.264944793856,751.802905706264,693.933200235979,297.569408207985,899.538416570746,1007.16300062584,259.62961217123,988.096034642193,187.883623957178,1333.48245576786,517.758049224387,961.1798309903,1036.60086792692,86.0390395692564,1142.8169297518,707.177239909038,1486.08434538394,1039.66322400105,1247.12398547468,1025.38322456897,150.716053540262,228.063722136195,162.405647088714,186.508768477626,221.157179323504,138.913724629562,198.929376879085,121.399285482465,130.252356863614,182.497098387292,172.913711769859,126.069053939805,164.952606819923,143.717643101974,146.03257624294,169.950411709893,139.944756972723,137.15620980065,196.538306404735
175.39881109846,163.324276344627,157.756998459261,194.314102586486,226.589731091386,195.864340040791,217.370568952545,267.452308072233,184.512626849726,232.909722521609,255.495546589159,187.986611246033,227.221189728593,266.776444952714,234.239960183159,299.005746529256,251.817724707631,328.546797570335,384.311578522087,304.41141794961,440.557358083222,247.167240801873,339.379940678583,548.080940971487,426.659948079059,609.296224450746,608.943392183317,812.503780577398,738.464595099297,1009.4047554383,1265.71525592512,757.12692213126,1147.21979601813,-42.3552545131783,1720.38460466094,890.67678934245,1391.36065182262,976.018307462793,633.02068278725,1489.4899973996,1302.89420268503,1503.4549263771,1378.13690082425,1512.23949523042,937.570476982692,159.546960482589,239.730972359392,178.020162258668,206.687941600467,229.141636593598,150.338225106446,203.2845954001,130.255939678273,141.885178694705,192.455161260706,180.000402395792,133.02020979831,177.73898275297,158.705503343096,153.53191604881,181.662730862479,152.563677871835,135.484851591511,204.429115797582
101.379040879511,86.4118833113252,85.1042905204542,124.634612033611,138.198693828011,121.544573402208,132.551115762819,173.172602335684,106.046496059696,147.629349665284,168.857253127615,107.696870006367,143.192647291735,181.236334623323,147.286332434561,210.611773235049,141.835721863113,230.115248412804,293.47084487061,167.401560748251,339.30019826893,87.5470488333689,222.271404219309,485.928968672912,229.480960599415,616.952392139954,378.131031653231,701.443260447099,807.05323287585,900.558200801823,1110.66651415185,903.149231673688,1203.83891615244,-226.0974487003,1668.29220036935,847.842206264401,1533.73876491782,919.025355626912,822.93746485345,1361.61747246937,1565.17997481118,1362.55017795012,1229.71359930546,1513.30872017246,852.158511914739,100.236773002621,164.684735444556,115.555790751652,142.116146049824,145.315714803458,89.1047969688022,124.678337597159,71.0086660816999,81.2534873280285,120.076539082349,105.978710228274,65.1145777275162,100.213616567227,100.685879445132,82.4495466801327,110.15911746953,78.2505819485749,61.9934709393839,127.904241986663
-41.60840739142,-68.24781204625,-56.5842909359585,-25.2447738703224,-36.5093706429869,-24.3212867132872,-35.0018023933827,-14.9943316432265,-36.2033555235953,-17.1784671141735,-9.90227937266569,-37.8249918491435,-19.9265032804466,-0.967312967478023,-5.10633689258217,29.9946871730201,-23.0716674314823,33.4656813305799,76.895132804549,-35.0142985346705,101.588897143143,-63.8888509183528,-6.83417746672762,233.674879503076,-42.0423717878976,398.587312542258,170.16471208065,399.274850716939,521.606141381843,570.326926908027,624.445779655002,667.68691193072,1009.58925218923,-272.722741141587,1121.98273771178,510.649106675411,1241.18953684503,708.788279558504,532.301299093328,769.6052929116,1380.11244424127,927.086112236602,606.132318611994,1237.90272703392,646.572414911788,-19.3287797950222,4.04558257567397,-23.5740656581352,-12.4923828538869,-16.4143054780495,-34.9979136781566,-31.0111654038332,-48.6798735076277,-54.6586545648912,-34.4978679647208,-48.1305017302339,-65.5082848232578,-55.6351881321217,-23.9183401455766,-58.1341908547453,-41.2446877477732,-78.66966961695,-72.3803433287437,-23.920741238499
-211.979499728514,-255.693454731184,-223.226304883193,-210.764991734062,-247.263205880177,-195.281806671633,-233.182340535241,-240.316965280189,-204.851961440706,-218.082508036795,-229.637461818914,-199.234868192149,-218.439594218588,-226.550868344139,-183.493694600956,-194.702476258373,-187.263166837092,-200.789064939496,-207.701102778532,-225.815144889956,-192.700720861378,-177.047946553132,-255.789067405584,-137.316924837032,-282.370519023868,33.1450210514253,31.7185879389079,7.54017297760556,74.5667450913278,158.821439569983,51.3201740337809,253.206934808845,546.924069531703,-222.257126409189,325.853103620543,118.603905199738,603.387574846339,210.290595405364,68.8456973530109,2.32552873491941,771.684103779421,176.606989590327,-289.824575076435,697.22596565374,184.103375748607,-170.064025132857,-199.627240359033,-199.037974953874,-209.594336535711,-211.194750829363,-185.471807247566,-221.628123898745,-193.478351415869,-228.37546916486,-224.790940390074,-242.353341471114,-220.346936098431,-243.009266569989,-177.940986696259,-223.991756647687,-226.92755240108,-264.952632791483,-231.531400070418,-207.064506434639
-363.529853062907,-427.062978474874,-368.868040365684,-377.243137183107,-437.532101368174,-349.094701149561,-404.801951698778,-440.82864153682,-361.194008321467,-400.851077351533,-430.597149942109,-341.020247280886,-400.661081164152,-430.406631912129,-349.017162648644,-409.768166091162,-325.838767990139,-417.583464383722,-487.28711310447,-384.033256747499,-467.341325446072,-279.879102129658,-466.388705229391,-523.750466044971,-446.396761713668,-344.380116173462,-55.8773899767568,-322.085318331326,-362.450156881923,-167.071948084192,-404.147455126068,-198.499501268782,-88.8232109450632,-169.468122910142,-382.055804093078,-256.462009755383,-184.138008920123,-503.934668137046,-230.849247493382,-651.457458986914,-110.123845735627,-696.540497434439,-1225.49346542327,-24.5120683988106,-496.799891502775,-312.330340844881,-386.059123247975,-359.426442979555,-384.308351808729,-388.562308594504,-322.502056645477,-391.506085410088,-323.098229576512,-382.003844687184,-393.183653284124,-418.596043002646,-356.562789408419,-412.764644586376,-312.657656838427,-365.372263587059,-387.115476698983,-421.790360671059,-366.380797128521,-369.384540277521
-458.083588815972,-539.55327664125,-461.791320540741,-482.7627418279,-558.786779590315,-453.64820862409,-512.514727263156,-565.959257391631,-468.813446473357,-518.427554686195,-562.817510945575,-440.458713690804,-521.115263230079,-561.290589086387,-464.19248753871,-562.243567968604,-430.331903255513,-570.502233377652,-686.428082458914,-506.981828950732,-667.092864735844,-378.179849460102,-625.334570590581,-803.969204571008,-546.994243952379,-611.117146192547,-139.304743806108,-496.197368033454,-692.801889642075,-345.638734615602,-681.649743423558,-654.013024860973,-749.090615564815,-198.3314641982,-831.061259453379,-608.18311706158,-911.980195456185,-1180.12321027648,-345.556796104091,-1087.15586489645,-983.128052891681,-1392.71692357571,-1960.23430632182,-737.105760541076,-1156.25232347598,-413.900164182767,-508.410560746124,-466.583018057663,-494.150766769255,-504.144825067468,-415.32478648224,-497.424219999593,-408.872936374125,-474.253612677429,-501.008817450586,-530.161492525006,-441.816084543072,-521.319344368992,-394.000522676666,-449.518631315175,-481.082336300955,-517.35696717335,-444.356693259481,-470.950950402915
-494.902046416185,-584.99784451566,-500.462309252556,-525.399033916496,-604.028144202406,-502.064477349158,-558.221554157486,-609.930914602148,-517.032034294099,-567.801432202561,-618.815215791808,-487.873090000163,-571.981176237206,-616.048398532934,-517.226897845451,-632.317744233222,-494.207861823161,-642.779404960849,-774.087770527273,-581.075301528012,-774.888312051828,-435.418951984791,-729.434290715611,-930.103452586798,-597.894526322891,-761.692951570344,-229.085794873628,-560.721551295101,-883.216907157719,-427.573822803461,-844.981728350991,-1052.54398814711,-1323.77627259045,-302.719036979809,-1058.25999470715,-896.120435835169,-1462.09988631089,-1670.79842369025,-438.362527708493,-1324.28640727411,-1583.46262020882,-1827.57044183084,-2296.02539139248,-1288.13925813217,-1633.5725313903,-469.676661984266,-561.737873393214,-514.518800401177,-539.811993461009,-550.53698811634,-459.816774047726,-539.989237138417,-450.580404932986,-510.809619539514,-543.74927257117,-572.870016353516,-475.728776563344,-557.318395580524,-427.22396003543,-481.722675412379,-515.73579500262,-556.117419226131,-474.466428179257,-510.417955544026
-502.804368825243,-591.632041477139,-507.927679625056,-534.442537588904,-605.69154683642,-514.881272519464,-567.562935241556,-607.503678650935,-529.108598714766,-583.757127218434,-632.706707030723,-497.051412574221,-583.012882537065,-631.606247745926,-531.871498718448,-651.230921462029,-522.96312460938,-660.624532726358,-789.109658387537,-610.071096585013,-814.720013479929,-441.234162956173,-785.295494119139,-959.556531068873,-612.926117958393,-877.69451708585,-295.462621348666,-629.78360321424,-966.162213236333,-477.653752054006,-983.592427246232,-1317.45753613209,-1745.79982012169,-365.880699767552,-1152.6091787359,-1086.05912428427,-1809.78212098331,-1991.84584756867,-570.844397702354,-1427.51874149414,-1799.5249046494,-2147.20886947532,-2192.65465360467,-1654.28618695473,-1947.20962514747,-487.270084017243,-568.205784931392,-522.228590544718,-543.605230183275,-554.753201015745,-471.49683785991,-548.613214954937,-463.677077062647,-519.954863091348,-543.794299470575,-574.762095494261,-479.307227710989,-551.164648205366,-437.559981806212,-488.07237538762,-521.966441475604,-559.608278066839,-481.661508594847,-517.769474381076
-485.406229519265,-568.908279235976,-490.510767575778,-519.02968617239,-575.358192116952,-500.281277592404,-545.662699552335,-573.472801783974,-518.279053304557,-572.846035747449,-616.424469141673,-483.008535811681,-569.716467360192,-617.882627371029,-525.364737587357,-645.091609191487,-529.842164971899,-650.785776677464,-768.385745319758,-616.449992300754,-806.650472098231,-440.984478333531,-805.964097456861,-936.721934535601,-620.157833800945,-962.065584370793,-349.697766726962,-720.844682421458,-962.080582595214,-511.336010900714,-1077.28029913492,-1391.94346192023,-1930.48417592134,-326.742298027459,-1115.1978013874,-1130.50217412593,-1889.09480789135,-2095.92305834777,-664.63773543778,-1456.62627355829,-1646.30065019834,-2365.01687216951,-1770.47449271666,-1810.18146449283,-2062.9108464981,-460.588037039872,-522.857578086882,-489.460620045319,-500.599230539444,-515.119437544408,-445.180539607722,-517.80362779774,-439.427920796242,-494.125228971823,-505.7913599999,-534.837242029827,-449.816599570442,-511.843730639723,-419.423232360663,-461.074445949274,-493.889304208294,-519.890743101529,-456.506857295221,-490.361548478895
-425.893615906575,-498.7909326288,-435.305128432405,-461.476915594853,-493.919814118997,-449.185999392926,-479.02142644603,-493.711240910972,-473.336704078222,-509.437980332062,-543.36051919718,-443.817155840612,-517.477860523086,-549.078444239565,-494.264904929536,-599.820482569969,-528.388790082135,-612.190844043032,-700.331205510408,-622.081419829397,-746.73597179714,-486.297224926299,-799.386364628437,-833.65883897211,-651.238431539086,-926.519752996169,-465.088227286356,-752.27198295405,-827.172487614437,-547.417053213019,-988.020009807968,-1204.71949567625,-1794.92394273061,-294.699252798556,-921.835549159762,-966.152056441442,-1621.07212396534,-1881.67713178651,-678.475690738819,-1351.28230516373,-1237.00242029637,-2306.75932028997,-1216.65497083599,-1688.91661081595,-1865.59437182315,-381.440666139261,-399.97219116516,-393.257043442112,-388.794582808917,-399.234355765817,-361.715181529347,-410.876293871236,-360.838200179209,-403.605667975684,-407.089744828188,-422.844228049357,-364.723013522442,-406.278449678648,-347.633955391839,-371.093854952108,-398.71785155379,-405.705580838973,-370.997510715423,-391.579158012289
-329.685062414365,-383.457948726757,-343.550483520635,-356.795712701583,-365.157809960285,-364.816893231082,-371.518577298742,-370.067485328946,-389.953924298846,-393.511092199716,-409.942759673723,-374.642427629594,-419.729141917608,-425.728386248007,-436.563656109241,-502.504168530396,-519.036823614559,-533.980305306622,-571.515556177522,-625.891215709018,-634.649629026304,-564.92095148243,-764.177175326329,-637.807336774182,-708.146145101496,-745.192843958142,-642.31423425704,-706.257522511227,-549.45239158014,-613.47031231163,-659.038927562608,-761.206949500729,-1352.20119187842,-337.532123579857,-659.653202614025,-646.369257032499,-1093.92843046421,-1395.36077509591,-653.470901289604,-958.919941027029,-746.42160079953,-1925.22430387818,-682.364401979329,-1364.23219333525,-1384.27354603057,-256.302318936321,-216.765324275082,-238.862428821069,-220.145965826884,-216.721054826409,-230.701882227028,-232.979532149491,-242.080023119215,-256.416189969119,-247.52359698871,-247.812316503135,-230.576046772967,-236.246365497083,-229.050322353777,-231.467765232313,-241.605671495668,-229.980844965138,-235.053031660286,-231.402195812966
-206.642193597392,-245.8079496629,-226.876423841514,-219.103695721136,-216.789776069575,-256.704681120344,-236.627819259259,-221.220865639882,-274.491442531248,-251.216760473332,-249.932203407216,-274.610259999589,-289.389122441338,-277.708547279831,-346.345760688631,-363.838330882945,-475.750305223652,-411.216687211089,-394.432669721836,-590.543124035883,-479.789491644072,-603.059890289457,-682.562433744258,-391.044166324509,-740.592595801133,-488.364337535886,-746.442295155303,-640.185848036502,-209.968644836064,-651.151884817401,-260.98255525114,-211.098580157215,-767.62373690998,-317.122487266997,-454.770397452621,-386.00850488316,-542.294860514069,-804.831918182153,-582.853090127862,-346.427358132336,-309.533051329976,-1365.67165482004,-243.544512269035,-1062.62670133266,-795.276559422325,-102.886499490097,-28.70850840969,-67.816964572236,-38.0085341639194,-25.2771836456316,-81.7544835863631,-39.7783168574724,-108.917722678848,-91.9195888490414,-66.5499295812875,-61.3972218586613,-85.8278313804742,-60.7616980364811,-97.3955381906468,-90.4094592401238,-70.6426907397405,-51.9456219569628,-92.9200579276039,-70.1198904507017
-62.5690064993177,-103.142407739741,-97.965053455113,-70.7989724469494,-64.3682072812396,-135.925972734596,-83.7706976782931,-65.7640277892867,-140.81496467676,-103.926181047527,-89.1794801671747,-152.994185291612,-145.000457219163,-122.195272931843,-221.912277734563,-201.402112873771,-381.585667842686,-257.152924986124,-192.346531315748,-486.78117623218,-290.018722980888,-555.048079221915,-535.89556987811,-126.066086393202,-678.818507471698,-215.223988122098,-655.389758019973,-531.177209749402,116.793117845108,-528.178701185172,-5.34010396964093,306.064556117822,-253.929978149655,-105.859778375251,-268.882217399553,-310.738913950442,-123.144370271006,-220.974475839728,-375.58845648982,153.322460520578,17.5880873083607,-757.256274900442,64.7850036655765,-895.656636486941,-219.218108973527,46.8449184921629,127.640156606547,82.1973281874992,117.666096837435,130.09404049412,59.6283357597338,118.937000524566,22.4201063627782,55.8399164384068,90.2478224189938,96.9103096681527,39.5345165300063,77.7588622348213,21.0491097615845,27.6954195838699,74.7734701407303,93.4405244184516,24.0471863753867,59.2062978721938
108.846006720111,66.3337293171218,55.8057375904687,97.2145242715885,118.584880891992,9.76424105221894,99.6997978306631,110.789118921112,19.4528447077593,70.9471398967817,102.913927610327,-1.09616943165681,28.8470634071796,71.4701406889019,-55.6890372378166,4.47175637777891,-223.288193952729,-63.1851158937895,50.8821205612122,-295.478237514346,-34.7819038716435,-412.042973379499,-283.560999384316,201.185442714988,-449.836262687981,121.662899776791,-358.372074753661,-241.056107064348,502.849212854935,-157.38190199194,161.206292648184,844.943646682817,178.125450195594,242.199191752799,73.0001108094435,-179.057332655699,257.293921744257,396.96318308672,73.7061669010271,418.178243141664,305.205087932001,-67.1933982278622,320.524114669599,-680.746734499335,385.287480562935,191.318985418008,281.914890303602,229.005111664835,265.77263402697,280.206072374895,200.815420759335,266.772600614255,164.601647360839,201.350248687457,236.769855129535,255.106822697341,171.658828471792,222.635637253059,146.538037392637,160.995047004352,224.963478089785,249.488498966978,147.927207980797,202.258376733625
346.381535410505,320.190445736351,284.09652962816,341.321820383897,385.805143397274,233.071687852939,357.545471034621,366.40092060576,255.520037200587,332.902061667765,389.490653605654,226.908322413231,287.101670407322,361.615552560417,190.201935721375,308.032492296495,34.6007389706851,226.616524115148,394.83908505034,11.4902255578585,342.674823943345,-163.48433715223,122.069847021618,658.755182948236,-41.250509199293,613.071911783662,28.4158725978333,279.43035145073,1085.7369763781,368.837800930672,452.393034067676,1565.97602905646,747.222882437283,553.286944152872,578.507066996936,376.43742624187,839.837817109227,1144.22730023036,753.93909930359,673.089322111615,738.592556607129,828.054850255322,719.369994205921,-136.719641589384,1114.67908798002,377.674360349967,504.551088743286,430.44171099514,478.264545579229,505.472572740273,386.996212433633,484.84686371976,358.63838393271,405.286479386273,445.597627489358,486.987814412086,370.688732453523,454.873883747446,335.884266135528,372.451551832375,449.957756413703,489.940103627289,349.24589528089,431.363100103207
622.536204638294,622.396784628992,559.346219503794,636.746277900026,695.300494704409,511.257209151343,658.445246492431,673.938140593112,540.890693131822,642.592278513474,721.249689510456,501.584176656992,593.675016273704,700.158142782504,482.008640648575,653.898888679624,336.093767266924,570.7070042505,782.750639217664,347.056315658553,754.375025150605,105.201601655286,553.88222794193,1133.56787343199,333.25323976901,1139.45619660032,213.846415854011,766.900858451997,1725.68006251177,679.026292394872,800.749290784665,2354.02122862198,1531.9779124217,575.49123340496,910.702026993669,1212.37678830049,1634.98445208417,1935.45959678471,1347.12455943764,943.59408607054,1286.05980445251,1862.63771848366,1232.8230191562,698.005325011851,1891.30484160134,569.23238351866,758.439086611466,648.724432714538,723.755813397173,772.806212316223,592.988244728524,747.420140279829,571.804383165332,639.276850128691,696.286880606307,758.751771064259,602.215550245462,729.511692775807,560.755909876311,620.270346952183,708.22443594692,769.51500848695,596.410549327067,702.777449715133
798.720440366237,814.123005948566,738.336810628148,831.36747995495,889.79110498064,696.171205941293,854.381888198433,875.198406439074,726.92403071991,838.327051374344,924.689158611473,678.316029088698,785.295005310792,914.818849725962,662.932609166144,853.618334623901,502.558587290992,774.058388163065,1005.30984922229,497.153439345909,953.512548006878,204.410943818954,725.533284661371,1345.81198909138,353.700343297435,1362.0356505028,-77.2216382482672,829.632646188747,2002.88805403669,413.397336549643,868.397305072766,2730.97248210394,2271.33653245573,162.746187695496,702.274358467108,1653.80994869876,2291.18459790967,2525.44064624568,1389.40645715739,904.820251291337,1536.99401511762,2716.67219152154,1503.48565081629,1413.20849608942,2478.53116092239,634.998328394816,890.769385219323,750.289373650658,853.139803584032,924.616146276701,701.271163366283,899.147182483079,686.005650323482,765.407593361283,845.802898051357,914.399554390218,733.41123674081,883.853065005571,693.212490185205,765.643847416797,854.214366648171,930.88016312222,746.688112824177,867.065815978979
806.844125577557,827.534079609786,750.977060885086,849.509759587132,904.894048862825,702.186519415904,867.61182260879,890.913038195136,734.737632142179,847.664481538916,934.581452945898,683.755551269593,786.46346892214,930.09317660368,647.590660733393,831.285558469395,455.656181752983,731.617368494882,968.257136372742,392.481107167623,849.852217586345,78.2914858610598,560.264823683359,1194.46176571496,12.6020103754867,1130.27941032372,-739.100353200134,410.703248878437,1728.60716096897,-277.201261848598,565.167460995372,2343.38560047583,2655.07274673198,-470.292778937262,41.7935258874192,1328.54761968275,2434.17291054368,2800.71365261869,816.485636884106,497.654949958002,1230.15825506209,3142.57202329642,1354.29538961591,1713.26399127392,2760.57354590025,584.328352456434,876.854721525687,726.399637296797,844.340128782594,922.432333922847,691.342785631337,897.622812785928,679.782990446318,753.099986525748,850.019839124626,912.636405955453,729.583696075342,881.037557643271,693.883926632197,773.840474054823,857.580090828903,933.414826379998,752.383421796177,881.809615199903
728.154865064585,757.592624465147,676.556902453017,776.85032771676,833.297232820975,606.285187036778,777.856299370668,809.632725341939,646.530538466318,759.332971181401,856.369466001386,594.300265277825,694.479454110729,840.925399878515,528.759568469915,703.095559841674,314.449077145432,553.506380085935,789.578062344465,197.593053235879,602.176012733873,-111.913500696333,272.062505550981,825.803889205759,-371.389608497933,618.189171662373,-1324.86251933983,-210.13294703478,1077.50616029725,-926.324410566512,107.109960620932,1301.32766928584,2541.87324046487,-943.150761740298,-624.539558594688,585.048591099546,1956.37358816992,2781.1063488965,49.4863378343067,84.7074826193707,647.629997250242,3107.49499692069,1016.05785154876,1690.28456030253,2760.26540249444,579.576757305715,852.446300067439,706.490698089388,829.573094755415,889.097391419488,674.65539453952,863.924099001893,657.304756684514,719.017675469391,816.855534723241,875.470141342708,693.702464405875,840.591154543144,652.971833261016,738.160064522742,822.657783559563,889.684759690369,708.117923914866,843.044599541823
629.888062252278,668.681042467824,578.977616045363,680.537467659618,734.199799880591,495.569063997053,656.797247503108,700.626957330881,539.062125985054,645.064762943256,753.106715366185,480.938632872645,586.00406372557,719.807416248426,402.630080444515,554.306548091074,195.031779829161,361.355168167908,568.062870066309,49.5513187293946,329.486649430384,-219.16806035255,16.4158844102125,343.268375821182,-585.677259696471,6.24753833369062,-1485.99687984346,-807.640188336116,196.77833041973,-1348.94918661176,-402.242349740718,-18.5913546163501,1915.39716209232,-1089.85899845059,-1036.87086406587,-108.042229540947,1038.79293790641,2407.73487703579,-534.335003807947,-148.297155851013,156.30890892779,2627.69226764573,701.024030057631,1513.5750445944,2428.35310120657,645.814333212652,842.281531660021,709.776979855182,828.458058562833,856.488967886328,678.136518383861,834.607240939838,646.842972770183,698.442057343493,781.367236740649,840.224987652302,667.086693016668,795.457312715973,609.399132001326,689.420946335949,776.859446662542,836.522943935277,656.776482072123,782.797111785392
494.831249520725,529.326165584587,442.559757686438,537.750541858665,577.355580564743,371.404868607571,492.305263413725,543.352818415298,398.962126606873,489.377659297326,585.872932852859,341.605092769171,438.99814894987,545.865041445819,263.171584385372,363.260534066152,90.2064342833762,164.655212699656,300.10075018322,-68.6111319782709,24.7444009425987,-245.354803352804,-218.361581711165,-229.873644125468,-656.654070504629,-618.053650192904,-1225.3182629394,-1260.33305263839,-859.7147224573,-1582.39945910438,-949.323638807676,-1264.09035682825,961.258750627982,-964.122635458041,-1240.00617608919,-639.204337081584,58.09598882495,1662.23130604428,-896.824548199888,-313.064707583115,-208.021923726099,1778.62233560213,422.768065423272,1197.223518739,1726.48334074572,627.349241994337,723.61685012263,618.436576770806,718.449060250278,720.167551936283,602.055109929725,710.023735309827,563.819545484121,600.699377097278,655.580288095952,706.404219167656,577.433195560507,659.967416786997,508.386096710959,573.405025637392,647.885469996687,694.61339394055,542.807347224617,642.046464122499
321.606500745705,337.072292162862,275.570400496751,351.022679259376,369.661750606101,231.225779572651,294.665938322528,349.979309627857,228.425026409238,297.911727492118,360.890882503804,189.342488779836,256.883180987506,327.53751348088,110.819933810213,147.628026412689,-13.0076576167659,-25.0332976575351,20.2870869707402,-170.017590016955,-263.771450082487,-220.563276839977,-402.34465489701,-770.62478080904,-611.502553577629,-1101.36778521348,-754.068287951643,-1404.58036965099,-1892.15370373422,-1530.17989346642,-1364.01196157767,-2192.72103284956,91.1489063177723,-681.936310012848,-1292.0994871011,-1014.64286403383,-635.798219726951,771.668988214461,-1115.39291296336,-425.720234357811,-475.866943380434,801.156378547286,213.403033835751,754.214653458191,833.531605967227,453.449786949126,466.392881628141,396.536632755783,471.441684268365,456.193055443058,413.989974727854,463.399871393929,385.028953173338,399.34729270792,419.477049492957,450.928535517925,400.101310754164,426.2349796098,336.303573874369,388.797368286039,430.298113313911,452.40538846657,359.941423321779,424.51823651202
149.20385515898,140.984036114919,123.235894077178,167.190340389503,163.80036736334,106.907125039398,116.891872751469,169.818897912425,78.2698324731634,120.519757163681,145.293207369992,66.249393896873,92.8518441275916,124.751416316221,-2.44971778775234,-20.4934986025968,-69.004133213016,-148.392959277552,-188.302834882289,-197.629746684192,-433.054221679997,-128.591458562415,-445.536872387901,-1107.49567681929,-413.82443647497,-1292.0332051387,-250.805598584858,-1185.67885376265,-2588.92673828052,-1114.41917080981,-1521.87529108784,-2662.31597547556,-391.92220637423,-360.996354151797,-1193.94061021885,-1210.55576116911,-950.396663204921,13.2705787812308,-1176.7972625674,-475.969473030155,-571.930433533463,-26.9211646051419,77.4854804355928,285.192380947278,22.5277231321015,220.8386118965,175.083182206907,140.471078799484,190.71440823511,159.708723400283,195.107065679733,185.457958199277,184.804275376039,170.932487706295,159.734858004758,168.993549662001,199.770449636433,178.98250616211,150.246521131742,189.888513080328,197.678140093209,189.254990000262,170.23880449872,193.542753390407
-9.18394422550284,-38.4846539815571,-6.78267584313649,0.540509905167883,-25.4693965632883,6.01954171291952,-25.7560912464166,3.61489992511139,-32.9968980630761,-27.4952512668371,-38.1364669998924,-23.2679742235646,-34.4756221553157,-40.5334077754173,-59.7485311143604,-125.394309201204,-65.1791598313213,-191.68500788637,-302.129719455548,-140.235467207659,-468.890881449304,20.7498279849554,-354.465491898434,-1185.52272063153,-100.873147822243,-1210.19608758563,206.980249313648,-795.194736311744,-2739.38577681545,-547.799348286279,-1517.54543774215,-2664.83844549108,-601.853489778343,-72.6764790170644,-999.559744208913,-1291.37820399864,-1059.27644322523,-565.592452589148,-1094.1965125458,-608.527875006381,-511.296253955769,-571.719093813789,-101.720877319119,-103.61380061345,-587.269926615802,24.0639204191087,-75.6350935882213,-68.7407361522696,-54.3034831179423,-105.986943400705,1.04479279801704,-61.9655179115459,9.56016022114496,-34.5091227038223,-67.1138508594732,-82.0069610474999,18.5857189227043,-43.3158580524087,-13.2501168314153,-2.3115045394944,-13.9422272744595,-50.8145715320731,-1.22411042263611,-28.6879696248004
-163.297056736458,-209.253144210931,-135.239968455804,-159.546566466745,-206.818668619294,-92.6586600450758,-155.006204178933,-165.708052137134,-129.790187224466,-164.183060203002,-206.842302145966,-103.748163583109,-143.364800695461,-186.284944831371,-98.8220872437921,-203.199428411072,-55.8599160479366,-201.801740047092,-358.652841155862,-65.209884414515,-433.369786462794,160.747114512406,-223.540268640805,-1066.19981438223,207.109382484134,-979.397857091138,570.74545159128,-447.360409199613,-2362.59498991658,-124.238627461021,-1407.0296183902,-2323.95928267814,-883.247493935007,170.86008096944,-774.834777995408,-1291.33064639453,-1160.95582851913,-1085.53911021261,-961.241480580345,-830.817086623209,-405.13853326225,-883.177159193146,-344.139374365396,-342.851939178213,-1066.54435789598,-132.439517970442,-288.412340437791,-233.603238136052,-268.176396006666,-342.128628956792,-176.676208542206,-283.243266446349,-154.458189101722,-222.525324702175,-268.38216634186,-309.946309072143,-151.251528727447,-253.967265371641,-161.556737358683,-191.934859545317,-213.348818075531,-272.940580904429,-165.637968576496,-241.961811625863
-308.685223385572,-369.974382309237,-263.986307086733,-309.593672788198,-376.672063751187,-195.824263087109,-283.893514338663,-326.25748642421,-229.053692184977,-293.774624627364,-364.950857599896,-184.330509694145,-248.425296535729,-323.559534044282,-154.928050642285,-280.277830114215,-84.1174829004016,-224.342787414077,-402.712717841145,-35.3413201907024,-382.552645452821,216.607797882737,-127.874414711757,-859.012285981628,390.740886638323,-695.228116681925,769.998332522033,-171.740969632821,-1735.57854115712,110.500307187362,-1123.3927951207,-1821.32381851839,-1383.63734485002,366.091508560436,-520.43904583108,-1159.82402997564,-1280.93534215981,-1657.27493025221,-756.697401021196,-897.664483192843,-374.420321070472,-1175.77141710977,-540.494603888146,-484.201735991169,-1582.38310808796,-290.328836540786,-494.380127891315,-395.706964518439,-471.27207254058,-565.677844140101,-350.380847602203,-496.015712883891,-322.300042368741,-402.886266301353,-465.527267301095,-525.795567572907,-316.518103618733,-459.106173587391,-303.946123130196,-368.831364566188,-403.27952822405,-484.140449829024,-317.794695693137,-436.342312409936
-439.507251262442,-519.487038566316,-382.449914657812,-446.810434574897,-534.690680126819,-296.571990224345,-413.740822632015,-471.310496023523,-330.483926761577,-415.8971766394,-515.825783763787,-266.728277932575,-357.077450264814,-458.761161561332,-236.265094524915,-370.543662733072,-138.096396618378,-280.942869929175,-468.280281928149,-61.0631241660615,-361.106528161611,167.882044934843,-102.029609127016,-681.840623028609,389.859189506364,-441.078040110601,772.764739803866,67.0191628297882,-1190.26886545673,271.383999903803,-731.617072611587,-1334.92581552998,-1940.60359933668,501.012025808347,-226.779056685474,-984.638064372695,-1376.49325616758,-2279.56795333373,-384.580696905552,-701.974986377775,-563.891579981262,-1647.93430748506,-692.441989708641,-714.687457745176,-2213.90491441936,-492.464139230895,-734.968114449132,-592.428009982632,-690.56010331926,-804.843287248243,-530.045027948365,-720.777087390274,-493.236083317747,-584.622786754717,-684.444805501051,-743.195835696118,-478.157496570471,-667.369363227614,-440.450712889632,-528.754216109349,-587.397141427924,-696.619354390335,-454.782316559842,-623.827367403693
-545.62350412648,-645.685788771003,-475.093609288047,-563.704165243672,-664.130055531053,-380.486594876599,-523.540542697622,-592.2444620275,-415.057666849954,-522.129481357354,-650.523169955663,-342.867571311731,-452.025249783388,-578.363706815572,-314.785752900523,-458.248901606603,-176.665616665949,-346.794530489688,-539.322961365109,-94.022328977913,-369.213225880829,95.9644920747154,-113.834405545261,-568.963136538666,299.495300746317,-258.004389781642,684.810778848065,258.179686949008,-774.736138964992,425.660016926936,-396.152215810986,-935.53318744982,-2288.5568827913,593.212099392656,80.2446944081698,-904.075058881391,-1449.21811677735,-2750.80694726733,71.7178582913689,-433.161944900734,-935.892511429583,-2182.1674841346,-864.489568810999,-1078.12804755495,-2752.12317125452,-725.298256529639,-999.21725771553,-807.60125715029,-920.718755845992,-1047.31337880385,-710.617842680619,-942.78595270964,-646.550612567516,-758.734397044127,-911.329465601455,-948.997151721827,-627.906806676925,-866.118673127042,-558.477090438098,-669.721769627827,-756.929321216123,-895.598823008384,-578.03316582331,-804.59168811552
-599.417640080514,-711.073004742013,-520.553001982282,-630.963226703299,-724.942523309905,-424.563676569441,-574.40575398042,-648.046484719214,-452.323480832907,-579.267873770058,-724.370811449855,-386.770144059318,-497.008714173745,-638.196173606614,-344.824433857377,-495.62849395536,-173.578299564185,-361.719278798851,-553.395086015533,-74.3994771732378,-338.288341184014,96.4370761324666,-68.7881290550287,-433.940361653756,305.888057972964,-70.2915527162343,655.678040658436,416.311262209941,-295.919090921278,588.916258694232,-115.982954062243,-545.10888351287,-2299.32397090721,675.573933543744,365.681835309329,-809.670937135612,-1464.28014317614,-2834.5346341521,431.682277401917,-234.277669539628,-1149.49527918377,-2454.43046037733,-978.543473853324,-1345.92866180358,-2896.28900148452,-891.895151454611,-1174.89347060473,-951.384640147824,-1077.12826317385,-1195.97777423374,-834.801926274698,-1080.59205913236,-738.407649509627,-871.859157271124,-1049.13951631631,-1070.5893511901,-725.084803031455,-989.25327120402,-628.283832874192,-758.656096300276,-861.074542647403,-1009.35193106495,-661.221863790125,-917.877473903212
-596.221872455837,-701.331673389466,-522.345417487749,-637.423374679677,-712.135460723815,-430.710128543851,-568.863020109768,-621.746224094764,-449.022428663733,-577.13861591893,-717.668718739091,-399.165237585528,-497.764399247887,-625.845948211548,-335.464294844195,-479.640759185606,-158.800359076876,-326.036751951742,-501.79551969542,-30.8457354587165,-245.893747207248,111.853675301076,34.8724944642559,-226.767828702509,389.670525042834,174.456075246022,650.01363300584,546.179508195841,260.182015295494,715.068098533902,172.234859515452,-127.479492333041,-2083.44934561035,719.21627425124,567.255052105903,-531.996703338413,-1363.32622580319,-2581.71318496964,657.772543850011,-44.5802993361782,-981.531722548392,-2379.2653653751,-922.015918313499,-1353.51986237029,-2664.0012564845,-899.179354254452,-1154.8164568125,-939.346100819977,-1067.38293734804,-1165.48868674802,-837.050868881665,-1062.78060892431,-740.424121392394,-872.117716960706,-1014.78037339398,-1047.75455395772,-729.338946882616,-982.915665519467,-633.133779885408,-762.640157860215,-856.558859171248,-985.346555861772,-676.911675598482,-908.752929371802
-566.751560778402,-647.72476871229,-513.439148472442,-610.287348026357,-661.528338455022,-434.379759520979,-554.295303576814,-559.653770344207,-449.04925190983,-555.570362528619,-672.230687323061,-418.924690445148,-497.679888067206,-588.799728487818,-349.570793843937,-467.313631389922,-191.741499287741,-316.239840576614,-453.102646914758,-59.4041638304071,-184.265870490514,1.85406486227943,61.8847717489808,-53.5019102347358,328.317491125673,352.744799089702,498.80907122461,560.704772689622,629.801588644814,694.80607047261,352.731500767733,185.940500673674,-1831.30607019563,650.079414409302,583.980742740699,-190.397038484689,-1168.62667514864,-2240.64305953707,802.028687703904,127.710889618446,-652.414878822094,-2147.05917229835,-756.669682081579,-1237.73474409787,-2315.11013007536,-754.432654808474,-957.037132387572,-780.621678796754,-893.683386395027,-978.285558206441,-720.983562189942,-906.457866492767,-668.485681577562,-766.746740812721,-847.848271593266,-900.80356397357,-655.39777938774,-863.446055413689,-593.098101275292,-698.119697059369,-763.850713105495,-852.600375036051,-637.073253117854,-801.824655048834
-537.857063612845,-590.349888189245,-517.455632177384,-582.06395519535,-605.632940530319,-464.750482107556,-558.037792050197,-516.78334469738,-473.232784557778,-552.512762316292,-635.417695117193,-468.329073998055,-518.214767015895,-575.094602006665,-411.478054308135,-492.96735828734,-280.048776024243,-374.118641173941,-462.155385536434,-179.728570282311,-236.816747136321,-219.521388478698,-56.1641153360849,-48.9390737289485,76.1273868315647,322.154858733271,190.695437222549,405.737622524493,639.733301829425,488.291428928355,277.235880371176,266.810809817549,-1619.3989427665,473.272639214685,360.49580936473,-47.7707754233743,-981.622010483586,-1952.13924238066,844.71183355479,106.284785672676,-520.728361677997,-1940.23222328439,-668.826795765936,-1233.67416523157,-2015.76372574493,-559.103500517557,-703.690396711249,-577.46337206569,-662.713870578913,-740.928933802825,-566.346988952503,-705.226894154447,-572.931532324143,-622.692110515107,-661.326330470206,-714.530428330115,-564.64852128111,-700.550531113655,-547.642450366021,-615.733049307745,-646.18776549891,-689.688775676383,-583.388643951352,-672.4455168884
-519.134371024126,-553.129025048906,-530.274189488176,-570.981192555349,-565.584012695575,-516.145527895575,-569.643409482265,-504.31967639537,-505.83667732064,-566.197107244,-619.012613122101,-528.731628770249,-551.288412128443,-586.462432602282,-481.733025195317,-537.556145041474,-367.934701602336,-455.586748057528,-521.530196025676,-302.23862051342,-365.009744567688,-389.812211074824,-217.324701196353,-194.881510670974,-158.361477681783,134.612868026767,-93.3183672301337,174.159630338419,425.128758288842,182.249323792614,17.3481406870644,162.635811173044,-1448.48883638858,302.640615266345,-47.3609627064298,-148.841251702042,-906.471760188873,-1746.02218554307,719.240175883805,-173.678097528028,-677.621082869833,-1846.98225817873,-741.700109710167,-1404.65399016491,-1807.93449185142,-418.838926522207,-521.979875353947,-439.921344064517,-501.506233986823,-566.116966826466,-460.026253371745,-557.051256540874,-506.007412173742,-517.161399100687,-532.836363438188,-576.15829469346,-506.718054649676,-574.345629881095,-523.262413804584,-556.025959688331,-557.9795105534,-569.277188793236,-552.612453957319,-581.470726950297
-485.533209543477,-511.450371420337,-515.722183056775,-552.393926971609,-523.456189097529,-536.294251170701,-551.190667253335,-473.945593219052,-507.941815244424,-552.307969270105,-586.107924402521,-552.336526335417,-558.164296824056,-571.937940650142,-502.953359278627,-551.051583016005,-391.972201575374,-483.392213039453,-564.331342895126,-334.460461146615,-448.665763979005,-417.591742537229,-289.761723014686,-327.626744596639,-229.372135088661,-30.0599246482251,-224.956870361434,-6.57089948383462,242.35765022355,-105.72229723146,-205.601679323151,49.0526724800414,-1298.6691030258,228.255932145327,-486.269042391101,-280.413650078324,-928.231911406053,-1603.88445113189,443.271681251525,-503.496891362561,-921.102673126583,-1824.34303309189,-815.941037927289,-1587.80573881257,-1659.69879967151,-333.000228233333,-427.329098919179,-366.781039209001,-419.137829452275,-464.944290131643,-397.256439561676,-461.028855259589,-458.38150535036,-449.844666492871,-442.57893683129,-480.107659289677,-460.810854469047,-491.054084957203,-497.166165236196,-504.545602739593,-489.180570697394,-485.388886292315,-523.171758192294,-513.094933385411
-374.790534278216,-390.804813962606,-420.168681942095,-451.844860139776,-406.088509925766,-457.705265017128,-447.481084891473,-351.951652008893,-425.681966179415,-448.78072189834,-465.693918186846,-484.244269308893,-474.965649483099,-460.235733897756,-433.222128601588,-474.590490465244,-322.904773390417,-408.648538932001,-498.709940028033,-257.799126210363,-398.795600580183,-357.051186662905,-240.420429573245,-309.41871097357,-186.842628245231,-64.5122828517665,-236.990289587726,-92.5329692678214,220.830997387571,-287.195627287972,-244.938638593675,68.1832612572028,-1091.90137455592,211.610403184439,-749.306622066051,-232.718566607892,-882.033707470516,-1408.04603863723,165.464559143358,-601.681647311495,-991.58235224715,-1666.37785745768,-636.551411485512,-1547.33593370347,-1438.92916533896,-202.319972684252,-295.803653956936,-245.421516593389,-287.335571016359,-319.843134895493,-283.8606667902,-309.13227723784,-353.775648245177,-328.770943133159,-294.596008178816,-322.733755574895,-351.270336531072,-352.873519359484,-404.394850495426,-390.268037461517,-359.533602899078,-341.213631784524,-415.414174963034,-375.940871189582
-166.729935620039,-162.092919906367,-232.955454932124,-237.613666959185,-177.591870239868,-276.003088212578,-244.134861566386,-126.182970000834,-243.096249266712,-245.689131670665,-238.135848000628,-314.94794546122,-285.095130219621,-239.316405237643,-275.329505594998,-294.028240818132,-178.941855634216,-240.268220190581,-299.48819048386,-113.913891011868,-225.422619214429,-285.551887608403,-114.410148609494,-144.550297329232,-114.704451810047,17.0912154852873,-210.166892055184,-79.797988208316,332.106248714407,-300.690236966635,-99.3608159729904,231.948937281226,-762.501203728482,159.094284094931,-677.008898288511,3.4263832980207,-633.506979104175,-1041.85746563078,64.4433843061328,-362.14781436838,-791.734488597168,-1226.51298829397,-138.905783299153,-1205.77177688438,-1042.3813582754,20.7762635284386,-29.6383799855247,-12.0018523449059,-24.8604995641183,-46.021366896768,-71.4614136384744,-38.8465069793927,-153.743495148485,-99.7061418140556,-38.6111168595849,-52.7334374399217,-147.320554167071,-93.700414099297,-216.858913516667,-175.49272664256,-121.357048000402,-83.4937051173443,-199.262612309401,-125.551038603354
76.085377945252,107.734984596873,-8.40809212630805,22.0595713327577,95.1666534796377,-56.6710800854119,-0.0953731610745443,133.705072563176,-15.0561108936008,-5.03854818118371,27.1188631701225,-101.030425840398,-50.9907961138785,20.6656305045475,-78.9008062925829,-63.653499275822,-6.40966476592164,-31.9264183244207,-39.2089858064258,47.3484714280263,-2.37685097313708,-210.241403693222,35.8107164864193,83.3643521918838,-30.4709790206209,163.011521965666,-181.2141129943,34.9455500662548,501.67343344497,-155.330546786769,153.084892767985,458.863504783132,-356.284816896833,61.5144274612237,-294.175423684053,302.574014263785,-233.803259855802,-549.024849172248,186.135224938478,121.682159883321,-407.2331596772,-618.576337251174,514.311473303353,-707.294179696685,-536.795507245043,267.180758941287,301.57262122378,263.951050736033,287.25508319826,283.398286498277,179.652862376306,274.283667940477,89.8092745193259,171.809944617057,258.58459475571,252.730061379927,98.9623036332558,215.837724716974,18.1664363259394,85.1216340433595,163.926968118431,212.044369049943,57.0418772480423,164.708198348049
282.288092644356,334.108541284718,190.885125149636,241.067351577651,319.225762622336,139.076674194061,212.746649458464,350.108305689177,187.712531530363,205.206881481238,250.470526200808,91.5391248437967,153.874200699735,237.919961339352,101.098001247587,145.70016380401,156.529699956908,155.54826796747,191.936115751795,194.196075722056,200.646231362176,-114.268129057225,171.141202781489,303.816145317227,53.3263494578142,314.068389569226,-156.701874857518,189.521454855501,659.995614318179,32.2745495273125,399.305499504158,651.155341155717,20.6699810792161,-1.93218434225797,176.908686697423,555.338936301654,147.796445717966,-77.0280060644161,390.782943410196,650.51038019542,11.8289371930703,-76.6314612723286,1123.97186803476,-255.433461110436,-69.834177849429,448.593918055139,555.283178418304,474.800482497731,519.72016229215,535.902875795002,380.960029121008,511.872715873758,299.339388783182,385.575766100383,492.649713557813,488.596662477636,312.982682069536,457.2225981945,228.236072691908,306.296573367595,393.067799454626,439.468445773484,272.327661110127,396.257206341949
421.466199704425,477.06485044938,329.75114325554,382.527009948752,453.384881458867,280.812243873715,356.331616081925,481.88893138515,326.837589614736,345.288203305305,395.166573063756,226.421475129749,291.411843936851,368.018776050616,226.468993041118,286.039384661734,283.329451036228,278.064306647485,340.24732672272,300.158491959662,331.352362807227,-20.2496608887428,255.248566794368,452.265787475363,99.2369182867001,391.67499232655,-134.424184855567,263.60527767096,726.663511922838,127.765856051955,527.997194444097,738.764905841779,292.810462059631,17.9633590615066,499.166634909308,699.751047983133,383.243679990937,266.788179323631,496.243784506579,1016.37466140568,334.477746029497,266.057045603473,1546.13278042626,50.5740328884788,269.363908518072,532.116877859879,664.067850699581,568.861264220365,620.218062339153,652.473748474441,481.987097229053,620.576449768349,423.222813316256,495.793407168673,610.33702622108,607.417137953125,439.731189738821,576.408735644553,360.954267150873,438.005817325452,515.412636614045,558.907591483293,407.163917073971,526.805707345067
484.45533358923,534.125051900588,394.284203229504,443.426050227555,502.81473585154,352.007804585657,418.177747294219,523.201837543514,390.889244305019,400.02402508857,454.51272678089,287.41298069605,354.223364204824,409.987673653769,282.647026107986,341.419375592745,350.855461683876,325.495006979435,388.877524211421,350.456155158589,365.334447736579,46.123605712197,278.634271673977,479.179657068363,111.013482503312,365.803612394494,-96.3723139649381,224.907495573346,657.924903500952,115.684910438445,525.819660438624,713.588611354954,443.045225654008,78.9754728374554,620.249443062069,704.550909641619,469.684339857043,458.441155365867,460.675138838156,1139.35717156571,486.922211225364,423.508963717857,1687.22792463994,236.178766380642,466.505960031693,531.935431940786,658.656773239622,561.040766715736,617.309184178341,661.351730180002,485.407310208367,626.614021421247,451.299173666225,514.43874191576,624.182358415441,625.223616532564,466.023226736712,595.633305488148,404.361140357455,476.165126947429,547.841428209846,589.32207623874,454.532423009126,563.884846523817
486.15891710997,536.302570036937,401.352765663822,448.789817755477,499.705478236847,364.237968082506,419.072626283477,506.679862386755,399.055776206612,397.502750961924,455.248372509566,292.011772082019,367.230653699843,406.975958654787,296.41847721313,342.165351017619,363.333557711714,333.024383277162,370.395743913323,367.102036936073,339.548835377396,103.338676765096,284.816788822348,417.809794467689,144.75294002692,308.671539921655,-23.7098790349223,177.717006050723,515.073313010831,84.4830945260616,497.423953465683,634.01948042015,512.79667590903,109.318406130588,649.770781673397,591.32513417242,495.566637285601,539.612225533057,380.239697652436,1124.44991087807,485.777615401778,502.098202689246,1552.34429295877,374.921911262012,560.479691103087,495.741580744524,619.739006385719,516.94654411081,579.535280838781,633.83436625731,449.893286770454,600.621244610711,430.336626775593,492.922549674283,595.167654501327,605.827299071042,442.142256073456,580.159042064183,397.812139059019,462.459867649455,541.905460876986,580.641452541832,448.881333066017,553.746173363109
469.495353026075,528.988384487733,392.746233688862,441.240369598951,482.766362116016,358.965347810971,406.750805798521,480.638004408211,396.370291205553,389.362363243575,444.361078258957,290.587021394551,370.444799490995,404.712169612521,310.114236435153,339.433627814023,356.823576543678,345.640139211466,345.670374821936,383.959669419004,320.946298295536,170.584442541184,317.905209812364,360.106877221248,217.614560345867,298.676594411576,70.5709106144817,202.550499721979,403.757687218006,83.2464330852764,514.85284150863,559.681289478518,556.744003104114,92.1159565694784,663.794582284914,420.012796723617,529.503878134043,571.139612249852,339.630192976808,1096.09408101339,405.807510435487,602.937402583789,1251.77186354193,499.470074695683,608.384003674071,474.942785637962,605.024620206827,497.775611493856,559.945617895148,620.541729861724,435.297029950276,591.581615829851,421.76670515793,480.984009556701,577.379929988933,600.02503998396,431.281338080052,577.927271330657,390.655244437991,451.124314628441,536.372076118987,573.101729655852,441.668632743052,546.092594441146
459.410448863659,525.324507107795,394.001289716459,436.576414512958,465.518161776034,362.770468760676,403.543848060031,461.240179798622,406.218157549454,390.501319887992,436.439172475501,308.047911608871,376.161512834509,400.448627126727,329.276706116739,345.668833099213,355.274868447391,362.507539008531,337.082139465014,398.242823091094,323.940248818752,227.129277071933,353.856231496191,339.18235588661,275.826116663243,307.387829225273,156.501221118962,243.667817107008,339.720263112238,87.8223296583985,511.747491108537,484.256372386291,575.774583802527,71.5685190054301,634.766503399753,228.193405733987,554.052607159438,574.832262804825,336.155718877921,1023.38610581308,294.716888573016,722.905862764024,901.794377085662,579.924616615851,623.604472758662,470.733361086119,598.243014868426,494.927365492256,548.713787974222,607.28034627013,434.61857806867,583.50228709997,427.895958631255,477.253658875869,562.735569613967,590.821719756001,433.444632411195,573.470190400492,387.889592670556,448.753381575833,523.861101499333,559.007556573281,438.270128336047,537.314320150241
440.646106075953,503.040628209385,394.393334691238,415.879465397121,434.347348458968,365.117174214413,389.162503306484,428.626844017615,409.470100486831,378.097352067958,410.701426513576,321.175643310111,366.725606089266,370.156090610008,332.411614365589,333.761264620158,353.002837026686,350.259851283834,320.005404253778,385.950574268013,306.579980071518,261.179212546389,340.963796268773,306.027132815254,288.440165851467,255.480147303683,238.128830203389,230.116221789277,251.593464213508,108.946966059314,399.513192746619,363.842326309733,531.616730329902,90.2703072722965,554.426748874389,35.3491210846227,527.947754617855,531.247942299903,338.535848996941,805.139376257772,164.795869714373,774.743562964992,568.108454356465,595.580642348997,579.037029433862,432.63443745203,547.294136281654,452.422574773057,497.920202544654,550.24342344721,398.976915920127,533.798282546132,402.627914632489,442.204963939268,509.340764504545,536.777023888235,404.665736191825,526.884886660677,365.0267745358,418.571719072279,474.297172170923,509.034358860492,407.879474824212,492.686403464361
394.92761898946,448.425045180377,371.07918552298,367.877571396289,379.017579738683,349.089524100575,348.020583632301,370.01806200601,383.816996597358,340.376989468129,359.355837855796,308.358273133563,337.075437772195,321.82893646502,316.349832367138,295.180556874712,346.39400006493,308.613877892096,280.879413982592,357.51782130782,252.813934982887,305.790374326536,288.315294288999,233.021858854598,304.611209352973,145.694041928689,344.358926142015,207.753216406605,122.918380112606,206.159829454351,223.921052484462,196.108275870556,421.182797038887,132.670492939165,486.766833080384,-101.573434775304,470.174895072011,427.492379111906,339.388693585399,462.790624680134,56.9914051262776,707.257816126098,299.953267178304,599.515606370651,471.856807250326,324.333483220966,437.107304921242,346.070911807558,389.646461154593,442.49202521078,307.925873981246,433.892221231741,323.961971919655,355.641586761969,408.985944114856,438.359133189312,328.638588069673,437.01721215702,313.216926985313,347.501901025446,382.217249023341,421.118582111075,345.055887568855,413.007920861675
326.635342970902,372.536607948933,320.124154814692,304.942247378637,308.120289269125,315.109380425817,292.805722848123,294.712527280107,333.101903194338,287.824213589905,296.949759614047,275.353912131108,302.014354333684,274.741643052974,292.956962257522,250.651352510136,338.945068141719,268.224932372147,232.305669158998,339.004647120534,193.289175755211,374.608292794479,239.592047640052,156.140081707515,349.707225817565,47.5375772931331,439.324432283951,233.702435964075,27.4049291893042,340.644979362477,106.906580465306,16.8579094177325,278.898324542682,129.143250349805,443.668166564424,-134.991336561798,420.168264280809,275.622421785608,309.931557918733,120.946171978597,22.7734020038183,545.243555097975,118.591090864473,650.097871576171,325.920249263225,170.07638698649,299.324520564023,207.845516390129,254.002936694753,318.084637348772,185.487791100431,311.039518374695,218.484607699587,242.604012490317,290.016195542601,326.05033237135,231.809551302145,333.040978108806,243.244535909068,262.56362210362,268.916373270766,319.85711638049,273.226826746847,325.573507686461
241.413613033521,281.364031874385,245.406425496696,228.085222660461,223.935382819839,257.875889399203,222.350894664933,198.467621091738,262.798457369201,217.484907393684,221.650516579884,219.351778901308,249.739760561937,208.938622542161,248.70657345596,191.15490241977,300.597023311571,212.065098666732,162.199073192785,289.386507845062,120.509927713496,394.328079984824,166.8931959913,80.853561657539,309.000813674425,-43.3893420576489,389.723619949866,205.27189801616,-26.4831748584996,327.924063405463,44.1331652755182,-183.631579739931,102.290165147493,21.7051444376999,313.677489291024,-153.373390573493,333.316274912055,76.6960413649458,160.21844153816,-180.468756093023,20.7305136489088,308.50471856539,-44.6176933289184,682.614200109457,132.809427679137,26.7416324451791,164.748278742451,82.0748169787702,126.297939195424,197.677528532479,71.1939354255315,186.748903290208,125.101723993727,140.865659971776,173.733247008274,212.936304525411,142.950779191692,225.27242930112,163.121605099007,178.725558462934,152.129197679649,217.962270308436,200.509952586518,232.374705613884
120.633124694683,156.077820721292,131.231269996652,108.414388808761,97.1153471742398,148.69444060753,102.004550061442,48.1258754994904,150.665437529914,98.1351262680297,97.5146568690027,112.867501023733,132.4457206617,77.2412650155688,138.061582718499,63.6660400030632,173.326423426067,67.6528998947562,17.1811775041866,120.761634966175,-37.6016096572528,265.052610974267,-20.0068031945238,-69.0668060350066,39.1738383095029,-227.22372804738,111.891921330865,-50.7827831126125,-174.617602457825,47.1442362326409,-117.609935429885,-473.966154995779,-163.063345365817,-168.244174787357,-0.398854326534453,-339.966145392799,85.4275685509736,-195.145296459344,-174.92229451907,-514.175416997264,-76.6463311909448,-34.2858824360734,-298.954292896887,540.440598269148,-145.973537883849,-71.4728528103008,30.6982823388307,-16.9660108963405,9.75453837835974,65.4954332866704,-14.6472287909087,54.8353554674666,54.5873448872314,55.0674352572554,57.4119870238647,84.0606168262882,58.6941810284812,95.9989447747861,72.1325558757779,79.0760527738358,29.229840370873,97.3123995534578,105.644652828416,110.303149935259
-50.1004685451819,-16.7845947951427,-29.4602887864789,-66.2919943030881,-91.7463895687546,-20.3948185744355,-78.4353625614542,-163.727388625123,-19.5521074011124,-81.1779426292827,-93.3977230205561,-47.2681644405107,-61.1525761698494,-125.700156673436,-51.6566020070975,-144.120386993746,-39.5694057213773,-174.430252515161,-218.83236414427,-158.033086323733,-296.546255852826,8.43436296719761,-318.907823567852,-335.870185127727,-387.981962119415,-532.206603866942,-243.305022925506,-504.37265045796,-512.225775845229,-360.311852409828,-438.83935936435,-863.955450109718,-536.220591915397,-337.676739010779,-412.133614748048,-715.042906496755,-381.061788440332,-529.651560300813,-615.13137433896,-875.188614453834,-302.915297179213,-489.172021735927,-639.127232582714,172.111465917427,-493.793995733669,-130.266800125059,-116.2726875956,-102.983704778629,-110.520757484514,-88.6239099511496,-86.4482636681661,-94.1270717068333,-13.1526358991582,-37.7691302229876,-70.5406170329154,-71.2426754693045,-41.5129662106538,-61.1835332037209,-26.8959295336579,-44.094724880261,-110.38164805117,-56.1992398074928,-24.0742902106698,-46.644737099428
-229.419114405255,-199.155205522131,-191.7929071238,-242.606940076143,-288.567576166495,-190.294693332131,-259.937739397439,-367.615067626904,-198.678845105117,-261.338396870403,-291.272598863274,-200.632913420527,-254.490991335348,-323.786917010775,-239.570837681958,-346.526501158836,-232.761767043004,-393.638355650554,-451.432674941158,-399.130457129511,-533.817010327872,-201.808367683502,-567.851512808709,-613.546226728084,-687.224679691964,-801.012442394029,-366.760193148873,-866.775419726326,-897.935675775797,-600.371663475548,-731.92179121428,-1193.53897372831,-920.801311696953,-367.293440972127,-684.443245165528,-997.981712848597,-919.344323220599,-821.164989824947,-953.07497506982,-1088.20923305533,-484.760465428518,-939.148805630105,-894.481764636219,-258.511774602346,-791.811785584994,-169.202835393992,-254.499185482029,-182.798071374082,-224.095015941472,-232.45190962558,-160.915622741282,-232.587392576996,-92.095105251297,-139.213453695244,-199.082930025258,-220.694170419294,-147.660050892704,-207.207535031412,-118.900478256665,-160.980876799655,-246.748975060891,-207.329965367441,-154.674050783121,-198.533164291113
-345.101041939932,-319.21863270256,-292.267241172798,-343.519083057588,-405.616280153145,-280.107542177661,-366.041073895243,-473.65030221061,-303.600261767482,-359.179846718772,-403.588798203422,-273.438183216542,-353.256600172334,-424.392332884616,-320.866943716934,-440.117479491638,-305.641285540488,-463.002343446779,-551.455292755707,-472.890651404437,-610.967261927777,-221.362698260436,-611.918840990647,-734.953371705516,-661.373024284716,-837.603296448489,-123.35518269726,-873.930578831326,-1062.21098842333,-505.315352737385,-751.739761638032,-1210.42091666963,-1136.46695568716,-218.957107327643,-640.226197770173,-856.904914152337,-1230.59912118745,-935.648427147821,-1013.14915460909,-986.290289470985,-415.948785523707,-1184.72610709873,-888.501992246267,-510.511594823555,-902.410665789303,-195.110433440463,-331.793553845886,-236.62739112414,-291.862367793759,-315.287369797359,-221.31192608283,-307.583990160574,-163.748974329531,-214.559947977973,-286.034202512432,-305.308865379789,-218.161099446354,-283.678009132704,-183.241416093046,-231.136242375161,-327.474014635686,-294.683564690769,-234.5360323375,-285.400052839391
-376.079744755451,-350.627735538442,-317.437432906955,-356.30322954484,-424.522312208441,-279.436804162937,-381.502588890942,-474.364613307781,-316.013661052992,-363.710491645293,-410.141350669289,-262.780688494017,-350.756628853361,-418.783449859507,-293.690207630248,-415.920949692712,-276.556931225233,-394.769015365183,-501.308310428914,-404.775093220832,-527.078830915417,-102.348809725381,-474.753405066458,-651.441969319705,-398.064752471865,-624.459551899282,278.812421330311,-540.122148107397,-885.315513701124,-144.855343853804,-463.863312958393,-806.96790200487,-1043.43198667694,12.1583624415303,-313.717665855724,-285.387418871787,-1102.07632833664,-833.553043937481,-783.701150678139,-617.41432626658,-119.821155299419,-1113.11039289844,-640.813963700771,-505.951333954911,-794.870609178852,-210.058019314535,-329.554043150747,-248.804937683645,-296.995933547687,-320.913491457455,-245.481778442186,-308.211191771233,-203.933202560463,-240.013579877872,-306.563494331848,-308.865505101558,-237.958435575506,-281.6808351688,-213.633786548967,-245.641859360263,-335.211479659933,-302.319912997611,-256.857037745974,-293.315060723391
-365.293317545214,-336.040939549889,-303.696273916279,-333.531481261126,-401.151393761496,-250.14957814968,-348.23338655107,-437.486200041263,-290.488161497861,-334.163140241188,-372.854123988371,-228.820749942094,-315.873294477258,-374.152229687912,-242.551409029288,-345.563155925291,-234.108153993556,-294.257798926394,-393.541167554765,-307.737459251562,-381.905443370131,-3.07963042258106,-287.238585179348,-454.138124859523,-120.158892801626,-298.972286288361,529.119281974639,-73.2097950570271,-470.038983466374,292.644510497873,-26.723437948236,-145.276051398126,-646.447426939229,182.037095871607,107.264194038125,383.462302798779,-594.522850274079,-575.708502307273,-395.792981424766,-197.244131450437,171.089702494997,-786.146813456968,-354.919740038429,-378.062965974955,-546.334134918044,-227.304495079463,-290.308804803673,-237.827142460155,-270.387264258495,-284.349682573184,-247.048679726112,-282.224074244488,-217.893872968578,-236.89200555809,-287.854065197754,-277.68791285419,-237.172564150977,-252.880361504289,-224.79806987455,-231.404471278212,-313.199079927139,-274.476361131132,-255.904048050551,-268.657774709618
