-221.404121405523,-238.295791440719,-195.957871695851,-259.75473706483,-332.396167859962,-159.347170546608,-240.18069882662,-347.402930509256,-185.445888197553,-333.846096618348,-452.74025480599,-52.7774068052459,-204.149969180731,-353.637624170315,57.0546966424842,7.90211173320302,56.5472215770491,64.8118154998486,2.97235395469104,81.5584926592055,50.3850243539092,66.5517300099117,49.2250813472005,9.93201199494325,37.0456797767591,10.0045084328625,28.0561214747667,-0.507475065435056,-27.1861642197352,9.2795440536696,-19.5740382382093,-48.9350955955233,-88.4456542615384,2.68236820301387,-23.9238245133669,-51.1099887331021,-72.3514450434552,-99.5376092631903,-14.3542947080202,-44.5853093203657,-76.3387491290163,-99.0301341977553,-90.9830295887137,-103.307424034994,-100.770048707818,-182.836016432459,-346.96795188174,-214.009484737755,-268.526806053064,-294.045552200655,-126.578780607087,-245.037960167213,-84.6758394897351,-137.815728484577,-205.454905063279,-275.341471217478,-96.3477659947414,-227.276332876986,-95.4053123017906,-113.166939592018,-150.357612244615,-303.760074881841,-143.68793995604,-192.333049799886
-1189.17069453327,-1287.15540723292,-1031.67312613481,-1369.69356219515,-1732.13712145724,-806.918692077369,-1230.85245565173,-1759.04854431387,-908.86258769587,-1641.43679489954,-2186.73778933777,-207.654692920541,-962.597245754442,-1687.64448548349,287.977386218654,37.7128292188797,252.148570729273,297.96105620547,-6.26774734789038,361.836923136153,215.006973748957,284.46797948769,203.920844923832,19.2885381784563,147.869776827836,18.6175819916699,108.331874591988,-30.2465897695946,-157.416332695746,20.9048611464572,-117.237168043478,-259.019594286628,-448.598690511897,-5.97630505208137,-135.049443609647,-267.164519471559,-369.622163160223,-500.359806701669,-85.7999317808777,-232.942724797659,-385.279490378458,-496.429423896778,-452.446381069945,-514.18769127054,-505.120257182303,-886.474297275995,-1777.06609395301,-1077.45457735604,-1392.6127484461,-1562.77870523492,-643.676310494178,-1317.55192239847,-431.725955550415,-736.070951865649,-1106.31487948085,-1481.27791145326,-518.934916794459,-1222.25394753424,-504.24099777475,-629.624994375493,-840.529695702089,-1607.35146854583,-764.151950650185,-1059.56621331643
-2759.53909269111,-3019.98545486757,-2321.75000419051,-3090.84385355461,-3854.5659210661,-1712.78635222767,-2655.84438902366,-3726.13829159687,-1825.1543377308,-3298.60948793376,-4259.05209580025,-243.819124812694,-1796.2970691872,-3202.26727392725,602.584782147556,70.1855111052537,411.691964388454,525.307008309635,-83.0260278303711,589.822012545809,321.093625385872,419.672763590651,277.526051704168,-59.9100055265279,171.833273499159,-69.6484364275775,106.850868903947,-161.722915861646,-398.548588078022,-49.3600009557201,-313.567698897076,-586.211363877468,-950.944392922902,-86.3800833724729,-338.864579977241,-596.262818135541,-792.974940219417,-1043.83729344013,-232.8262118218,-521.699173171763,-813.05430033138,-1032.93790405597,-933.27802111231,-1060.32848319702,-1049.67496557555,-1723.1951224768,-3841.68016415764,-2240.99887668764,-3056.10959842658,-3588.48812559984,-1345.6741419822,-3066.5209776452,-900.358922838358,-1670.96758468911,-2573.24283341104,-3464.93422875239,-1186.29416948827,-2849.34259964073,-1128.5623249644,-1517.0617863038,-2048.54120127317,-3669.37541183404,-1740.1528563275,-2547.67652712515
-3713.73275920389,-4155.46269028427,-2975.726685788,-3983.13965804295,-4914.8237533913,-2009.2833459884,-3177.47180392707,-4330.32832718329,-1927.50486486753,-3438.83855265941,-4158.89438033725,97.160987610651,-1593.45767781524,-2897.73978542146,682.499925130019,70.9485484947469,221.960892615834,398.448314804648,-216.864241117066,328.311736617905,117.872298475766,108.790571903345,17.1826054901207,-254.747095020032,-101.945641479054,-299.015399652152,-146.931167172613,-393.316265484324,-588.396214811167,-261.493630250251,-505.082542177362,-755.542682487308,-1102.00457105712,-271.808754638735,-516.408883053233,-760.544741523765,-940.735459365984,-1171.46686989925,-391.606593977007,-674.664119675668,-944.248002566038,-1160.27672123165,-1045.53340699044,-1180.69554151131,-1172.15941179125,-1618.63399433424,-4620.72634166259,-2439.17402974499,-3711.15382446573,-4768.46397904497,-1427.68080298598,-4117.17087704128,-931.537699607108,-2085.8999779649,-3429.22173493917,-4748.75909788819,-1484.14298307509,-3859.61601030138,-1390.58355060478,-2088.69766095859,-2892.83785550831,-4877.71193863355,-2252.88992929266,-3601.17499749249
-3338.75713744714,-3904.04184514201,-2472.5977103922,-3354.5353880574,-4210.2063974428,-1468.14958812498,-2351.85130051169,-3077.53063266086,-1122.80694768082,-1854.16108570375,-1841.79022967109,577.063884934362,-457.25354430395,-817.074484904979,475.692907717516,84.6717888050616,-195.92003810206,22.4781389779774,-256.284596658948,-236.052857692562,-214.306230843188,-448.868725228605,-379.003017350844,-393.433700838894,-510.643683199339,-505.831340262198,-520.238955873747,-578.016792481312,-587.894724420415,-498.04175368331,-574.073325621266,-648.49419207384,-788.24262885248,-475.778410331022,-574.026706320028,-659.590825233195,-711.487225657897,-781.428737376023,-483.182980331692,-607.564202823956,-700.402050111485,-788.094079484457,-737.830964526847,-809.984694343268,-777.874955899717,-501.48932794939,-3499.55427813994,-1340.07745491178,-2707.61054089076,-4223.03768378484,-612.699788051134,-3603.73109250149,-311.518969734836,-1476.46491346603,-2917.71725192574,-4432.56929747523,-1032.44040621266,-3490.96668375009,-992.602699400981,-1809.61583853486,-2654.54867743822,-4471.55754823809,-1879.99606092769,-3504.05839378863
-2098.30174872223,-2686.02048154758,-1337.29259698598,-1900.6979209259,-2701.39790849694,-634.535156215544,-999.73281611229,-1278.53512736405,-198.203010652709,-87.5343653736291,442.764114079888,850.226693058575,557.930815612923,1133.96209113979,226.306243980151,170.970975580057,-494.852240605287,-223.631356823595,-129.318526470933,-592.333984326542,-351.308411054012,-786.405948002973,-565.193310785981,-366.44235370283,-743.316472384917,-555.322422288093,-747.985568691678,-622.255369248048,-475.665043692215,-617.583831219112,-538.271686820443,-452.364393535613,-403.233401233332,-589.913783042176,-551.238223378769,-488.724340014992,-421.29345424012,-345.933732196714,-503.267556490463,-482.804946171062,-419.576501550692,-378.175154839237,-431.66639037291,-436.091000875319,-343.352967943962,596.792301479984,-1823.07250537874,44.4404524868729,-1040.95104233532,-2729.00654080945,465.569067915317,-2122.79073771224,548.510004089381,-315.362475265587,-1546.30506918846,-3098.25993112929,-152.010710546286,-2258.95054225984,-248.497215625464,-926.735727707889,-1607.28330604309,-3271.37099159556,-1041.86771909768,-2695.24343720388
-514.472070245955,-999.231766842028,-19.6873531624025,-217.532514195163,-955.143076518091,239.386128922992,365.106104397971,390.285232957271,596.814702273875,1223.68956206018,1983.00403441832,992.361293153685,1212.99679711623,2315.30830781103,3.73699423060616,250.408854591707,-706.719816774951,-346.975927601289,14.7504477463574,-753.617241687909,-375.646143447615,-905.862749440342,-608.670812041102,-304.471431483543,-809.281350683507,-538.735576633772,-810.637822559428,-601.466057286944,-389.254162576298,-638.445081224781,-480.644258903805,-314.18365711859,-158.279459083818,-607.93065102032,-506.539499311168,-374.359040172374,-241.900255408329,-96.1516673145403,-486.262699673698,-398.734950225758,-256.869482725451,-142.985663009501,-280.234290961139,-247.741797159603,-93.5982585843071,1170.4426160272,-536.644095826704,1016.7958332091,370.942120078106,-1199.03391945314,1263.32027646614,-549.920324548564,1274.82078747241,783.879015531632,-79.9930901280874,-1489.17900713287,726.923904837256,-822.149480970279,520.591006838257,87.0031812263521,-354.529113197574,-1914.06078486163,-124.101195510965,-1751.11398987845
1093.68130259701,826.668303465443,1276.26634841153,1457.01547244091,1013.07892583365,1124.19745311928,1642.70917155004,2004.41135906717,1381.21843906688,2351.26208404091,3378.83358869297,1103.04794731497,1798.31580888411,3257.92834498462,-272.262419603042,205.669501854328,-987.320692411146,-533.869908990149,53.5429668570267,-951.379794987037,-469.416079961928,-1017.57400956661,-689.229585215828,-304.895053726505,-853.306353681,-546.472785830111,-822.873774701646,-584.339762746509,-334.501769352419,-627.969695452931,-421.562140508013,-199.757240545014,44.8974723139259,-581.113149254347,-442.461734876345,-267.570541245954,-86.0936204710816,110.28634994973,-446.256630497579,-310.554670730108,-107.814907718117,55.8612824625775,-133.178588898523,-68.3083323951103,114.898841083964,1482.20422683222,459.854283152373,1691.29843257749,1438.29978421169,120.625090808613,1791.92932230133,796.177256844329,1832.11610721262,1680.95535263913,1195.71185797967,136.426581052805,1485.37488286899,601.156659683979,1237.01488578913,1051.74414455168,840.662240686418,-397.321179684299,821.651118082257,-738.588854807172
2205.43791125311,2209.11382150361,2122.04966199336,2616.03470993128,2681.4372660361,1689.65499569486,2427.83899340941,3156.79479370817,1868.54985354319,3065.33211159564,4345.05902638368,1003.73752928684,2127.2291366172,3856.77770121763,-551.249967228027,66.2815360839819,-1205.3235596506,-713.837850098401,39.907659033158,-1099.94254330746,-555.279217371297,-1079.77303159515,-740.041727319137,-302.205127620977,-858.98105137895,-531.268810098079,-801.569360188922,-542.016829852157,-265.348982356452,-591.362149170992,-345.943431732698,-79.867056239823,236.912363373161,-537.910631867796,-361.189532568998,-144.055950288287,76.3780725033746,322.802932717344,-390.585280372608,-202.970220399124,53.6997482317751,257.498081635187,38.5430606789067,146.646580334863,326.399831606048,1721.17044821892,1366.29134792787,2217.6132676719,2283.80334224193,1322.54555950045,2158.55418066487,1965.54613253967,2214.65361771761,2396.42707236253,2275.71155195874,1692.54711856191,2065.1064355288,1905.32749493321,1787.96775768718,1877.70130305815,1879.88231214299,1190.24651814901,1643.03358787187,352.948444703903
2498.06244778441,2713.60348743411,2234.12643346415,2862.49058332487,3424.16399320612,1699.37807320985,2425.30606386729,3350.55022777439,1775.72682698765,2980.14434474023,4221.49285369387,613.498680647552,1921.7781588096,3608.54283441758,-703.071173723994,-47.3430786512125,-1166.52707100824,-724.009145700309,46.9383091159585,-1025.60202970552,-512.927534856487,-959.837461263323,-646.693536011876,-238.055846032191,-734.84903269837,-430.896710324243,-681.282333139884,-424.82361526435,-168.367374705949,-488.491810430909,-236.939099079472,27.3538510929326,355.840755098017,-445.025281857974,-251.376046237355,-23.4513038643609,195.623307717967,455.830621852235,-299.967576869424,-89.5997060883692,176.9056025346,388.466630655331,175.59037003735,314.143920901347,457.274786301106,1805.85908879102,2179.99231996905,2485.6431107932,2854.3123510936,2438.84389981365,2274.44733232618,2955.8770319022,2285.72339990103,2765.98192978878,3082.47298452353,3001.18993146234,2274.84048693026,2904.37945458029,1969.57603127298,2332.406220699,2546.63008407065,2561.49908370035,2064.33449780595,1297.28812111774
2262.28996004316,2532.50759746567,1906.95783532811,2452.25000548278,3351.7616139288,1411.76315335374,1976.41200601499,2838.58414682538,1364.60216880248,2382.73223300591,3311.59605543915,173.081721722502,1424.99700400279,2712.76361308194,-670.899377676806,-63.4254108696366,-874.41834384308,-549.80018813344,98.7122661433433,-737.290283208067,-344.680753253208,-650.077321110599,-412.491798431822,-104.1273185394,-448.742490176114,-221.593335119053,-407.658241672577,-200.407827579372,-10.6806304610819,-261.552162268561,-45.4985899739417,161.405418278937,440.328055860804,-229.653627623304,-50.4525241620818,137.651192584688,309.848787836406,530.912450550764,-105.305756496002,83.2751245703915,308.463717821562,485.748967437703,329.871086173098,468.297787649685,537.191224178832,1630.30801864474,2706.36918738541,2360.9702470867,2930.71743003447,3110.84675906211,2022.88284546226,3436.09858625402,1939.95522882233,2583.44585823873,3352.23307577335,3646.38680077566,1988.32004200128,3359.34635489641,1699.76397354075,2208.84174397248,2621.79718816351,3350.65872219637,2001.02505498557,1830.75377977678
1980.21125447028,2202.41844365058,1580.31537269877,1951.38893915598,3057.17980650426,1172.49461150512,1574.13474355727,2275.5747380598,1036.34998678452,1835.84347756575,2436.91763589124,-82.0944996221817,1041.68895174624,1836.68564800599,-508.362440734182,12.0120676060128,-462.630103360435,-285.050895511776,203.45543760288,-351.913171077593,-105.07146534318,-240.569503178228,-102.790022978592,88.8692585446431,-63.2290285697665,70.6409798081315,-20.5270086845298,109.731081818839,222.324304126126,78.5757231365209,238.417374902997,363.80463767564,568.958507814766,101.406861719149,251.794007409583,376.598304634171,483.302858165387,640.733488601966,201.546210328775,350.186390438644,513.527164115108,632.277150332219,560.012318120515,678.998888276933,657.835243535385,1233.85997138294,2709.88696795011,1897.76396993054,2394.04952304073,2993.27065050549,1458.22841182201,3122.57924796374,1246.56839770455,1903.93431313139,2947.9491975221,3497.09448114639,1322.28428287339,3256.17177315467,1089.86936602985,1547.0924594981,2163.14455326208,3414.24380312429,1567.55304048899,2044.45587369236
1820.78133182596,2068.15993177773,1326.33208560857,1668.23856367168,2875.08683218905,998.406895918395,1310.52313311421,1944.29282473331,826.962630983853,1467.29849667278,1868.96666926107,-169.109973706294,817.610785563705,1201.98708486638,-296.967987270662,131.898767717691,-57.8824647172612,-19.719986357189,321.10015546286,14.6443667435828,134.456332808118,143.3257089144,196.95972182959,276.269978077471,289.05667666258,348.287795025796,339.198521091628,406.272948243469,452.824943043741,403.335300389576,512.468617684446,572.941867544091,716.515548286412,416.264483319675,542.216252094791,621.469676888435,673.111880995664,782.559825042314,496.238364322368,620.361908513427,734.14178821997,800.795972298431,799.378236389374,895.649727878296,803.195096573075,836.094530744727,2402.41023076394,1379.35439207308,1601.6501291341,2568.90570526726,790.3193896254,2425.80511306226,387.749248626028,1065.99439848669,2244.84064931445,3255.96669953908,517.064471156719,3029.28124764887,310.582803391971,618.563964666745,1549.26857253956,3232.54746675508,899.19468128251,2419.01309902052
1749.87279966481,2142.26747065152,1071.71746294409,1626.33355968614,2775.31381408284,791.748157440576,1129.93927256103,1764.85302592917,646.13755099979,1167.4278657692,1455.02996447113,-159.041244350396,639.06121839595,683.389687462023,-49.6865249433087,258.570949047015,279.246098991879,216.531187850163,405.956786930857,298.180131741486,323.525055066967,413.383810039787,426.287603256249,413.70638018419,520.744966013389,541.850651449767,557.828965811365,610.40203436149,616.265007328055,602.13302493423,686.7176948204,725.600467818473,847.65973511185,598.386064834371,719.110707261197,793.874001828232,824.241900889076,919.307306132083,664.878561132564,793.011717270377,894.56899586106,940.622004175673,972.319746149402,1056.7706306587,932.500177328668,554.40357993991,2399.53539125899,1053.14868576476,1240.01561081483,2732.25340498777,208.407932561961,2168.73916582191,-425.121636450264,462.427011223761,1880.02600955167,3556.42959818463,-155.885163524838,3083.62622725185,-375.75821701523,-135.586794416619,1222.60456341049,3340.41576180746,264.801550370779,3134.23540507588
1766.54844276264,2289.49658917577,925.343402321421,1757.19460851431,2708.12137546598,608.393763734721,1131.52025113242,1709.79449920328,591.323469640867,1018.47842987172,1215.97388840023,-34.3744691216654,563.161146465897,384.987430817,247.219077980716,414.140865993722,561.339003242985,456.560247689386,522.730399012386,525.067902420188,508.277286820381,598.817070665544,610.216080760282,582.570913919066,679.982756453446,712.075970846776,664.005820515235,763.956642132254,775.400108562798,714.398385754026,816.129591361742,882.857513462059,1033.23687125026,673.028671911064,822.596859333118,935.541734389729,991.379085491033,1100.41601077093,740.621953081717,900.328669402433,1038.93428966581,1103.6609212483,1111.0263258613,1211.57982111407,1107.75466616905,150.487383046938,2927.83076973945,763.919495018307,1527.56489625209,3500.35741008522,-301.2991868051,2522.23944553362,-982.509585471852,227.338687987453,1949.97246164876,3887.37089191129,-435.232646269799,3107.19887994272,-574.060053824773,-292.284998140711,1270.51366868884,3420.18372260941,95.222664068728,3543.26247345004
1820.23720828723,2378.03375405397,979.635921347612,1906.31970002055,2674.00674727757,547.203025366757,1317.27008134759,1775.27543436374,724.626765908414,1075.61933614344,1203.12831413884,169.944656425289,638.40574310137,411.49206534216,551.668632378013,631.155124230306,832.767334281828,729.031090072708,753.21859044162,761.137070575535,756.989193015517,790.841330392185,802.758073407251,850.490734396656,860.018121229888,933.858340325287,765.202009650946,939.613828938112,988.877266943631,833.849579657719,979.709793023924,1098.2194410989,1294.4740326508,736.052612682994,934.627019160186,1100.93686941982,1206.07930542072,1336.42949037209,810.189067932631,1011.40206714278,1206.32133096475,1313.48877985483,1246.30513660761,1382.21602566934,1342.72328849006,-568.132988660933,3476.2167839379,128.342068341509,1805.09522368767,3939.33875732964,-921.201250339325,2683.59216037767,-1267.97966765904,1.42236038634447,1726.30071891695,3365.33308461578,-417.522752761927,2333.24705074919,-254.910712556961,41.9038906742176,1189.88924313377,2806.18247785524,431.10345876194,2926.36358021051
1778.05895980267,2323.57356799746,1103.46175231178,1880.78630872293,2595.96817136495,607.756862355363,1433.85524299887,1800.16016544459,869.839097563594,1114.97009085473,1206.60776877894,320.193582098476,699.087901213939,495.544978607329,773.525309261096,822.332308741923,1080.43733322141,961.413677248592,979.482670040711,985.359473569633,986.720382145851,988.867931311514,965.710496852603,1079.01919116851,1040.53456745279,1126.09999353088,895.587631569425,1090.61472453268,1152.81436895574,949.097577554293,1114.29431821313,1252.56899071462,1454.63594552595,813.782627367466,1029.39640259695,1212.58179175736,1336.73797268134,1460.62531391228,875.061102102971,1087.54919171762,1298.25948239097,1428.46032421258,1306.14594436347,1453.40798679743,1464.14812058801,-1249.72059800925,3461.33248506629,-780.488724798962,1387.08455529107,3460.85954333304,-1658.03324719098,1965.80400463445,-1544.6845614034,-672.165259270641,642.689549315913,2121.4599993842,-612.835792247667,640.246336616564,-45.3430805730998,185.410594201389,443.412713325086,1643.42785648471,665.03941194723,1571.78283728071
1619.02553101374,2139.53093666817,1139.53178226774,1659.96704642012,2396.83658302167,708.415908998716,1298.42080730503,1656.37384932425,844.449158635685,948.084925615808,1023.70443402897,326.093715149569,582.434625435587,363.221651884961,829.337860533421,829.857885163885,1205.93239209858,1013.42915273555,977.106930946242,1081.69041698908,1020.43361742056,1090.00523534852,998.550562393653,1070.98759767232,1107.70851526406,1140.43346613133,987.058954734862,1108.06798847748,1131.44005666217,979.329479410809,1108.91898127906,1201.31031836234,1347.79836851144,855.730804726544,1032.06550210436,1171.79003708666,1255.52322028694,1329.47109266543,889.270327081007,1063.588031953,1228.53430112737,1324.76872077109,1241.03204598989,1349.96187442518,1333.83458376755,-1315.70660892683,2978.27474386087,-1244.69082056593,641.699060175302,2549.58218284068,-2051.94633753951,868.484142179073,-1870.95840325823,-1452.92623178708,-621.753249406491,1133.56642403432,-1113.51566226662,-936.701944413646,-367.982340019508,-160.750483120743,-615.235159022069,808.126840969336,386.566493542574,527.243558016598
1446.17227867009,1920.60383420878,1080.75879688545,1403.34990631121,2108.6553479235,729.830248973663,1018.79561958045,1409.24817813184,662.544950739007,673.620426386202,694.698173284372,199.252684001007,331.825556590063,76.4493451087493,697.045403549729,624.756370229952,1133.30877966049,839.944796588774,713.421046621851,980.622629987039,818.288793813138,1029.14351779733,872.39557336049,831.891747257811,1001.77342437696,955.125224135858,954.960571667971,967.437132336059,935.763455409011,884.435281749485,950.28256579638,966.787433103318,1034.71753570827,801.542976613155,920.143792208794,993.11473727826,1004.57398968612,1017.52226013578,819.990312659795,939.873829563265,1034.68264338883,1059.65365640541,1090.67668377577,1135.9148885606,1027.75066507459,-705.983387855212,2573.90827411475,-781.420977889942,469.256795721068,1991.44797689018,-1609.63756122444,419.06754965602,-1806.38140054176,-1433.72583845512,-905.732488427431,927.151877148779,-1261.44804036923,-1247.78050801976,-743.026392922223,-454.08050427091,-1055.74434692369,886.422691043317,23.9636308510381,463.063980348233
1268.58999868208,1710.6306879522,971.640978323899,1178.39272316662,1786.52051965373,610.605805952454,763.004363810994,1131.10663322159,431.06614823995,429.96470625046,314.903715617914,-1.11553782108645,68.3232356128929,-223.073991821509,457.599014794569,336.481074896864,927.25837015868,559.94050684855,371.176038622073,756.352084902672,520.825925075276,855.354761487077,658.750926547873,526.337797363874,775.392417499005,674.552441406028,783.204407442884,729.23221236204,661.473129266354,682.915728339548,692.880085828001,657.716219085394,669.311612712998,632.356397047605,707.881660658036,733.007789855399,687.427751643543,660.456302928604,646.589270462807,725.927202921624,761.773947274235,730.757581412079,862.732017336446,854.945172145416,666.650541762685,-35.9284839067218,2388.67772946276,17.1596833695964,841.315792178164,1867.78496067061,-679.766984193704,684.99154840885,-1177.43943799613,-630.596212910607,-290.973932654766,1040.03857112028,-776.691726416077,-472.627610474237,-629.649947896693,-316.378367850314,-689.753657600047,1651.48587724647,55.5926343981643,1185.69951574817
972.748002065565,1462.4023589887,795.146126271506,885.453575835997,1435.97844749583,419.33426923504,520.659465184761,799.048599612108,215.210080142661,196.724245741877,-89.3670417682129,-204.352802979611,-158.508721489017,-522.444335160102,236.791108929285,87.8555137236526,726.678624475838,322.607669624349,106.702556142229,539.255902441909,273.16232017068,661.330059371139,444.994573675523,269.295725996401,532.343266189106,408.041127551814,551.109580538328,469.33924411381,379.974334954742,442.277538340061,408.793575416308,348.058289975983,329.563984372997,410.624167807971,445.328926118486,434.456680663177,363.420777882387,308.616923841359,409.52371114778,447.301065267273,434.322063121451,379.012635960731,545.112997419878,503.270135295177,300.663868688338,122.429075553317,2033.22613940836,187.347089178181,865.709326519206,1691.51416895616,-232.079203159685,772.681571964329,-632.315832966915,-143.997214417587,58.8785750229714,834.149583238998,-364.738977616283,202.791892373968,-329.117230854549,-124.984402459999,-161.739101573602,2430.34536680465,247.880453367668,2053.43777125312
537.180046263755,1146.98500579079,506.221595928994,494.728507794034,1056.89356076771,225.328342973768,197.146654454377,422.358841749852,8.94641994858592,-66.1357143400949,-480.907159371523,-377.942359802221,-369.808891472477,-817.958363818208,63.6489252926656,-123.743711807753,565.531909798166,139.810372547001,-95.2325501987809,359.504796380591,83.6116593816266,479.472578153068,255.534105140687,54.0497981656101,331.147828167357,188.194622331721,353.406424327895,240.512532117624,129.189087642415,237.712158767462,163.660178346338,77.2577422256329,35.1028428117896,228.355808177892,211.27686416033,155.982215245083,71.825039359458,-10.5754461751208,201.228021432588,182.654038406701,123.986151013919,53.8298143751129,217.510954685925,150.799790805106,-22.3451881296681,-51.5708409201635,1392.57169798875,-239.721928156772,270.371933948777,1277.24767019171,-521.024924289278,237.411626412791,-715.14314155599,-477.11914222761,-301.991406469118,413.180771442999,-535.552600425992,282.46526985421,-348.09447685663,-137.856797173805,194.280178837737,2764.98080999942,263.32187444316,2543.94553920402
109.718947828809,791.941703792265,126.991990532933,125.245968140646,649.424913390547,-5.35472160054453,-201.303087046831,57.6744927881203,-235.962299044873,-335.711891347793,-838.399140545373,-555.284807313421,-612.045686589704,-1088.16764573038,-122.637663477703,-356.480147168417,382.848057192479,-63.1419470079236,-317.106909262931,170.761737677777,-114.298477655322,299.611006931712,69.3907193032159,-162.002785058315,160.489938108405,-13.5760238410985,210.910192378354,56.2438424418531,-84.0988092984356,85.3458448592859,-30.9869277257723,-148.875493507308,-221.779325910014,108.15300715353,36.6444468524781,-65.6550006773552,-172.807534643653,-275.849671297499,56.4529853209372,-16.267547974134,-117.798474389582,-208.199847700975,-30.6206919204662,-118.200689534798,-277.059053935056,-23.6382786321067,882.210037823723,-452.830999046737,-237.50696684539,959.660037447386,-813.964346100133,-329.023758430991,-1015.4819710036,-916.732316409707,-646.415808064568,370.81674722975,-793.601707387957,325.329852990873,-520.403658763749,-34.8903409023516,582.55160470148,2671.06783735869,259.650868343928,2528.18902790136
-154.839733572306,426.369427921676,-215.196080021773,-124.491589594814,203.772401394664,-267.032947178035,-552.088093901321,-273.729774618049,-511.95087372189,-595.436466638538,-1198.24279332967,-740.822225603005,-877.096180006769,-1351.23457734977,-312.45859903932,-581.733412220226,192.775004712706,-263.917368342389,-541.109105051442,-1.37668654934811,-306.501972066159,156.244642862053,-94.8770313954745,-354.543306187994,17.5757813166523,-192.072943497616,106.343023753598,-84.945612557902,-262.633312922927,-32.3049005517212,-191.410177656494,-342.761941194285,-456.518552649409,26.6915661418951,-98.3741731041007,-242.780819032078,-382.951286184177,-503.430484660045,-49.8349499357889,-163.978443164721,-315.148044720568,-427.154221172311,-212.248844515273,-319.940551492406,-499.859784685029,231.994551155852,694.404967129143,-188.672475431577,-161.98696045687,913.31165883194,-595.506015236508,-299.460889500025,-907.715162234557,-821.797649907136,-422.563347461211,790.87617072755,-587.264566046243,652.591690476385,-422.587028763867,335.570010023937,985.87858388732,2341.2945656072,416.794611447578,2181.09853233256
-216.207241328939,98.242204875692,-369.255924517238,-237.80823495644,-225.795387426622,-432.102971366817,-706.683878190333,-543.002535707579,-701.210927352708,-795.883564424833,-1517.16668924224,-847.892081240929,-1056.08339723066,-1565.51711221511,-411.987903711771,-696.451861952103,84.9822001113047,-357.541293574528,-663.957377608081,-77.0456084323003,-404.146177920316,101.705395257923,-177.416951686899,-450.055525117883,-52.0581643706236,-285.799414022835,51.4932234200975,-165.282241945768,-372.552664806485,-100.071743302482,-292.852393836753,-475.809086763311,-633.237204307836,-12.1646734366552,-186.63550110597,-370.278293438031,-537.005057030253,-685.868642420625,-115.118571913672,-266.128207006692,-468.858186109963,-601.838882833059,-359.252086470742,-490.409235848375,-691.257314036813,340.801812162377,499.169061327311,90.8229930598146,154.84898540474,814.11789674273,-174.505028365654,99.195299472733,-488.377404631278,-427.014228730023,9.32312997917757,1063.55310662927,-149.57177059792,848.365406506398,-101.166783978977,635.538795245742,1095.5887753085,1838.53634676535,563.770890634577,1707.22128959644
-143.761424966036,-116.827416415361,-306.302949935369,-232.319040741478,-511.872218675326,-424.599511583389,-607.287373558675,-675.181489943977,-697.509249534027,-835.977430980129,-1637.14512690925,-816.420796180777,-1050.87023680898,-1600.99728057951,-394.352023321057,-664.966262995069,78.7078672461602,-325.096314505538,-637.194551385145,-56.5081023429949,-379.559642057497,118.193827143892,-164.330737412702,-421.613587907593,-29.6306025054134,-265.7660304823,56.9289016447041,-167.148384676644,-367.438902289329,-95.7351259211712,-297.287862285151,-488.614652181337,-672.944327150124,-3.40096010269463,-199.629936436666,-402.330997918137,-571.21416967589,-748.483118067144,-122.828873540167,-296.28900971812,-516.414922675265,-664.529644629842,-435.219399656867,-578.402169543372,-759.899711906067,196.694666346374,74.9250703344293,76.2266155763289,218.793686255639,397.175892486436,1.10449317823456,279.041507249606,-223.572620638486,-195.184616950093,150.968934823901,790.800932552069,60.3926900809443,654.419503835718,128.092613459121,638.605347754663,898.162220618819,1210.21391044541,544.04478873342,1224.31056715319
-83.1643559821029,-228.952399510145,-173.458512953221,-194.471023287846,-628.208950389663,-339.632262916093,-390.124642924952,-679.793605384601,-563.41378052781,-746.306339872253,-1543.68978155433,-719.966962253681,-926.451988615367,-1456.97962544058,-337.882286811064,-564.355827566196,107.127049852932,-247.182470056383,-517.667332578208,-10.2710710328912,-289.345884477487,142.945170034279,-104.261249382762,-313.299668847621,30.9597122695947,-177.043829715984,87.002261783694,-111.906828374746,-264.198645993185,-46.4070408156355,-222.735490210643,-381.053722017062,-558.890497172546,21.4265925305161,-154.201473849874,-332.310244502239,-471.446864197446,-643.466459819098,-97.6548934144247,-255.747350508549,-443.117222824876,-578.886278109978,-410.214402875717,-530.828577127684,-651.355020348467,-4.78237355383619,-406.521695130137,-94.0355084359358,2.32980894183267,-160.989926642147,-64.7808271037846,108.996376211499,-201.26612147964,-176.731375761732,39.6821629035466,252.629306480996,32.8812825845178,354.024820119324,184.556454781316,504.023405431312,667.669021525462,617.502495985614,429.348299872321,794.670986492985
-175.678149837003,-377.884676230101,-177.652236552013,-277.194637668411,-746.079248607524,-335.9645808389,-317.268297280217,-729.947408875076,-496.407294412072,-742.057365547913,-1481.04462667029,-688.237166949543,-875.712060547109,-1352.7841622027,-321.318910703596,-500.059102599805,106.414956694726,-197.324836836619,-412.185157942079,13.7962961926124,-203.760072041888,142.541864696433,-53.9066684529942,-203.845417190415,64.4617688998294,-95.2597654345795,97.359041149667,-58.1909775923373,-152.404780646804,-10.2678127397088,-142.926793296861,-249.674567578842,-397.038075526566,27.7228635153035,-111.022679693239,-240.282366745915,-334.231807714313,-463.696639325955,-82.4236168738271,-201.813221522672,-341.907474222629,-435.846902081207,-349.142401191173,-425.010734055385,-473.400594975012,-154.475973888885,-811.817666811159,-255.126340303946,-292.949050183954,-634.531255577064,-158.956749215406,-190.922157057895,-200.846200198662,-218.079367242958,-103.842198725992,-200.422114176213,-16.5613822034799,140.383560708323,174.156175015902,378.152279941122,482.273112962591,125.53025354838,273.360779981424,391.911085902
-434.947618653722,-656.860296146537,-383.171862266921,-534.525312622526,-1009.50091477293,-468.364537401088,-498.623832170408,-947.554412042268,-603.787764106196,-935.004373518235,-1610.87469715191,-762.300297037521,-989.899385906823,-1431.91648842847,-365.070536990291,-521.41890248273,48.594761334425,-210.433301316473,-399.559589192941,-5.5740236870166,-179.894149646353,108.779038909212,-56.2244953958313,-167.738415835071,48.4758644970353,-77.66039171137,76.4632826802401,-57.5313719210521,-115.96459474103,-19.7911813455147,-126.051618414061,-202.269335229758,-322.354215578234,6.46311087701626,-114.882609417379,-215.775807674046,-280.63395486202,-372.066945044273,-97.8823193565122,-199.695443651452,-315.634703219008,-377.483786705182,-349.010021513378,-397.094413352474,-392.394064703364,-297.565214371219,-1235.2609538085,-429.431277133992,-611.686765783834,-1070.45929731206,-225.32129181034,-522.980821975647,-145.962820324919,-294.464531210851,-280.454005867854,-601.78831543162,-46.3937073163051,-125.248819398095,125.75919707472,198.999303096645,215.313755335393,-371.508440919244,28.7352779567077,-64.3253138193545
-719.834503899381,-960.557974058426,-636.515264296904,-818.275762083477,-1303.9923188503,-636.374204267431,-749.20744439634,-1194.74645768947,-768.370064548783,-1150.79768354488,-1752.94454468622,-863.580204570762,-1135.33718877618,-1538.39032743814,-449.112549024059,-597.365218993211,-56.4478181286681,-283.851854707436,-466.104348912042,-77.2776096524609,-232.418768675828,40.8133089678298,-121.656762669175,-214.329205513721,-3.79751108246345,-125.145150439803,32.5357670290785,-106.579643621596,-156.426987561815,-61.9241961346115,-171.801529150673,-243.745919208172,-354.052426184599,-32.7535185819558,-157.898194006438,-259.18367680355,-321.953384588091,-408.067856320127,-137.479752328534,-251.145846954312,-366.560489782438,-426.508318116054,-415.627163178491,-463.457631826516,-432.600471797932,-445.974031675753,-1710.64325397215,-639.43976965889,-967.523185158005,-1542.07035210797,-294.003607974536,-902.184033956472,-107.969460405727,-410.302553550399,-535.349630730534,-1034.13639146735,-100.491079063519,-484.396784608692,24.7919769081815,-50.7857417469003,-122.027231156535,-883.413351249932,-264.979779831944,-530.097599271872
-884.52159570961,-1126.80081412568,-757.528894068987,-957.898517422438,-1441.68886342297,-714.620287209526,-851.608975256014,-1286.35627736383,-828.109902784571,-1204.47027436712,-1718.70144416581,-896.377611610227,-1160.78305392714,-1499.9586851137,-519.409352800666,-649.682499109994,-147.473590555562,-356.282370199002,-519.368521468632,-154.125535916087,-295.424323424182,-24.6593747824815,-191.351266459857,-267.237611921714,-54.6304089004728,-177.527620690351,-12.5886622614698,-153.239641728866,-205.827827182679,-100.304823151629,-218.402492691758,-289.338960015001,-401.696212752179,-70.3990400264216,-199.409746925159,-306.340275862237,-373.555013752671,-469.746435224898,-176.081280382723,-300.855341756743,-423.898048234098,-484.507705271042,-481.656262836259,-531.348832566188,-487.659173994246,-538.556652661945,-2114.08923237668,-806.924572236263,-1277.06282278706,-1923.20067648346,-327.866039965747,-1245.10301588674,-80.3516078668771,-477.888532372602,-780.983689623592,-1350.74760032191,-135.340454089974,-771.729202351094,-69.5499778687423,-247.143389723044,-380.385939843392,-1275.62266634508,-480.762057701853,-852.66211426491
-942.903631397999,-1175.13332861501,-761.578694022184,-986.985833362092,-1479.11218746972,-710.494132435737,-847.104955016547,-1299.68159748486,-807.048495489416,-1190.5447138101,-1670.29413214834,-851.076855990858,-1125.14822341201,-1438.42871123706,-517.502201219863,-633.673245226412,-166.497004606294,-360.72504642011,-504.282550050031,-163.008567310698,-294.532684098684,-38.0821911252046,-195.352887357911,-265.307107541772,-72.517971444377,-186.98426155227,-33.6011820738425,-166.160432461131,-221.815960216156,-117.455674408863,-231.995633430026,-296.89573170285,-417.443876013414,-95.8576481289888,-223.978097771076,-332.832810727524,-392.534033190526,-495.631982220279,-200.643670291825,-327.254337977835,-456.474713433759,-506.628720221668,-528.185019644574,-567.609344376974,-508.036134504233,-546.048356117837,-2369.89731108594,-861.064917201191,-1433.83129452275,-2073.88142148054,-289.712661069521,-1413.46980360071,-14.5208965663639,-436.403427926825,-916.054346048655,-1428.10354211708,-103.661100280711,-914.812097681015,-95.2102615254542,-310.067582293692,-508.260034037778,-1523.6918359226,-575.492394787027,-1026.72522214949
-975.490566455492,-1225.90258038531,-749.612597672046,-1017.58210458605,-1560.92753660667,-688.519960912157,-856.295484475398,-1364.97117731587,-793.519289332204,-1228.81227978949,-1757.59305254721,-771.555291084479,-1122.79427169783,-1474.97588400113,-464.845611677075,-588.744082392235,-151.06654807882,-327.637021971924,-471.218856812945,-130.030064700113,-262.197788536992,-31.3909279475303,-168.027876955446,-247.4159994555,-82.9054976901016,-183.686707347062,-46.4698059846143,-173.713425409129,-228.80091965842,-136.163822466807,-245.876220938538,-304.862010957739,-435.142518182179,-122.005773279448,-253.956114726143,-361.836475537738,-408.549991165711,-513.858538722238,-226.439336031765,-357.666959193122,-484.877801796776,-529.865249389221,-575.945743075505,-607.703269106615,-526.463781498741,-463.479725101934,-2466.35034386888,-758.031847661559,-1388.91823498956,-2028.7961955466,-169.644475984573,-1357.25452806613,87.3336273097291,-283.499551963648,-889.712000863555,-1346.38453236188,-7.78494493264259,-959.08773270608,-49.240969415416,-249.61147050899,-540.046260908421,-1664.28692439485,-565.796476059587,-1187.17864433094
-881.262896367106,-1184.92705613868,-633.975855336793,-923.095863490915,-1501.38365260829,-574.744584879563,-738.514135815658,-1248.68303590692,-681.581697973319,-1077.46020286947,-1614.24170977513,-665.140818136913,-1007.94198966954,-1320.35062255943,-469.551342271129,-579.083897318982,-203.282403615736,-367.406058763624,-482.124055356114,-180.171842519605,-298.269954113353,-107.877557383264,-211.988271793311,-272.356861041838,-145.128561021014,-218.984814590275,-103.023051054022,-208.795739850036,-242.022616197647,-181.439616477276,-278.013461238429,-314.587879980454,-427.455156351533,-163.349411537549,-287.396316530381,-372.802281887096,-404.067798332398,-488.887234718953,-257.69544696736,-375.731587959701,-478.342787693932,-512.562148358489,-568.75680836869,-598.91498609886,-500.370346531397,-234.214423021694,-2270.3839341743,-425.165303507009,-1092.22567243434,-1817.37788883895,88.7705055383227,-1072.15698426354,245.802528185095,17.4846365576365,-618.841041283262,-1141.49569997136,172.753562988788,-822.805876928005,80.1947006382601,-64.885172755707,-429.655732784365,-1520.81174054968,-406.558097222909,-1288.82166358284
-439.455724864176,-771.626291092152,-220.914999969702,-432.215092171338,-926.765953564844,-235.090410549441,-254.734052374202,-598.57383541753,-312.03638399287,-435.632712625022,-809.161680432905,-544.941215516601,-612.530913969633,-654.161282437676,-603.73531961352,-613.260394261338,-356.888295420344,-525.955714901613,-515.488616424236,-364.734879080123,-422.243473428614,-292.873718869206,-342.082254271482,-321.760832212133,-264.465576739371,-278.145964727714,-210.014937418816,-251.265556045968,-226.958006467745,-238.788497014586,-285.359458297101,-262.259825549927,-300.139544201725,-209.029217296072,-283.444109589785,-308.358641451546,-302.693543589773,-324.323243023566,-268.717710653268,-324.581286634095,-365.738383733077,-352.431735910075,-423.700218749043,-435.543755980173,-333.104968337777,135.69672281879,-1625.5969949961,122.027479995429,-507.712955306948,-1277.93488168859,485.872259377873,-489.861673296869,486.438331627574,470.822567128721,-11.2208796530522,-643.879281184245,442.520673607613,-321.38397630978,306.09959895117,233.739683224651,-91.5065593403156,-912.991521295045,-73.2150129934431,-1129.46408897671
314.898965558389,35.8110913353706,422.750846498391,395.580070547505,83.2783484229683,246.460638962469,468.553618025561,386.505744780124,170.454135081296,419.676922920891,261.828579598688,-501.518645514796,-152.396685356811,162.306758043193,-795.396421689149,-653.069691793421,-509.303847373068,-693.846401671545,-513.102293359347,-547.594403812075,-525.952870973018,-445.578882150065,-437.56209604975,-331.597279451912,-347.120377298816,-291.328971631669,-281.364786246366,-244.242745637264,-162.445751173896,-258.750343834526,-231.717937393497,-141.648996158096,-84.5654407778648,-219.235646786252,-223.389413338299,-179.680091441225,-123.144639393485,-70.2028920668137,-237.807119974112,-212.913393354529,-178.625324695331,-100.889231104946,-201.530246740208,-177.202263729311,-80.3648204387291,407.0053272169,-703.934837063766,629.903805839331,212.993662361925,-345.689885213384,820.021341274002,364.30448635014,702.838365472423,936.062453060189,832.989045457043,217.603060167549,712.082078997167,501.758013980488,544.452800626025,565.138659494992,409.291806506558,-78.0386444867843,304.586252796135,-716.633050158619
966.653845775556,801.85245318424,908.254359694635,1055.49063682149,872.2480693607,557.292578515255,937.546958548342,980.912040152114,383.359872940719,765.319722123316,593.900600810754,-609.758325341797,-64.038460026333,311.018748218722,-886.523025039107,-670.7814877614,-517.013672332529,-709.259904170578,-466.841638986713,-534.013959076639,-493.983324619254,-392.931447635575,-376.538884984891,-274.471949597055,-281.63258338157,-217.576225242151,-219.582976543004,-158.761758508934,-84.2028770962429,-197.25877648713,-141.607903159526,-40.0903246878159,40.10179284653,-158.252708031559,-137.447770720423,-75.972082826348,-8.09587253904284,63.9178792267792,-171.374509484685,-120.223030714139,-59.076387704235,35.3310709128145,-79.6123266648013,-36.7976339069608,53.0634972259541,252.065720325956,-33.3834666289999,726.680564660345,660.126878216987,565.431663688831,821.850952615092,1102.98721737739,713.021684537355,1189.3934981721,1509.2711164984,1081.17006456742,849.237166086141,1246.90546237364,645.733905578998,805.269987206191,825.687310560737,522.972986980788,520.146572600219,-256.170138370164
1068.94168449891,1012.44623069725,884.941631192669,1068.03758451617,881.612626400226,464.191655418262,789.382462662432,715.8325034839,140.341274063382,258.893458103546,-211.380909830662,-818.264060262634,-461.702633329396,-471.619847418211,-814.286686329534,-679.051298821272,-368.966531211589,-557.527791321359,-431.922834243122,-314.248972819299,-351.54784438691,-152.631491335808,-195.362280317487,-200.892118095777,-90.3568244828511,-107.191860348591,-48.2898231086492,-46.6314830934649,-54.4969570544769,-77.5107769757218,-78.673133987183,-40.150109109034,-39.4771990840986,-49.54743329217,-77.0307237081409,-69.6757582571902,-56.1463880682838,-44.1679808585322,-101.173919738164,-104.909529061993,-97.875446109575,-56.9841319849279,-143.231325163467,-121.884438974079,-49.2243025744964,-343.893318995399,-39.7635110876283,266.056643404374,468.712014225352,835.458079924124,434.829006988678,1204.41119956049,476.878732752876,1058.42076166632,1575.33623723098,1389.61937334772,751.021527775359,1477.07321438545,529.079107382171,801.168209670989,895.018518999802,691.092986090299,456.372225377428,119.815718037005
518.749849843579,521.396680785432,332.517262902359,396.328962620738,162.099031630661,12.1123263761763,99.4118263392573,-197.445146053364,-393.954465074176,-726.576109158142,-1517.26765492297,-1020.45246407902,-1043.51679293804,-1589.68189878967,-676.015506483139,-714.150383984106,-204.077496576521,-392.974547144542,-472.897189366854,-86.2554877180205,-244.256076258003,69.7272739009181,-58.4578982797872,-198.696378142685,67.2384018391254,-62.647090148328,97.1085217910845,-2.71699954134673,-108.897865511879,7.13969596312571,-93.2373587099045,-149.768344830378,-261.651069577882,28.5808104837511,-78.972555684127,-158.755867670459,-225.316084123975,-304.999396694852,-70.3383349809269,-163.127973277342,-252.651154283366,-290.237532375523,-309.50291596474,-333.609586211305,-306.007558720116,-966.049848941372,-614.01275964903,-467.372579192986,-251.043705952706,311.701906179749,-102.799700793371,596.984947113589,136.306196896703,545.690232726948,975.931757879069,962.55175837319,394.393767213799,1088.24006050311,223.05230871315,425.804018808847,505.702150106043,488.173285952477,129.611464969257,306.385761501667
-444.815313338862,-445.860721307225,-511.320599982595,-645.02239245377,-902.324518098047,-595.083047373024,-807.104231442247,-1276.20497624514,-974.326732133562,-1647.7019385947,-2561.37092948601,-1175.21544500764,-1516.35428145037,-2392.13297924028,-577.541947243627,-779.819876428035,-123.267067949972,-331.604655121698,-587.134788123762,0.778462634013612,-254.953655474239,133.262993475663,-57.4051719605252,-289.220395326372,84.5266521748736,-120.610798247002,122.036356885771,-60.2784601518326,-225.54034971312,-6.99754620769538,-181.481878305666,-314.411639550215,-503.256058071894,21.4170887005463,-143.610400183778,-293.069953162742,-418.210802854461,-562.367942193006,-104.761879705531,-259.777362532788,-431.675576491893,-526.365154101632,-466.47029774096,-532.934118238574,-568.102964241897,-1234.73565432628,-1286.4665331275,-1032.77084775018,-1025.49258363988,-610.285528876441,-506.451172353682,-308.367067831423,-172.867834602631,-132.737555153264,62.5336338047894,72.2690947223659,-109.797305240408,301.767438465077,-183.317919661651,-242.935673994397,-210.823691008215,-52.9950173106628,-363.601669747138,127.297068287618
-1455.70491522766,-1532.71136039572,-1342.64651575212,-1678.9396080983,-2025.25413421928,-1155.84523759307,-1619.54517349357,-2227.24068696346,-1458.13530686964,-2292.99654253635,-3201.29893436226,-1259.91231221231,-1822.95265333853,-2792.26248429301,-481.788608448323,-796.863538806175,-57.6870783959387,-301.485830492227,-672.197431865047,22.2370041575014,-291.12064590448,117.537368225045,-102.792394404694,-377.255645770393,34.8099241392103,-195.696089497107,75.5092321034614,-146.322006880559,-330.190060294038,-69.8003734943056,-276.479164980021,-451.67228226213,-683.508760249581,-35.5738657673551,-224.88150928533,-411.426272076837,-566.553452831084,-736.818707196815,-170.737955522419,-350.966227801965,-569.839399021286,-697.36315853706,-578.034181691631,-672.147753170135,-749.367266636205,-1258.13230863986,-1819.87082323534,-1325.95604488338,-1607.40105173505,-1556.56285415065,-750.884708070268,-1175.56724417829,-447.567248477457,-737.12935291512,-814.299467703851,-997.410768214001,-594.520553081556,-612.953948452937,-593.238813928946,-907.820545089404,-949.983762006028,-961.984789271522,-897.243684596238,-481.736735337649
-2185.34945669347,-2393.26997437958,-1893.38377242483,-2400.55399372495,-2993.59808037789,-1495.89326225567,-2103.10820240158,-2893.95973532459,-1722.97005851313,-2642.19329616742,-3559.89227853715,-1184.08974357001,-1946.69585559479,-2940.93385071908,-293.183825974428,-676.528295055749,90.4711684640953,-179.590541496797,-625.718873957281,114.917294385005,-223.896469242684,162.819667717924,-67.4549184102735,-359.655373349439,46.4506488045584,-189.425961024993,70.4262975996919,-165.664132454335,-354.724229465034,-81.6225168679726,-303.67325936824,-500.658607769967,-763.383863084857,-53.0516629665216,-259.892681286518,-462.542044873501,-632.836750605161,-816.931687790099,-193.231295606763,-391.248852118789,-631.501142573578,-781.885882602087,-639.591278745102,-752.71628517069,-829.967399788096,-1379.99234775477,-2326.64830818801,-1569.71406906862,-2121.42994507028,-2453.54081994112,-992.53187626304,-1991.79943922785,-722.64737991573,-1216.21684635894,-1576.94724325753,-2134.24470378719,-985.341950520182,-1521.32546418803,-940.501116918183,-1352.82572781802,-1523.22475484727,-2150.37867908619,-1355.73913446097,-1327.00869290695
-2481.65224855503,-2808.93775517091,-2042.72354215383,-2655.28738030866,-3564.8797043376,-1526.05684317153,-2159.83278535675,-3128.07175158359,-1676.91128487461,-2636.20041778452,-3533.87858049666,-899.312453192443,-1817.25816568512,-2795.59498459725,-56.848231097742,-472.937236871409,237.628798864004,-18.3812915340324,-494.389142677675,229.99129343049,-101.801039091863,237.455014044029,14.6412011601785,-276.525612650017,99.4711009385497,-138.043313112393,109.739916537342,-129.716452101583,-324.05609570138,-41.3143907200931,-276.498033517082,-485.668286800552,-760.819404038112,-16.6722788940747,-248.872698812592,-453.323355386198,-629.710917465422,-828.909402964604,-163.87810664227,-380.72996997945,-629.809198994773,-794.50641138031,-653.805162608069,-784.033754818217,-834.983416047891,-1632.56292336878,-2794.8420001019,-1819.944039025,-2587.24444195247,-3207.8028178095,-1215.15667718872,-2740.26400021534,-910.87966608982,-1563.8595019319,-2222.68973485897,-3152.15879796266,-1235.30802286961,-2331.95039689304,-1154.42521186096,-1573.02800921938,-1933.02198655272,-3311.12129984646,-1632.78458539291,-2069.8257218706
-2438.61367400413,-2807.54439870938,-1898.27004249255,-2514.65495369187,-3639.46886681986,-1336.21934370596,-1916.05992687976,-2936.44217845857,-1399.73637442436,-2307.97637713038,-3022.75790299083,-527.353067676558,-1484.46061095969,-2296.25109507218,71.371024230849,-340.675625671683,210.727255951243,17.6095592058233,-422.470743529528,203.380668716382,-83.7890428819482,196.978040511548,2.10661454506209,-255.423563185715,62.5262697857283,-160.906588504666,82.5145502426693,-139.253079686152,-332.813297723167,-50.2857723533712,-285.425985961094,-491.043909353445,-747.960488148454,-18.6669058208271,-265.397791754713,-454.421424124251,-622.223599494254,-820.318112204483,-166.122744201383,-383.235985509625,-625.36170902146,-787.180365226227,-657.76458592504,-795.5944680141,-817.794396137439,-1750.23438886271,-2938.63930928041,-1840.38717346996,-2703.47334125835,-3515.89726254675,-1195.78400798869,-3144.88495099383,-826.73701691611,-1584.59171284001,-2537.86811664847,-3762.81495053443,-1183.80935607634,-2882.76529935984,-1099.51217967966,-1527.17417399575,-2107.69668768742,-4091.25805203997,-1609.76803885018,-2533.7412635261
-2280.21077345305,-2608.95888060234,-1688.88740864346,-2219.35447409136,-3381.82458749016,-1129.70513053223,-1622.46520138107,-2557.16635457833,-1107.13147905474,-1885.5541976912,-2274.62662142967,-251.08707134638,-1148.26761501587,-1637.88849170404,42.6379839854875,-330.381377143818,3.69863775425849,-93.2475249870502,-448.022119351045,17.9488128772941,-191.336034290469,17.9117254188609,-137.317898750239,-322.628311599919,-95.6536304918291,-280.215614492187,-56.2556546569464,-235.922423175114,-412.332764091064,-156.534702547211,-368.560386790407,-548.451195008887,-765.279343810786,-117.326425328256,-348.62932517976,-508.188929906145,-648.124111703705,-816.676051152978,-249.076466386673,-442.567814180265,-656.345778494967,-794.025184847184,-686.492968445623,-815.028020610988,-811.557987089541,-1623.31942135561,-2644.10432521335,-1565.07860417791,-2301.1016331312,-3246.35635018137,-888.235656806645,-2996.25460875022,-421.370013960316,-1163.51778183726,-2372.69275912339,-4004.11195004735,-735.223062591409,-3153.21682570053,-687.840314072978,-1107.63885344856,-1961.39875104273,-4458.52365595342,-1251.02255165087,-2950.49048773469
-2164.00190532101,-2429.26835415124,-1557.40548086829,-1998.91147981091,-3049.0688689609,-1031.81183932958,-1435.12583223572,-2227.84234054327,-938.896756051363,-1565.59710099334,-1647.13206446924,-132.452471084955,-932.844717433779,-1080.52539772528,-52.2726781998468,-354.968478356911,-231.247141604552,-215.94442118766,-471.284619763985,-181.851643574196,-297.230964050149,-180.018234045498,-295.332204177292,-388.100388326171,-266.742548960136,-399.481591564425,-220.014674293547,-354.554918721135,-494.90199532141,-286.535536153609,-460.417463337163,-605.30603922593,-780.515836376186,-246.85627116662,-442.547246129692,-574.211698413342,-678.661052313468,-810.341244753951,-353.975268215895,-517.080227212825,-696.828116335424,-802.063273507819,-723.763826593073,-837.593385075997,-807.960912998203,-1384.34842112628,-2213.37753718929,-1300.67996125396,-1696.79823615577,-2779.81884927185,-579.452237368077,-2577.57007446993,87.024729216313,-673.124167314326,-2121.45567416316,-4311.89579123591,-135.468567731097,-3407.34987556888,-88.0433017238555,-464.588652085529,-1716.84864759025,-4674.2631322533,-723.15547833024,-3628.17254775853
-2091.19493256793,-2346.37164115145,-1484.27864632957,-1922.85179681731,-2776.32633033764,-1004.93438632975,-1352.90401060344,-1996.59174669474,-870.32900197936,-1338.09671922881,-1222.49460309078,-118.130333379169,-784.672625201783,-672.472582943443,-152.278826159978,-351.10648797437,-403.057894948093,-281.784833891413,-433.3815712143,-310.536292323736,-334.945095581813,-314.85029483463,-390.527303476738,-402.659510867529,-366.200364560679,-454.037359578992,-320.098412652163,-426.482630818061,-524.209080493729,-359.141508893239,-497.724700219806,-617.330933532155,-766.420434142626,-315.593770920151,-484.124175143366,-604.381022632511,-685.735395295279,-798.372646052123,-402.98215638245,-547.397223756348,-708.585425298138,-795.797073754708,-737.189167454472,-846.802812896686,-798.366604500107,-1035.72344192058,-1979.74675161689,-1227.75331995531,-1304.30700718774,-2642.03405036699,-469.334631636781,-2391.7565076882,434.291797765297,-611.139248667163,-2331.13154459998,-4812.98109237083,206.105660461661,-3789.02667547426,329.6915179679,-3.50202606926496,-1700.58802664341,-4743.37790638533,-303.049298771973,-4320.30287059652
-2000.82029259061,-2340.48359579094,-1418.28561020677,-1935.02051784819,-2587.86807907758,-972.552379621892,-1357.06913718773,-1859.84228348164,-856.498996260264,-1167.43642878863,-928.919088028105,-174.022387802744,-661.060136272936,-383.573934485853,-301.830567207478,-382.929386601003,-568.92876096986,-378.666155463266,-425.661754344503,-437.841585141078,-389.117680755388,-441.226510606868,-468.972648167049,-437.530571154451,-446.239236899229,-504.304076653056,-386.512824076243,-480.588468888591,-546.88561110389,-408.176535070899,-525.356009131118,-629.470208092624,-771.404597123604,-343.751355080457,-507.92559187856,-630.680522947347,-704.350811602455,-811.946738704977,-417.760334639603,-560.958624248008,-718.050322616365,-806.32907824103,-748.285232937827,-863.056519037375,-813.415880969225,-367.08685315525,-1949.12510178446,-1028.0312402157,-1154.12277921315,-2869.49335963969,-310.717331936055,-2505.25847282931,616.869362489577,-856.055597050398,-2803.20361418113,-4912.84813385226,198.869354848846,-3928.67744616346,360.479663103217,59.7318700451995,-1829.24478989588,-4297.69721324996,-156.700515389076,-4347.11272551527
-1904.20097220823,-2394.71625526295,-1394.93200276837,-1986.10422729565,-2488.35779116073,-950.543653407448,-1483.09141846947,-1863.45614468757,-929.484367971558,-1127.66574262682,-803.820899357322,-300.48339232675,-629.100969358159,-288.021678978867,-530.204806575406,-527.497220457164,-799.814909559686,-579.829853223656,-548.989854799872,-640.687131653388,-546.731868246086,-640.760660052255,-599.968099964621,-566.265923421832,-600.720889230524,-632.282705377546,-512.597119987811,-592.772836282028,-636.986085609796,-520.256406529121,-621.683464339342,-707.800746685455,-846.249566308235,-427.753052578551,-590.306166340727,-709.484139949377,-777.817379154966,-877.983710436493,-484.615108818003,-629.881724804059,-780.863015946474,-869.548139788698,-807.96040396678,-921.675276305078,-881.541254294803,598.420900071679,-1949.82112970674,-351.912362413439,-977.051145555718,-2966.27865027663,243.509190631832,-2393.26775814647,857.784170173899,-766.531003295804,-2663.94080871562,-3939.57715486107,171.31445538736,-3178.91751587294,185.700108875834,-94.3317663850437,-1624.29758613516,-3157.69352808854,-233.315364168225,-3333.7758130409
-1831.57635836378,-2452.0080599057,-1432.35589427767,-2017.42780007962,-2400.29968296159,-974.607153300422,-1664.08634947244,-1919.05632870479,-1054.02432387241,-1189.32794689965,-837.12691589826,-421.776013494715,-667.797971260262,-367.285093217787,-728.903255024728,-688.848332638208,-1025.74709410625,-775.895208030103,-708.386400063297,-841.721048410775,-719.251918549438,-856.525170235594,-723.307998236441,-706.453494676447,-784.146684063957,-773.996384374237,-688.567072147524,-728.363550052853,-738.405252020821,-664.09605699166,-735.72169182494,-792.326702545464,-912.204678316894,-567.245681093221,-700.794254250699,-789.660224700736,-842.419800196146,-925.281505899829,-594.805181228242,-722.690961020479,-851.638773746479,-922.600674642328,-881.307517226648,-974.796843818256,-933.069382689072,1402.98123550994,-1848.00664495707,578.41106779688,-519.551639184144,-2502.53393691089,1087.1212546941,-1509.7677109522,1289.88847721703,-40.5576443487454,-1433.25832825948,-2036.1164451548,439.761680428771,-1332.59329460153,142.268031633465,-160.356975186063,-772.229565662587,-1630.94446867568,-331.728533798406,-1617.26202453941
-1700.84195289741,-2347.53709990335,-1420.2458901512,-1876.48406859288,-2133.50431334578,-979.505474615852,-1641.49931720906,-1766.48262131827,-1041.41952220555,-1107.79912084444,-772.59895648876,-399.611451862911,-583.009658243575,-352.686572326471,-738.646493301673,-661.263022981802,-1092.22552821676,-781.497877962175,-679.117836544365,-883.625753340616,-715.565325056582,-937.389783170818,-706.805409865938,-677.127673570025,-836.877059692054,-762.320693519927,-788.964010679831,-745.942976956254,-695.854316285962,-703.613700490747,-720.106479581352,-724.310871088292,-801.34898923871,-646.159208294285,-714.18267153717,-739.862667982002,-753.561489118438,-802.01796569309,-634.394643714144,-714.094985854384,-792.851224706496,-823.954327080468,-846.80354289268,-900.14977475518,-817.280841943973,1633.81648715461,-1611.5158791519,1177.52985331912,147.279552596165,-1653.90802314451,1719.72585862007,-98.2748169968484,1748.60794269821,893.163379885253,290.423684002009,-216.359633160026,916.469148822254,809.017742046769,348.02007417354,0.584854757296959,452.67197630014,-344.093834036905,-267.004912159435,-86.5791347632887
-1388.84502678548,-1952.86570592418,-1252.43041191499,-1441.34973925358,-1585.33116147112,-870.896042889058,-1230.97783304451,-1266.30536239768,-761.090644403311,-711.610715166582,-349.669446785512,-187.00878443031,-248.85083672567,2.62640470087685,-524.640436077905,-374.890950733286,-940.901532780421,-552.178643858336,-373.142792209673,-720.350533544731,-470.747594438413,-835.081892663578,-524.636281698736,-411.311196733445,-695.649565112795,-537.781811077197,-741.639797737651,-583.727593746402,-450.953329364712,-586.168782979032,-522.218077398519,-441.283173402739,-449.137486587958,-599.601607076795,-575.233102968128,-513.511503743926,-453.702703404309,-443.684074420778,-549.698183172407,-551.086850700409,-542.91246948867,-510.314072991199,-645.464289470322,-641.008821645148,-464.791221549611,1388.46015589147,-1318.25499480912,1207.25149544514,608.940921186677,-944.541582157972,1787.44773074977,896.525465013829,1891.94538325711,1425.19440698126,1410.55360403501,616.518791279842,1245.04469922233,1975.90498501173,610.272008701172,336.461234805052,1389.59604045791,89.9653992346016,-30.3399216887819,479.530039681615
-893.587438483191,-1340.84583613572,-959.857554457334,-810.953541705372,-891.500572845211,-669.480555239011,-597.202410945092,-567.652658079006,-321.913390010607,-133.220298234707,365.963329834252,123.322480619428,229.381681899552,626.026440424744,-183.201332671774,57.0728046907372,-646.277498877003,-191.190425089616,89.8378148018831,-432.419146570027,-87.4450108823454,-625.836790833996,-255.4183099327,-11.4624805966387,-441.881565813761,-193.96584616159,-584.075916223366,-308.927125721651,-86.1726718361229,-378.660764911664,-215.547113825286,-35.0312543113382,42.7546568944056,-462.97583174959,-336.262748046377,-178.800656118102,-27.1283986708891,57.9454016793718,-380.266260197004,-284.53300950768,-167.628016625801,-54.3299025458333,-324.47657726733,-247.922865158355,39.3062648913124,1108.86723962715,-978.828201114069,1050.1290572211,716.055795635674,-500.690697149907,1461.98812841675,1051.48723350365,1593.81049960561,1499.605625257,1574.76789668845,588.980878684224,1283.11253218454,1789.68702866485,691.747846477546,728.809622228931,1617.36599651291,-460.971820035021,230.056416094498,58.584105695693
-285.508734936848,-680.976620537085,-579.950900838079,-181.599762432157,-255.143613325646,-441.017197844161,-38.7767300782699,116.073852252196,98.1267387961237,405.627080640546,1101.42964238908,436.030729185158,695.659078444182,1264.9576111669,193.620740080092,514.597825928162,-288.889960399786,208.32087236266,565.687599362544,-88.1441305094511,324.063819728503,-354.88732881615,56.0898998162965,402.04213888506,-146.273346375399,175.561668610397,-356.206019200474,11.0187804540881,304.847322377873,-130.984776928287,127.498387082299,383.10526953734,535.944363467749,-269.67916561379,-48.2199836526641,195.441984408308,414.93043645045,569.296529980095,-150.979935490169,36.5452206322549,245.262365808802,431.780824435079,61.5948341151574,204.498732347861,560.39535258494,1071.92167612008,-510.948697747248,1195.40879886515,860.432591286654,-59.2772042974502,1239.69373089739,966.659299877034,1174.56351770106,1594.01148336621,1459.27228568587,434.068224619073,1281.25584953254,1029.0560530119,648.288929709063,1122.45708873576,1315.01988767443,-1516.09677356041,437.991563408456,-752.081938658773
410.858517522246,-62.3880002115869,-45.6807276050273,408.189370243103,281.61429985996,-125.297079994161,411.124083654526,751.399764536083,489.194552266727,891.256910797156,1746.8820307256,774.231789177184,1148.26946954647,1824.61357882686,593.212894877415,969.20466782238,120.739089607344,627.889528700487,1009.69423114573,304.635399130571,730.736412625453,-6.96009421153247,413.657403917023,790.994370038174,189.06961467933,544.644115492722,-67.4847941188851,348.995079297643,672.806344962198,153.778831134523,470.636753625299,758.621917731027,948.74764707466,-29.5171989994711,263.746433068184,565.495506220289,806.142882018376,998.610441808055,125.620456095248,375.040073812035,634.733719234457,860.021628335775,465.271395066291,642.194963224034,999.199369519841,1109.74327617653,-51.9671572562907,1543.26246281132,1243.05170043428,353.53497367074,1290.18097106271,1207.31520810165,996.762420209617,1956.6112006821,1653.92790756817,459.577082384252,1454.66068121668,470.246471240264,730.687352056229,1473.75435639454,925.764738282072,-2362.42976210353,657.388970135995,-1328.44264671883
1093.91771245369,443.679701795837,622.940294619306,957.957379507232,754.028276762034,357.101933361267,897.814367051255,1339.24214471214,916.634479435557,1391.6366251413,2350.55624072139,1177.3714933682,1623.48046969932,2343.45305647103,998.385104409757,1385.37216394547,547.41602982666,1023.01115448479,1383.7389534332,696.596063036255,1084.34702678179,362.219766238543,757.353651298501,1109.86477279799,520.976498600416,858.724553717461,229.141246760858,640.448844880148,946.976322220496,427.182372879824,747.945602960909,1028.04222814498,1211.57482550609,210.585791053439,534.795975862831,847.703572161135,1075.64782160681,1263.35261757316,381.213534313041,650.14150763644,925.395453734323,1143.05029309767,788.421032441918,962.940086852431,1270.64804707687,825.482802458378,114.771700441988,1466.89083969638,1417.82387233936,455.722809116795,1204.03434958175,1495.05186195805,928.829564083711,2142.7236592766,1823.73161653973,468.023134960174,1545.08667970654,148.732045014611,894.698572743055,1538.16899294545,578.092974353558,-2500.91621376803,817.29141536902,-1447.13641404671
1506.74642670501,724.286071633281,1187.11208424549,1286.16196409363,1100.35229055243,878.138614414245,1362.76066030573,1721.63350983657,1301.35510470763,1783.69458389815,2840.19563607113,1538.1355925833,1993.87051418983,2727.70998372655,1294.17260287464,1638.25918684839,849.732523938143,1264.0499407152,1571.54716185733,949.878767733713,1266.0145657778,604.938400769161,951.150830877393,1241.66227606517,727.14457855419,1002.71702811733,429.789074687889,787.627380626029,1033.20148528003,595.454259773543,874.151037060186,1109.22089409157,1259.00558943659,377.328870837769,681.854474884854,956.357457725338,1151.30531371795,1308.66190999986,537.100151768871,788.043337152341,1049.23450292757,1222.27752792765,946.182818088302,1098.60797738839,1324.40659159108,92.546923133365,67.5938526119402,640.618283665978,938.715280694776,349.874107731688,618.931122130125,1240.31575242365,594.64065912983,1598.41658562819,1328.53049450645,332.147768836102,1133.71255970496,-232.901056443527,799.602497250438,1053.24466324654,109.088063018367,-1940.62681351564,718.930949853002,-1345.56107769345
1564.67621351179,829.296322096028,1452.31985664164,1299.44343225733,1299.81717103053,1223.71689603216,1582.51480706867,1827.63728102292,1493.45123112827,1921.50892359725,3112.48923334311,1703.00078641462,2104.85396012757,2858.74517609969,1373.33668150655,1642.66996663847,910.065183942109,1267.38934367482,1509.76282050019,971.155008513562,1217.00820931917,632.005725977291,927.404684048954,1136.35552788077,731.947033734228,931.917683125144,470.92489198202,766.090914486365,929.971854834012,620.548947294801,840.118210060597,1011.31431636943,1132.98837977571,437.69364479999,695.802167837641,914.695205024797,1064.84728395911,1203.79013597708,588.830345634287,809.437955206021,1036.57484716554,1157.67040185705,983.367784825625,1109.46265382878,1230.41378051909,-699.375491389948,245.399863298861,-411.66141671098,98.2981739672926,458.513744796436,-201.750469219393,411.632131831751,-8.06147146142805,498.875104338236,257.081231960015,160.060964510833,285.51809766562,-717.212828940005,386.54265734144,226.313517226292,-439.71511672776,-1072.70394740997,457.202439354987,-1213.00797557776
1590.39185084777,1014.15428721998,1539.20932770249,1300.31088116528,1525.99849920277,1398.75595207883,1571.19894345509,1907.67433567666,1517.77605989566,1957.47546308238,3291.3144631624,1701.98413469835,2046.32513099622,2881.42092648464,1285.91373395618,1493.03646970411,781.813045662775,1108.8146050308,1312.136400077,823.02364057181,1029.61143645447,500.243553519966,766.439880650403,907.406810673727,593.381040261937,741.154647286217,389.213663675343,648.939807988036,747.902438072677,547.606949613153,722.229628802649,843.532217454228,969.744224724739,412.434179312245,638.558770453724,824.096473888362,936.188390480533,1087.0830056882,578.492433128204,785.040515950305,986.635371810473,1077.68558117818,1010.14617509848,1110.09215029915,1123.05367481449,-1053.12263420509,872.499037041515,-860.113479979945,-292.807909598785,869.820812272186,-787.71789353663,-297.512159210355,-602.835819761395,-449.295083862173,-570.911653018905,88.9538582870088,-547.232149279774,-998.106774088822,-56.9890783259661,-468.200729440439,-829.979562073724,-154.498194869774,309.280143370506,-807.749971780647
1939.14227240304,1394.53293180488,1756.08747454253,1631.6760162058,1918.30480053438,1628.24887804452,1654.44482077079,2211.03306166085,1599.6226146779,2171.8204468744,3535.0678850551,1744.37492004536,2080.98608756292,3024.61851244778,1205.71472615042,1393.04792298461,641.492637184831,965.613691625974,1178.89075124655,669.402442429443,867.24253968158,357.689329176545,620.364829432176,730.832193091864,446.530911086086,579.56699422448,286.200721223106,531.974337266924,604.639486248282,450.09661300017,609.324446538654,715.231619224516,875.487530085801,346.43770514598,571.148716452891,756.427389801847,854.096610107451,1032.20687982094,531.843766225264,751.655967041695,960.079826897404,1049.57386391239,1060.52291635731,1142.30973016366,1071.65200129935,-1008.14490595453,1690.36857064344,-619.772359076552,78.3253024585239,1264.48455586896,-1097.20719870351,-233.295939974445,-1095.16927335263,-866.57875077643,-594.352171706883,123.884511509642,-1090.99545206458,-768.952028028933,-394.373151495845,-895.727227582487,-1051.22745677347,850.243050245707,240.814764385589,22.3460771027517
2498.97570023642,1773.40726248871,2216.18225542412,2138.35732107917,2362.74836623851,2035.29468243828,2017.63961365747,2606.68064391621,1899.82548844744,2553.44724335289,3730.17741615758,1977.19139151499,2317.63318349859,3234.09077478364,1282.5952295432,1479.87228360989,638.720744415909,982.778666080081,1225.09748595117,644.646540834726,850.108683536308,322.940167099865,592.454620332797,710.081370748284,389.05280929744,541.188402300668,233.095497450882,470.06154111875,563.068043123352,378.379568323599,556.241200395671,683.987161521035,890.112743053294,275.246432717548,520.830187004807,733.154412486252,846.118801183841,1050.29115150579,461.316437267344,715.526905937719,966.061301924893,1074.06509965707,1098.08106052114,1189.20607254424,1083.93760824905,-950.46676729788,2251.75518927942,-366.411394274932,501.265246908691,1420.71459246869,-1255.02590583999,286.120707948282,-1448.81838959866,-893.004804759023,-174.704016596363,173.41468026658,-1313.36996263629,-119.823874273912,-702.973417637148,-1178.95639919796,-1190.96301148827,1891.08991794878,57.4450078654854,921.678093341498
2785.89120406101,1951.55650897622,2617.93162244758,2343.40434037859,2685.59191121143,2409.25897165194,2365.60908118479,2786.37629420656,2254.30108932072,2801.52257211243,3676.42754614859,2282.08410776706,2570.71828016937,3276.81607291952,1476.71042446994,1671.96937082919,744.342250914775,1113.63838556936,1355.67948945949,713.75570453596,928.893372182362,356.480126258299,630.584084407201,770.314047805678,381.338623136007,566.391241709781,200.891659214935,427.219496314736,573.037016918557,312.945117702348,528.187165743838,692.009706583961,935.585345598928,194.5905649602,461.714605120931,704.529478901544,849.482387331199,1066.34603537801,368.125102695083,651.508190284414,947.909731899819,1078.21607099161,1065.24378496914,1184.77333297287,1090.03468688899,-810.417022684657,2354.20125430245,-392.771897172654,222.263170381781,1444.57232700688,-1130.79050664918,353.998138004039,-1487.54096946312,-766.885522112814,-14.4618365921576,277.561427885115,-1269.4461790167,491.299569528689,-986.348215384373,-1338.66615423745,-1095.67759303787,2591.36749183301,-216.72688724632,1468.44093198366
2502.25610246518,1992.40660207503,2528.84031116441,2095.25005768783,2889.44005854614,2424.1836605865,2290.17631235488,2703.18627457027,2324.52428605818,2727.93266956743,3416.22122831816,2391.42055826083,2582.85876811941,3100.86927426372,1567.82645021532,1721.23476453081,769.316658416151,1136.23954681306,1343.9282218421,702.730728086389,905.267930110767,318.828780924739,579.870503943063,720.113996029816,311.215104391674,499.243823554796,136.572083019615,332.295042772021,501.541485651287,212.691920660235,437.313452047509,601.210105225682,840.986500028238,107.178682704358,361.155259672403,589.358569570352,741.644655752733,933.421517672359,265.362655858591,532.412363517229,816.594377033245,941.957585321923,929.917483275039,1045.98047297061,953.270923328319,-174.812731163891,2305.8977607368,-216.21403201156,-342.054517409455,1609.38463603184,-682.725603321314,-149.144312278691,-1236.09689577496,-628.949643994258,-281.192434490723,632.980948358649,-1130.26641768375,629.616970108125,-1132.16501097878,-1325.04289709671,-757.128776184303,2566.95932652339,-406.31318016022,1434.01409462851
1798.87611268877,2003.72268415346,1874.69664474844,1676.90830538788,3005.12029200098,2024.86394573607,1817.67949898789,2533.22542201661,2014.12718164471,2431.69195038766,3099.34618976627,2226.66987353516,2318.02645915966,2820.22050340376,1458.83533576724,1527.30199950712,643.58264672949,964.878471144438,1123.60254815894,563.864630397132,716.646612730423,206.589760634637,418.50025310294,523.008029246847,192.788169378921,329.700887895045,86.8561205171829,224.04435093548,336.679389701601,130.431406876522,305.068989929503,406.988582218671,587.544660607112,82.0097784134234,274.539092473844,424.220577175544,528.789971163423,649.461302251232,222.443107372864,416.378488272615,609.327228704071,681.914516350337,760.655163435604,817.621586216661,671.93175549189,813.456149890343,2620.57302963934,386.255731196021,-249.765371342382,2065.29087713796,-238.386573279723,-440.761830147872,-997.889620973033,-591.499307064422,-704.326483679146,1254.83064350937,-1035.42998823428,247.643419495019,-1040.2505192044,-1151.12837426134,-641.751602450629,2015.70196678373,-375.896204510412,742.837843488168
1029.90961550567,1942.16542443727,999.911304887996,1335.11268117152,2918.84118466464,1430.34780815494,1285.40897363986,2327.05733271129,1535.94568275659,2062.6531047808,2695.39097256794,1972.8944771385,1956.22645830847,2458.81690473362,1325.24061668678,1273.61223168941,537.134360330827,788.202992736922,875.371768604932,460.490749595721,540.63717214596,163.653378906678,305.032632898541,348.697403321897,152.035306314653,214.597881838636,125.108999282477,197.700014189621,212.326618283577,146.555327911834,240.750394963264,253.988251085565,350.712544121611,158.05110023869,275.484987974303,326.100285066841,352.873115252045,390.079122408074,280.279623301336,381.470486470345,460.158571718955,458.065495753994,652.506176036046,636.28386469697,413.870201740002,1434.59116851654,3168.39207785907,839.681110165561,400.174468323414,2527.88455949908,-110.148295442555,-168.007827546267,-915.25078868986,-774.322471925111,-1052.74120983178,1824.57993043792,-1016.81469962701,-227.497331019217,-789.123155713176,-988.679833207863,-1012.29671892184,1743.20980063589,-204.710116645393,-50.8370330065065
497.986707020102,1846.11787638054,355.152898354466,1096.0519850434,2621.013555152,917.035934140135,910.589946765038,2059.13486333089,1152.42345927105,1724.38163657907,2202.56929458776,1816.68182412683,1708.83577794725,2054.26948778768,1321.70480225154,1161.41752195497,572.427407867482,768.571260037834,768.244257534447,489.134574147203,506.855194772596,225.805322997508,324.503408497645,302.779370367557,204.657719212718,217.678620392753,200.964463994289,224.742786791552,185.202060825658,213.845253385308,252.182850459089,208.315901917499,241.620323457595,245.742078595689,318.793765567638,308.222795411057,279.617904814492,267.850995164279,353.276945924249,392.576672657118,401.205103245611,352.946280359335,596.996272359503,542.895473309922,286.769005888387,1346.48290479777,3129.53345598193,690.97334591063,652.294066678338,2473.51160504972,-252.641749698608,143.632273666164,-857.654723030905,-1178.1553621547,-1156.09589092924,2057.70263521639,-1153.91128305006,-277.744536907431,-649.216997788322,-1085.70521822541,-1390.69388435309,2246.00922803776,-180.181120285047,67.8664256980878
398.318750512812,1929.02856441237,216.795964838042,1046.14206091858,2426.86890019765,715.186568935892,786.78709899794,1941.35383224176,1034.62979756872,1639.25464347394,1985.88086909322,1771.76896246574,1709.55071802244,1897.00350192669,1340.51488236447,1167.38940379027,618.653271839722,801.907171325889,773.644855445493,512.474055162038,518.353324079408,251.621962993404,362.698353564649,312.850069590817,222.648148241424,236.216339469989,200.534025929127,201.984426260531,186.404016046295,218.746862714814,252.34984605943,212.020390876265,236.972048248735,239.689554161852,313.79914934645,301.94807387148,269.476951738767,264.78353908837,339.741949668017,373.704570489848,379.986003315317,338.821367518877,553.899833525617,506.390311674835,273.403063535249,1003.46738018054,2302.16108385099,320.190212143803,297.610731623497,1950.13699785662,-353.461517354498,167.71103321987,-664.372080190758,-1478.44843233568,-861.059716823422,2114.90397108101,-1373.68482378278,247.754802194747,-709.277597249041,-1351.39695445724,-1157.82201652419,3118.37743567419,-368.450415936254,1213.59434987168
799.061882105856,2303.47203778983,550.793912276639,1422.88149030921,2653.09552058595,857.518374515409,1037.07287406218,2269.13459444776,1211.9135015875,2012.41821278181,2411.76462158728,1740.78919037629,1937.48350353062,2232.94593510049,1198.44422837429,1132.94457329048,512.57067714193,700.299753967286,768.235828967051,376.645763570591,438.839862221442,144.166218273176,295.299490922229,290.79118161126,130.188863617298,192.864333546394,106.266394704707,126.29111829234,176.849831201017,143.292037745796,212.386733440901,225.192265848701,307.239817479134,152.825627778975,262.48445877303,289.75029748524,298.600173607492,341.974765637689,257.280759696702,330.517024476001,387.290940222655,394.569960898126,543.42979019552,530.679666256061,342.274677759937,994.260604628275,1707.06534703365,348.873650610089,196.723357251538,1753.18368018748,-143.06678318193,352.782428230928,-251.407059964838,-1247.37414679078,-189.232079734108,2410.79386169942,-1274.37911739406,1165.77440572476,-658.387262025242,-1315.34153086179,-251.659599936722,3846.01330858256,-420.625709498827,2521.6429960146
1557.59756013434,2820.61840689949,1082.23168210261,2202.78547404597,3158.43923646703,1082.81651017644,1623.68532749175,2892.63344495028,1518.21269786342,2619.60320328424,3143.3975701342,1618.87157289256,2174.81795711774,2759.78001381957,900.280780310345,983.618598863445,300.709468563382,466.811878435511,698.480185094292,138.715230939576,282.656361373088,-21.9161389434845,151.333823278512,237.120990939571,-4.59985712274944,122.896791999658,-6.5875866713577,70.3476841230076,177.454313111174,54.9817953326322,169.865272876335,247.051717664076,413.592792132226,62.7512125487925,213.566202523951,288.548986545223,351.604118785002,448.144862583118,178.596054337479,300.335531628237,419.74176879753,484.252174667018,564.792596421177,594.324527725889,448.439607801484,1351.89448402469,2165.04394645396,855.200719596496,903.019308871362,2373.3426203312,342.210690518534,1066.74721303385,309.564888471815,-531.983727123348,617.703228697832,3022.06576272036,-679.864057284541,2174.53763097663,-255.592272267255,-790.34733758033,909.91085817881,4475.25169119167,-92.547099510597,3520.00751802895
2231.60637343876,3134.28240770638,1507.95385074056,2819.87458610194,3390.17149918815,1112.24719476072,2136.12253799021,3164.57540871697,1679.20240245131,2835.45142899762,3272.61040253787,1346.29678690102,2111.54257484088,2783.26165954563,588.902098598271,767.635672658272,137.763673468096,256.79573546392,584.933173367737,-25.7117623517843,151.099217007669,-121.351542533097,36.4298577233155,181.910949983492,-82.4427890902369,75.5742652150654,-74.3993359522974,51.8196674251836,179.382319189573,2.71599587657089,141.802650068265,250.514948047791,463.723952467594,11.0893213476275,173.23115233209,279.93624054865,372.854657174671,497.113979403102,126.386960893335,274.47532313426,422.398682889194,517.753162382312,543.324387037817,606.016899559078,501.17267457465,1644.34259887566,3032.93943075079,1390.21368489982,1864.90475151379,3215.24852607816,810.654816165755,1927.96811948327,761.82766025904,179.90129568109,1282.65479663331,3496.11301413624,4.68707235908816,2893.26418582938,264.987557506817,-148.52996006142,1816.70694103063,4857.95842944553,363.598072341187,4127.86053124815
2309.77371787214,2909.3037066232,1613.53228671026,2684.75565279908,2932.46128619524,935.892048785716,2095.26804447999,2603.10254518608,1504.8089646067,2253.2652531174,2324.93658889771,949.587491650549,1587.77070538105,1954.40175919394,350.704425889552,530.562716251165,78.0415685551655,152.268682432248,436.710717458256,-45.9438237035593,87.9511997754918,-113.400817562845,-0.843586962044513,135.114866060611,-80.6669544424145,55.8817088893359,-84.0030995515821,38.5261674056881,152.975908293923,-9.79597358008047,119.612487832994,214.157968716768,409.993527376053,-9.03570637996049,130.559035659014,240.053597856789,327.384199182816,447.438400339476,83.4265261319741,225.977938263136,359.689625502038,448.278897962504,429.917962239814,515.409520882443,451.637817596682,1491.0664803074,3114.9807670437,1477.11354913855,2232.28111205463,3308.40351504588,998.574534734224,2333.43773328194,908.641516672532,583.152436598793,1684.90953151663,3337.74273118041,384.189449484154,3021.49306121634,576.8793083808,239.33352580587,2157.95205029218,4317.67068908972,595.6074862105,3910.55566088542
1736.88336425384,2156.84413873979,1323.19593301822,1883.15606887614,1963.60442617209,672.872349757049,1486.63035096094,1463.39979430628,1031.09534875097,1163.72542177494,851.561439832667,538.567369206746,803.066533295026,697.67205340243,190.981040445018,295.183127037623,73.7790079407173,116.474033387193,269.376204373378,7.97077665211008,69.6073303941139,-50.0655667479081,17.6013825953616,109.629876820808,-41.6943824891184,58.2056715769033,-68.195072126102,20.3296324849976,119.555387978803,-9.88233915135196,103.128791745994,176.063376817792,330.613542220358,-35.3766750207812,89.237567777101,187.320333056776,261.1765961286,367.516334564405,29.1382420724914,156.038215612371,273.624905067258,345.947272587057,280.080622605254,388.85682506341,368.066006198213,969.009723012026,2232.29519340704,1095.88547344409,1886.88828999598,2495.62865896665,877.92095557585,2205.66320967419,787.513003765964,749.552007802515,1879.12845769707,2656.16063212922,501.09881771669,2674.02523903551,664.131877753887,366.147566364643,2041.75138829587,2916.90585003537,608.48320017686,2845.00939425939
953.784398418729,1256.26454919154,757.611805365182,968.335530993035,1026.91265749102,333.379404575815,722.829210707297,413.946623684944,469.660834609145,210.377471339072,-222.801333367819,187.367034211307,152.558994582975,-247.847072000422,88.6817234928355,115.239276331997,74.6708338216678,94.9648948255432,140.099532030775,43.0493369580925,61.7930058046852,-20.1987980919132,40.6487307242751,105.827481533198,-30.4512791068463,64.7984739697542,-90.8543310249208,-5.03002833978895,107.341844933074,-44.5615166205135,79.6213884458036,164.491802098303,305.195312761862,-109.671848306782,38.2599243162758,141.229486847753,225.314718949238,333.054604190287,-52.5349487970912,79.1436483343023,210.5129881477,289.230140536186,172.41280079693,305.263310544491,330.247568180529,548.812623405881,1250.99639059002,713.466728671991,1431.89709639259,1514.96757768598,643.926664132157,1976.52133530048,533.054205543157,815.729249559083,1966.45456465622,2085.53123374333,493.623575985629,2298.42238109699,612.421638550638,369.999786553782,1854.11725812045,1845.60983616937,573.002452462505,1912.02315817872
266.493946300634,492.002055910299,92.9495910835592,201.838303512691,360.423052597774,-151.804638090005,53.0034208628366,-278.894228507082,-60.6797916249029,-389.663041315285,-673.906076129266,-169.278225047019,-252.690092628621,-683.860270217054,-25.6453322607524,-14.698674537812,30.3756144139892,28.6779084236732,36.3290079241405,2.55171342406512,9.2634260061957,-89.0878095516884,-2.00779102882589,54.5145223722525,-104.797723147166,12.110919711263,-190.144705010147,-73.9674103404396,57.3328625798617,-141.763352060917,0.848054118510895,110.819739458822,257.968134313499,-229.66396095191,-56.9099706464349,61.7878756219073,164.513779588254,279.27059956101,-161.479773554078,-21.447607321948,124.895111046985,218.748667364924,78.790593720748,219.296322164884,275.844715571322,491.791206369052,874.835221967568,656.277951555715,1335.84949457392,1054.50270251027,479.856773907314,1939.35639122856,245.003882290063,795.572020099802,1936.09051562904,1937.77301601531,365.406367937292,2091.4655069105,411.305146189771,328.180198572748,1707.22204974207,1723.7871021777,462.685929904656,1759.33153122421
-405.24417236923,-139.40047786414,-594.513657987038,-515.808900386517,-183.991322111372,-747.686345324351,-588.106827269563,-816.40383952353,-592.151238100952,-882.544970737848,-929.370324582085,-580.945063955221,-605.514435865843,-970.314032820259,-200.212575501157,-168.104520861735,-88.7223578786191,-108.681125870114,-117.48299692732,-106.13031952579,-114.752730173253,-227.465548032647,-130.330030568705,-88.6375111007024,-238.375736748158,-122.408867884343,-312.390151969756,-188.587225054022,-75.3488389622355,-253.432295810949,-130.133200956078,-28.714943991423,103.783118827672,-323.695857549153,-177.026826517475,-71.6268957704081,20.8370876986408,122.399427290242,-254.356579842395,-146.607096922958,-26.6621111917102,57.27290514939,-63.5846583836071,58.4601929203929,120.413954971172,543.291285336627,910.720614614128,692.466934827456,1388.75809055549,1068.6070072645,370.011403955579,1887.83262472317,-21.6531828101869,654.958969844036,1678.19078726339,1867.78003126602,150.371373954972,1827.76752843264,83.0110487046588,229.092719121057,1322.877692825,1794.91332260375,137.101449223397,1795.06061318356
-1045.63737005815,-580.456200858358,-1169.57816411865,-1098.52414996913,-590.046980053829,-1234.4684232548,-1117.56625680174,-1201.43954054656,-1024.76253614302,-1285.54792416453,-1105.8412926772,-895.708259644416,-907.038894559616,-1213.71545420044,-353.683704546589,-307.749290018085,-219.023437290086,-228.852110456851,-265.302975928526,-196.068612348767,-217.126390237373,-315.868471827935,-240.916409736955,-208.988975020601,-307.964931571812,-219.957687880008,-345.567578615803,-250.785677390807,-170.077452186112,-273.335393536702,-191.284430132899,-122.046004768499,-23.720012866716,-305.250229281667,-211.234364226391,-151.028093292033,-87.7410340938093,-12.2250613526348,-253.292748068069,-202.4512959628,-134.387994619637,-73.1380787502217,-174.201605399217,-82.0997120753635,-15.2495187866581,486.32027882304,740.487655095781,544.746717741501,1188.35658245035,1010.19927740082,262.040227605714,1560.64524052884,-203.996026434164,430.858416070024,1211.93752872582,1535.52502701826,-31.2711597005316,1360.02243026734,-242.095094066477,23.4747789322686,632.585583770573,1343.56664956853,-356.444917918151,1345.31228581184
-1389.12444380563,-653.658622690414,-1407.89885371035,-1273.46988979196,-647.769213330456,-1404.06531942038,-1275.86761967999,-1189.47449420794,-1149.32945969388,-1322.81311814501,-914.126161625249,-956.543095927862,-952.547781341546,-1136.06249145209,-404.66835240714,-339.444770477258,-287.784328852304,-256.919395005084,-293.979053336812,-221.829080317928,-219.862476701696,-302.952690741426,-249.372818886106,-199.171080095353,-269.111146948025,-187.305277265237,-270.533086547446,-207.098493966201,-119.414452244478,-185.242523616905,-118.372068120337,-58.739244525682,24.381923317853,-192.522554389802,-119.419757091149,-91.8881751381658,-38.4928905182723,30.6673412831594,-153.835990030166,-130.377533054088,-91.7328305803851,-29.6380488407311,-145.838445201739,-74.7882915179684,18.0702110035521,567.036715761671,182.780994004356,428.860637453776,834.651015552367,565.569971676398,292.032980068975,1124.40886553006,-146.553890533279,278.364995277625,796.412656791913,1083.28468072862,-48.0505754215778,867.822797662053,-381.226834387375,-203.49323498499,39.2680003775707,595.402771256872,-757.797448648173,651.721305787335
-1361.6719515305,-445.708407402477,-1299.93153702805,-1081.30900000831,-450.012590164202,-1300.36262303647,-1108.11269113798,-855.894505280125,-1000.50761506895,-1027.85908158055,-430.720274333716,-846.158016252902,-778.509207661271,-748.98095436095,-408.889963864859,-321.577112908495,-331.099286188627,-273.204521067,-273.370401560895,-260.583839158418,-218.153236258084,-288.70397291629,-244.329697428925,-167.230149152327,-251.24252414884,-150.325379650594,-222.979702487096,-183.290627907432,-64.4264203739789,-141.284214422795,-69.8268409733526,6.54144516641732,102.979783583467,-136.803380968312,-64.6766608426121,-38.4936022264318,26.5369070568188,112.61929310788,-100.054156303024,-76.9402970605891,-34.0191197020423,45.4544154636921,-96.7169693344036,-33.4497748985418,86.9934205843569,974.381627904221,-351.281594589432,652.048831971163,746.242744729008,43.5174371945589,579.457411350019,942.856936379764,235.182913027713,370.246491108892,676.370551972667,820.964566808363,169.111333313264,557.595997766771,-213.737065140711,-214.562509449935,-126.871100268311,10.8093292708884,-840.978423694857,299.935549948094
-1188.37593738805,-347.665618213395,-1067.15589005699,-876.638864810947,-374.017617734617,-1107.18517833184,-947.418623867071,-583.30449039331,-824.237638827453,-760.842299567031,-131.376759276451,-727.134506522209,-631.747656785797,-436.059471828698,-436.217696372436,-372.432356482586,-400.984933262049,-365.383031648366,-345.644046300067,-369.180055921398,-320.125348148795,-362.483528309418,-338.553142094997,-263.310660960537,-363.862164337445,-269.594723826544,-320.585553162945,-310.886543932485,-194.889781177813,-272.352216248058,-213.906868621782,-128.671211677278,-19.6228944077591,-250.401574399426,-209.109081163758,-178.610341054141,-105.180726223411,-7.30074658512644,-225.459815015475,-215.361857157919,-160.453177690395,-77.3197421711882,-222.156957866778,-163.14203430701,-31.4858537243425,1307.16418407285,-483.046042821614,992.758710093626,963.93323704847,-106.147383184206,860.677346194994,1083.78171062609,641.293091456923,639.874253342064,797.58722110783,846.553038446274,484.564472967578,437.252894246157,160.73428481462,3.47998173903495,-36.2717569341145,-254.790521139446,-635.648087439085,432.814089283021
-1041.29861183554,-599.615133956838,-833.673633467048,-870.548956749597,-565.739596257031,-874.522092132715,-945.98983363429,-539.276475874005,-721.219615131945,-657.615129163073,-183.673955617633,-616.150348670223,-572.219288692794,-363.583775214068,-456.357999048836,-464.576660173415,-448.430110996149,-471.035326823017,-476.412279801784,-469.843970417215,-458.328076669688,-451.340861453783,-470.713485821348,-433.168561423527,-510.566010937279,-466.73388072612,-471.275080427941,-497.925001567161,-434.72850041084,-466.779127804643,-445.025347937479,-380.194690103317,-285.242600169077,-421.709973741066,-436.870137316386,-421.191920399211,-358.849217677667,-268.893223594992,-423.575682836661,-443.466656434898,-394.384507693319,-326.051671500805,-444.449767079977,-395.667840290107,-272.672941097347,1030.90358563558,-353.170768653674,963.085437141675,1064.6281157602,6.25465697968951,679.584740294177,1245.29729353673,581.889728408887,741.08354052797,929.156305409284,1017.0876018585,582.890066150902,363.057776390827,445.337170420306,84.9928046491377,-25.0046493501702,-291.207705640133,-414.608443781394,694.082077008977
-893.876156057722,-925.681225641747,-561.51014797428,-938.329079212993,-704.964742429165,-534.333483017803,-948.571531370954,-504.609084425369,-568.58662834836,-488.141415438945,-235.176380006868,-445.629836103124,-420.566255112438,-281.479672574398,-398.214187097788,-452.714900755475,-373.534542000863,-454.143823424367,-490.799245082958,-432.323055032173,-471.498935974045,-397.580580655833,-472.145824545613,-490.298079617187,-488.369811219641,-512.588822683844,-449.476137608453,-516.582342897747,-530.546837465913,-471.9477699488,-497.684855443696,-481.216354958819,-424.087414093055,-409.982675550922,-465.16792674552,-487.028349581246,-461.014133892326,-389.741436594507,-431.024473008724,-476.395139438966,-459.698075214525,-418.633884077473,-476.689178599542,-447.222164605042,-374.662280215157,222.582375190697,-309.640072209934,524.649373997618,797.761417786011,-109.4797410034,-10.5577071370757,1122.82190815502,-24.7448003338049,459.058159821789,962.869820432959,1005.16767170586,305.506457250379,163.689757076287,413.24196170054,-152.872638744985,-95.8041245002621,-433.564699777984,-379.270258922296,568.072497562334
-675.208167023181,-770.837070582908,-257.192724667634,-799.347233142307,-362.541895633457,-102.474979972982,-722.594683597185,-163.969588892091,-235.436602673402,-31.4041980295651,84.5934142932194,-180.980861577124,-32.0501222276939,89.0101094075064,-204.949430961793,-214.321578995392,-114.548640490702,-224.91266493088,-253.737318422202,-183.374989666,-253.283702900959,-118.953146029834,-242.382330982381,-306.912588524403,-204.258011803423,-287.292598354621,-149.01874047968,-263.611310317928,-341.205454309841,-183.239088974472,-254.40612938624,-293.705697936876,-274.920042718439,-121.773847411817,-183.654225721597,-246.9353524451,-270.925827126219,-217.176070939319,-143.693332639965,-194.473087536626,-219.42881104867,-212.415205969728,-183.486753280423,-178.049690205007,-199.288021369614,-539.144028592109,-438.034916317702,84.7443356788326,359.112078939571,-562.902555902187,-729.921117287745,719.724369603128,-726.641176873995,16.0555584828296,899.70976925504,441.416174801796,-116.611752535133,-268.566923465718,142.295033417205,-327.677231874084,-107.857883847462,-1061.06072820929,-354.225662422319,-251.870094453065
-361.684801321764,-22.3763406851215,38.9887663227287,-312.166798244595,401.853997785066,339.377726818646,-183.600127542348,492.971202842359,256.72733363282,618.39394600779,686.339479136686,174.751180310744,509.902599243038,672.964580340056,126.618818953078,219.313878506208,281.935779494087,176.52910998878,185.96491852853,218.539887374585,152.186471022616,304.857056153944,148.811737112808,73.6659111265959,227.29617902234,113.910949615768,294.782962362953,139.255122171658,41.4546489331141,250.571189488459,154.822444773665,82.7441773520144,80.331319105748,289.541530792888,243.629093815692,162.411622029416,102.996963549732,146.971428539349,269.332194015959,240.549700340939,198.131652147241,178.774166195013,277.020717087431,265.299159744505,161.888633503251,-881.625588104783,-657.254381558431,-148.869910595884,-94.1394989786074,-955.143969194673,-1031.45993194225,172.321997889167,-1062.88560262896,-236.321359316328,649.124766625446,-710.135789317505,-316.399821440363,-941.506450601339,-78.3229362233505,-103.696893620108,-236.97280120038,-2065.88287830918,-36.888000476527,-1529.21464102241
22.2317634507725,719.894890495897,379.21902167921,290.50635444798,996.504172122878,760.356554913411,458.944517995287,1051.59622573382,723.182047773021,1111.47177959226,1114.66004236369,525.617709836624,937.844992525635,1084.52025455579,444.507700186945,586.204623663034,600.84626683221,510.668461487499,538.069879001102,535.147684718167,487.092038644759,631.327625011941,452.765153817061,388.755539530773,534.844219403509,416.472557378823,606.436581742332,431.332914152431,335.59640413664,546.164222012472,444.191582326108,361.297198592991,348.234234832984,561.677498121869,527.964173552958,445.13865726598,369.898188310103,401.883951548779,532.561009417307,528.882535085282,489.445136538705,451.385038396667,581.495576334658,558.442000806684,418.091159495418,-886.017572374013,-813.461442047735,-339.212053523521,-587.183579218376,-892.9321023542,-973.961346495706,-454.348029915083,-1058.01971578495,-307.877850317831,114.446171383526,-1832.13862481337,-320.852207074708,-1630.74939118554,-178.256591536772,163.458779347295,-693.812447838549,-2622.01251467448,400.973510596424,-2403.13537540664
344.817214973676,856.084351270087,732.484238817954,550.574836943157,1001.43375938729,1062.15351363732,795.954020782499,1084.65502780253,909.630822336736,1160.7742065198,1053.98974420678,643.570694108079,1015.61105437652,1026.51458759202,499.832311297897,583.464226571117,599.450506794138,502.165554707621,499.888095941151,515.777707806847,463.689076078059,634.461883771812,433.142230821382,348.311984121464,505.081283530519,372.428027976639,605.109050691302,413.533932981057,279.62261131383,513.252719679511,384.588733864197,274.638052587542,235.057258300445,545.41187999088,478.869824776532,366.213155657193,265.177201300733,257.411339888229,497.063080288545,463.212855303311,398.301961888212,327.159651604612,497.070825138889,444.720890814235,274.783344612308,-768.640269421473,-554.339796026223,-593.482602033064,-914.368506274861,-318.99982583432,-962.990893193324,-973.982009237119,-1132.49588719602,-547.92487712675,-621.611122132128,-2045.0216591564,-613.621026215795,-1927.75350733767,-467.903356062513,-135.262811286436,-1216.1998132771,-1860.88896608564,337.160625850259,-2030.46632725013
433.923549243504,482.59854331169,857.486725873951,343.825345242962,602.740293703268,1038.26806643106,639.33438322797,643.662906105708,700.034447226154,814.184452305451,588.993467472477,396.16792942862,731.935403038323,562.95924544855,240.951354968869,215.297385370382,301.631373510639,173.557402629127,111.060169412159,203.371477195448,113.40764965815,373.130231308208,142.713004032402,-15.5499703592512,223.508120690326,41.1770435336576,383.932236609708,150.648279988845,-78.2035978408597,246.262060167451,49.4125304375721,-121.584551629795,-220.279770790623,343.052709202745,186.670230692399,-2.56969485122581,-154.15048352572,-235.277214928023,263.082267854924,130.462609786714,-7.33158524836291,-133.694566570002,115.824210615597,9.45282118657396,-216.987388861284,-688.663061061789,259.616479054564,-850.794191608736,-836.480006386575,459.686311785063,-1215.73905173588,-1133.20023582997,-1499.05915909002,-1144.55556331911,-1381.5758912097,-1242.53089098911,-1389.00219846624,-1700.46023775833,-1117.50623412217,-964.396998127965,-1340.14175395401,-16.8367473484634,-476.264810314103,-571.037071740512
291.361280817198,63.6079209370055,609.359220188529,23.6312665438563,163.099284707011,651.175143673565,243.051712302234,104.249154176675,259.532176481239,355.114212747355,-36.3458005466746,-32.7239096752122,268.771974987046,-44.5977132131156,-108.756532796078,-221.29021259279,-22.7682780604485,-181.277369049718,-312.734711861547,-108.735663501415,-249.54131492664,131.529801155904,-136.97125557526,-379.527953539759,-22.8655413705867,-275.054347119802,191.391787104707,-102.544239638128,-422.551307108284,17.2581822098714,-252.912800918378,-491.61201656556,-660.807381570431,180.75840313463,-71.7402808343861,-343.192694262806,-546.2304462972,-699.865706250373,60.7649742635566,-168.67184663228,-386.793805479282,-569.432839231465,-236.377684318419,-388.521302010066,-676.140583057229,-734.465946257498,1065.11247394552,-1079.29929901829,-601.738302908575,949.231657398696,-1452.37276586457,-978.235485293734,-1759.76702055547,-1762.95301319873,-1886.21099969488,-298.120109317221,-1996.45467037236,-1175.67193588414,-1714.53743091233,-1517.28277734295,-929.582656688847,1601.49263193258,-1381.92535436221,821.374310495417
56.659014665734,-227.225381252465,154.496720757923,-169.087875057433,-218.517655246807,144.153325011197,-70.1605587927073,-345.395540680586,-132.886012932246,-52.9092717319639,-671.121107576905,-355.924032212239,-199.986309644018,-615.584329328412,-357.300590920592,-517.704486764459,-214.983466147341,-390.646409040206,-584.494757078057,-263.305804213805,-441.230284053,46.9658617651012,-261.720079537611,-542.919126662225,-109.475375135728,-407.809772439341,129.767016540225,-211.324481712267,-554.72282761559,-49.7841352319596,-350.258432515397,-628.207805861751,-836.4884608727,142.917785993564,-155.404255196201,-463.008567911558,-691.432911797448,-874.884082805126,-3.72495649135635,-262.142230358424,-524.565103856944,-740.179113649093,-365.236472182147,-528.741481128621,-848.615141527655,-822.885095162607,1159.21580422729,-1180.51240873019,-607.03718598204,854.641063841269,-1213.35821351036,-805.446052701819,-1372.98476161126,-1819.34576211737,-1805.79478510958,12.295960318773,-1652.58511302484,-595.631985572226,-1652.51112371761,-1127.03008555806,-269.001532144846,2049.21252639868,-1448.34509093842,1225.47943613571
-159.106545457362,-434.455991185563,-217.550330664306,-335.038543196815,-525.352060779404,-190.490597355898,-262.936356142895,-703.680074162871,-341.129616021802,-422.598816679705,-1195.34754596193,-481.891766085791,-586.83790818151,-1054.36117324237,-501.752085010162,-687.109925113124,-324.866387440268,-505.743071381591,-729.697372467871,-337.357483034031,-519.776729146551,20.1205871509847,-310.745718487961,-563.51675114835,-133.614280864686,-420.467802840244,115.859536384093,-232.061307010009,-529.264301468883,-40.6635570025327,-322.033782023258,-594.136207240267,-791.326231434636,150.516425485618,-137.75046934448,-426.546460670369,-646.970305656885,-815.272921647294,5.45945750914473,-222.640531688392,-482.501557573009,-698.029134345742,-329.270762312177,-481.931485581696,-797.303914739144,-765.003490215497,632.508195445477,-949.315403527716,-784.559194095363,282.544336936445,-492.554980210246,-852.548294726597,-419.146223897784,-1167.89635976598,-1255.49615603042,-330.864354915478,-529.601714233652,-198.863331391504,-860.564402726506,-141.41561711548,215.464513104917,1554.28362372185,-604.778518501048,867.037371569146
-192.151752161406,-407.140994016043,-295.28415047406,-394.78782558751,-587.047129108092,-211.128220703679,-336.599412819997,-815.803858480719,-349.011962372392,-655.855980529527,-1442.61782329506,-420.095648175344,-784.739011920712,-1232.07223502798,-509.831133753447,-712.628499689303,-333.849188256141,-506.051576902083,-710.808754858513,-335.579940678329,-482.38841249289,23.4606932648506,-284.846635701637,-467.33340524166,-107.654631683499,-330.03012748072,132.560116675715,-167.22088454411,-390.158342388637,10.1815632118533,-218.974629120598,-437.300427571611,-591.856582625982,178.136375547248,-60.0125086506503,-292.00853527547,-472.293390523455,-609.523693305747,55.9372733947132,-117.335775586937,-333.542118983338,-515.995298774685,-197.819193623747,-332.692441521621,-603.951310359943,-555.131485637187,228.699859016769,-419.883690388245,-764.068618888521,-350.889270422308,175.235683616217,-1078.82558120404,452.321975318015,-283.062194351774,-727.68636050211,-923.593644937384,474.154997280988,-50.5806115508336,89.7334156896484,614.868875072327,463.165929999061,869.143242943305,333.027686337398,628.992451692615
96.9779634467783,19.1440089536011,-55.125538812786,-63.4277255219684,-311.141218149239,4.28342867609227,-122.634312295771,-537.079085885753,-150.879223692444,-581.624913542784,-1368.90114109136,-154.620471825585,-697.538930163055,-1098.29049404788,-269.22270863619,-492.358029572251,-121.218422898313,-266.324422752216,-422.091827609561,-130.853250638382,-214.650823631157,178.136870613948,-54.4771019875853,-160.766601212825,89.4882110470939,-44.9625751461848,278.217736126467,73.9487477881091,-74.0460123169386,188.974243325083,36.5078165481796,-92.6068828152,-199.294147006863,297.854860115138,143.019012060214,-5.29903202530815,-122.081980153058,-225.47085137632,205.528048513701,103.030517707015,-37.5248205196918,-162.817242571117,54.0938951105655,-45.8453179920678,-228.763154399927,-380.600348702187,377.107091953828,64.1670852777278,-390.435645966399,-514.870191318705,395.720822890484,-1076.09472269651,798.113653528758,370.479656885634,-333.192430738929,-1229.95290565186,920.559270590578,175.89632814273,675.754680479581,1032.06834349542,816.937545285865,411.037336787124,835.200695792478,858.203409499963
455.402540012327,550.612265561506,255.545951893951,460.644647127418,27.8897204099279,197.040894784679,323.751139411095,-150.762865813556,152.194448262261,-346.528240215094,-1197.17677211245,185.127956984315,-449.486817096921,-862.286141409955,114.716050933484,-123.633496270134,221.498949628201,118.049197764985,5.07853381397689,210.005305138203,187.135758163953,446.691650667647,308.220666241381,273.003803356709,402.372895866652,352.195062276361,520.391108168204,414.376348112411,342.622357024434,459.856952664301,389.434024137702,351.269321860963,287.89501832142,485.414595241998,424.895359650049,365.033327045733,313.815120646506,248.789372883393,418.27171678612,392.881583673384,334.386716226568,269.515571799255,357.130655608031,312.522578131242,237.89431915368,-228.510415877042,718.687148317235,314.41882022975,103.752703036723,-58.8363112580577,436.090304197374,-601.352907262478,821.476025597889,781.936589821007,82.2004168253183,-900.629294278736,1110.36921209673,574.184561823745,920.239238934838,1495.72451603549,1295.9420496228,65.9750003910562,1100.70350967311,1003.36213466423
402.454751791946,675.18061914343,302.427842612564,559.577065123951,38.458512612543,173.113343393578,549.498190187444,-121.746304087357,312.075790314856,-333.264893412901,-1199.84576437146,316.251574488822,-331.002059133157,-814.342426673497,311.093008547744,87.7942134175205,399.952625232723,335.430256875168,243.886912968905,405.28777720649,418.443626771734,590.476666332025,513.865268441906,539.683187684305,583.502069594615,592.7211111398,666.565151724431,612.699654860685,607.64896171665,627.055188680116,608.995381664276,622.3039579296,588.900544921343,597.036761210315,599.225649178702,591.93303674025,581.602650189061,539.752317419009,546.65683902328,567.062588226133,553.863265046375,525.921060734049,521.532911699996,517.713999662258,520.553748702147,189.10117340141,646.852854153425,493.57727204039,329.399600751026,444.612179582525,753.533556228609,-164.293344401021,928.746358917877,1035.1313960643,272.935027472336,-226.281236068988,1233.50188553399,643.724126117135,989.583598843833,1813.32195047315,1446.45225063456,-364.081500362609,1259.90539302134,602.285320368035
-135.317331441379,309.40275420836,-7.20764827519953,70.8899278532413,-340.142408015042,-31.4429365912733,246.045638945801,-518.484731713526,145.64124730457,-665.680997599904,-1420.50986718309,118.201322489006,-484.692177022425,-1019.82657760542,172.061829657972,-7.01077821688175,300.736605605783,250.272284470231,160.55815271487,332.320320094454,350.39432444178,504.159138030855,441.322460241885,491.411831167969,530.496830007888,554.981778611591,623.293459045633,571.415096083469,587.073912957936,594.931915836167,579.651299235591,584.222853435044,545.366652529919,566.640597423626,572.49828156796,560.287288360798,546.262261483523,484.767661679591,527.496596289234,530.658315388858,500.695137298899,466.463147696922,451.667688324685,439.241066445618,462.907828693103,833.855346352661,71.502250425453,688.083402380529,177.868393471512,327.070971008353,1204.69003086921,-305.657190184761,1095.59262208871,1002.55392472231,-41.7720258294601,195.750541212773,1054.83965181777,87.4415660087077,821.427859859084,1473.00831410755,1118.04736897645,-697.222833646412,1078.15085689717,59.3828241838005
-750.117893744048,-205.527126424977,-483.947178387109,-547.896567360738,-880.700232824593,-298.314846591487,-377.212031140843,-1037.81706142227,-271.468069107772,-1133.38778624291,-1728.18950039386,-240.525154605539,-799.784294081548,-1342.71611797747,-121.151306061255,-265.275033190411,90.5045790226489,17.4109345769522,-87.5915391368746,136.832435774561,129.39209048421,322.015953491124,246.521574780123,262.81679498109,367.854494703336,360.729185457557,472.265840809049,403.693740426185,382.478940565621,451.067298435817,400.275888917445,356.201438154091,273.217389047158,453.652226449178,416.539858803953,362.080994046422,308.715429050345,197.647037231633,418.849821245442,356.486352502638,271.770414183127,198.598401325962,223.75956499731,169.810630228433,182.502736885053,1094.73254698246,-650.153300575334,658.937947397741,-85.8885484120248,-398.174574911976,1234.46108988809,-676.871680440032,1037.23113966518,671.121811845948,-504.170474515242,191.884451084082,595.090886131764,-628.721809651862,488.097148511503,733.675479841455,682.399246278685,-623.869732005888,590.859266175802,-43.969952532285
-1010.77908952492,-567.653855382557,-805.341086199008,-844.102871359866,-1360.88523199257,-509.344372779131,-839.849701192118,-1380.24792034227,-635.741179679647,-1449.63982054593,-1937.86253208658,-516.746164158396,-1037.75131488564,-1583.00635779469,-341.045070902264,-469.257558365533,-50.9903453596019,-167.679595602847,-285.237727241513,-13.6214953862281,-56.1497069261238,191.15182402592,108.050971774021,66.5383220436166,228.478681873979,181.692987122805,317.68575351303,245.890072530004,178.729925141417,308.916881352243,223.588880294589,143.794369792013,19.0614059473166,326.450118606995,248.023592522689,161.597409892718,77.7816577031582,-58.7859659611518,287.799893130925,173.68077899497,54.5791002692159,-44.8668035104777,-0.930070608942285,-78.7751354164576,-66.9901726437422,604.801359211853,-1244.88131882431,268.236631150685,-227.095686698317,-1170.78573762018,763.592804687817,-649.993483604387,779.213927499636,358.087639241444,-511.144811775643,-7.38684987696284,313.088886371743,-743.286907622799,316.278321776942,421.387479182309,520.917318128783,-200.292945754624,234.66725044822,291.773412712042
-772.907781480667,-704.653632691467,-696.930262612382,-733.141506309439,-1649.69967513663,-513.379058746764,-820.878220802048,-1407.94822308913,-682.47417687316,-1423.32987328816,-1869.23890966337,-625.845357741213,-1025.86574165557,-1561.60254838047,-445.196933151887,-529.492326272451,-109.058493034914,-248.08657310306,-341.394129578357,-90.7665131940366,-136.487558145717,117.939071556557,55.420200740329,-1.5004170740183,130.730091820027,94.6118674564244,190.36787545909,149.192322365933,87.0912957906221,198.969187133182,125.954010726365,64.8489297045553,-51.5970346691237,205.579780790541,131.954695012075,64.8610870256883,-1.65835456932788,-104.505344295165,163.129874244351,66.5574379000579,-25.1456832683543,-102.888592383159,-97.9253401253107,-155.15397321887,-113.786590558655,-142.983333399078,-1577.54487390445,-169.539061195343,-241.520473990973,-1495.39146592026,318.671406603611,-257.10577245954,595.395967873583,355.563824821652,3.97990659536355,-222.651043232828,395.71192525104,-46.5271381653427,374.799996959588,713.275803965656,725.426482523324,198.420233818983,202.068709476091,764.050852751199
-272.167392930319,-728.242834411761,-232.994300678045,-450.464190511751,-1748.82296760198,-317.22637075339,-464.403520061864,-1226.44674926305,-496.304958471296,-1150.07706442256,-1577.93663959547,-686.738772644026,-866.94821385874,-1336.77945832107,-535.505091988024,-531.534032556345,-177.754799313786,-295.992535747495,-334.337518900345,-166.691687061739,-176.748078910415,24.3102403327446,-0.130108318005065,-15.7058483712163,21.0550134740817,43.7931707127864,55.7707221950624,68.9687765308339,60.6744547977483,76.6004871945953,61.0457972429274,55.6103780558947,-5.59524015096611,70.654635597908,37.1579374817022,28.5623926016504,12.8428812418614,-27.1589487778017,33.6227569964656,-1.36741148499126,-25.5086294262221,-50.9900260575263,-115.693675840795,-129.857435953496,-39.9905728195349,-482.683562885908,-1586.75178396659,-281.072125384401,-211.610280191871,-1369.56531646956,288.175497096411,23.0972817010242,613.084083137019,626.626148884908,577.419123666537,-485.699041473981,597.66020735295,773.746797545107,445.915690534192,1004.44594907512,1099.8154044677,171.221867914971,247.431956993002,1073.21109097544
59.569158621259,-805.662543293865,157.495834607343,-312.689860259612,-1791.76992461534,-160.580981721051,-220.087424480042,-1119.44933424432,-405.302601633374,-973.221102874472,-1382.49850649721,-852.235466158041,-841.03755270353,-1210.78789382862,-702.604542215997,-625.362448953391,-333.40825669903,-418.500071108776,-419.982946059735,-315.359005035499,-294.474636998925,-137.823376672095,-149.375937291228,-119.953719957776,-143.921472329623,-84.8602634085922,-120.862847744222,-72.3724292484362,-41.4677113307163,-98.0356435575375,-72.3269111618382,-47.4672052221976,-62.0668318399648,-98.084431178103,-109.078524001129,-84.1439283793092,-69.6999657958953,-77.7114954249077,-124.32134496372,-134.73325259827,-119.11368014507,-112.511225897025,-218.477354630218,-209.996149320754,-89.6930826718803,-401.68485422822,-1373.53443116239,-108.213381692251,-170.804277588645,-1136.57742377626,528.718300625494,3.85381735054976,774.976375357011,968.652928514053,835.786916068018,-831.565030933684,802.092890104215,936.453501388165,499.592115016755,989.567000615346,1350.97954632702,-430.872461103165,202.662356953565,937.40240628613
49.2768348258272,-950.651275801854,211.252155741611,-385.863746159302,-1818.81830835229,-174.755060478218,-259.60861762364,-1167.88520283715,-508.501688728777,-1010.92513864091,-1368.13235801066,-1096.60888762363,-990.493962144652,-1272.04350878949,-933.729603165011,-831.640137894052,-562.882629591018,-639.026939489623,-632.546732115352,-532.796327534544,-511.717673364866,-337.166246283299,-374.875674804784,-337.813547792054,-336.43784770668,-296.586739807934,-298.249481990107,-253.750028312285,-241.798023851277,-276.884438234084,-262.537352202504,-258.376725950931,-272.668681513799,-251.809646126931,-281.822816945685,-281.314165710206,-280.64467713158,-300.025452890384,-274.178510110492,-318.774001764482,-320.226768533616,-322.940789471356,-413.341983670532,-417.506722058887,-309.037356550181,-238.572495502373,-972.642516474637,122.502565407387,16.7729941289908,-911.127968732553,728.246497651726,-0.410574086711549,940.145250537388,1253.40764185379,845.516967883322,-1079.12684676103,1078.70105190645,550.347887673997,644.216602855609,1025.9643675981,1348.53796255873,-1270.3550626646,222.461902196619,351.696876327422
-107.841702133739,-998.867298823507,96.8790362523996,-464.815864978545,-1651.07907133684,-216.70629683755,-336.782527605826,-1103.15007380982,-586.996316925105,-966.798054472476,-1155.76373418912,-1258.86451393244,-1052.09707517066,-1200.38583446639,-1146.67876955743,-1009.1719718216,-776.916066073542,-860.938481762877,-826.382435769121,-736.998961546504,-714.285451596812,-495.941076796973,-560.03799579273,-525.524722845308,-469.723765834286,-454.141260777031,-387.959946363554,-354.134465661016,-383.076313155161,-360.376304217936,-366.891969062169,-385.813385180424,-410.095918225992,-302.972602469279,-358.786724690084,-390.546370159837,-406.026023713515,-433.838835521793,-326.462382170464,-401.26868804173,-425.075841731737,-442.338823371596,-498.994521470499,-520.587786636871,-441.037089568188,-82.2149768775362,-286.439355160109,371.337130763816,488.235282925243,-544.803400232451,800.076603384103,307.87475840027,977.807897270953,1444.01040975355,870.394883663476,-1017.1893579992,1364.48953215447,249.71065694894,842.455370385113,1366.13103467265,1148.10034972442,-1767.76016953742,491.761006598107,-315.130729845056
-199.90156193225,-818.685280687683,55.6516629224903,-380.518597858076,-1118.34131462218,-141.909539902849,-255.093490676304,-692.250512763324,-506.038231903545,-586.120176264342,-452.651163566316,-1275.06658350407,-859.699133555807,-739.226757058488,-1266.14343708644,-1016.20492833087,-870.421135915049,-952.645861731444,-835.241139357145,-828.009418953909,-765.770579313329,-545.80315336745,-602.161927561613,-531.370569894762,-473.155948560862,-439.732311227636,-355.345395482183,-307.275897604041,-329.970186170663,-311.278142511113,-297.135477141405,-290.264892025928,-281.555597026149,-236.93947982531,-280.965833871837,-292.017628499462,-284.441726406182,-283.308757425192,-250.293464961763,-301.91720800288,-297.543578523702,-293.388612252845,-356.714650869758,-366.417289340962,-288.595425758449,113.038884323601,478.383702484227,630.211410982508,1014.54827032731,-104.181804130989,811.925514719245,763.717293928068,894.56827749978,1525.21785508098,1006.81994373606,-680.909517231126,1528.21306222673,258.568137737204,1010.21711684077,1767.96502569432,892.299082351805,-1632.48840089961,968.768491371849,-678.652006367744
-174.594751748859,-455.187801096759,100.060022324111,-157.56666577225,-310.50167324043,-5.32065694753517,-96.0542875935851,-75.6554675563121,-392.442502864591,-47.7496272318284,444.704114960748,-1238.46151863203,-557.874707253158,-112.302692648273,-1257.79602432917,-841.18305733462,-787.60759797375,-853.657530529875,-631.911824993004,-739.699882547822,-624.366642947615,-454.511418527383,-480.180531191492,-348.436051413945,-339.039176176131,-269.19520066285,-231.070310332934,-158.565235194167,-125.588787626721,-173.44353386234,-115.030824660522,-54.8075997148086,10.7450764991327,-115.263305742832,-115.474245566398,-70.7941593931312,-23.0260738716712,19.5978418206321,-108.481445639805,-110.700919058333,-52.7391599562348,-3.02011109390381,-115.724947538712,-96.7497621242754,15.0911920178308,243.007880483766,836.125829234061,733.632195603529,1186.2866548134,146.273599935408,731.333565542084,1014.0886251518,735.606526162732,1435.03378769528,1100.88563702672,-257.399431655719,1500.95879373887,347.218485782661,1084.84592845776,1895.26609604479,701.621513271398,-999.927979938882,1391.85339786167,-656.432970872413
-80.2526450830746,-89.1959023269082,97.8704175400417,43.8141378809321,456.097271572184,26.4863320444974,-25.5226892901799,370.13648327657,-404.607981315649,236.976036732076,955.871321437538,-1238.08782890611,-388.607432440026,213.717447814995,-1138.7238293958,-604.170194955826,-570.980568735579,-621.653042529924,-349.668685470556,-497.56492155719,-371.019852824127,-248.20555522449,-253.245274013884,-104.651011145946,-121.449381911304,-47.1951303516721,-59.0735460411407,14.0537877399128,83.2982512811842,-7.29278634607976,65.1171559600164,144.179099694904,228.388775895661,11.615826110749,38.1495930903772,108.699970154979,168.016268114319,220.865447694972,21.5349062449232,40.5033544651254,108.684300251971,185.667593896528,30.7375693054307,59.9400111624422,210.393778967675,165.787425118262,619.96741144833,537.467588773361,894.186145233852,119.857176740388,434.342401747372,908.48979210587,442.690377017144,1060.50280521237,908.105264658377,83.39411098854,1215.33257230006,308.548280380674,951.893963083478,1626.40948213554,525.65673149856,-254.89131420556,1468.486372629,-452.719870302287
-50.095677240584,115.435641205642,-62.6339934676732,51.2416950233535,895.367645511102,-139.448708045623,-136.865500862353,420.439364094664,-530.967258356697,102.436949077891,869.070318907101,-1226.4180358698,-412.711986339474,83.5227251536032,-944.103777271077,-424.915865894751,-321.972485468571,-367.799350119002,-135.750364641083,-214.443424031283,-126.326901022109,-9.71270333136707,-20.6246267508767,78.4298298399616,98.8272660914409,137.048388278148,119.232298049143,162.13602716069,208.842318962997,146.366027172106,187.008285891956,233.432854243047,286.003892314013,131.521853214639,138.270644527482,186.193095128489,225.357802838548,251.540313281834,111.749026638526,112.605555768225,135.985487995728,203.530845637079,44.7092882455378,67.3833624763803,230.847674447785,-133.649500604313,112.050247297621,85.3498418876692,313.801324489198,-46.1578297300103,-70.7413047434372,491.675508394998,1.79203288693797,406.100713248829,354.717103044152,215.874655432798,680.751316244981,111.733237637853,578.461571760773,1068.52834149135,210.905374174303,167.101421534416,1138.5127764515,-329.955769297727
-213.817697034158,113.561458904315,-391.435937579757,-169.831779156068,934.615254753578,-423.116598455352,-417.075813417713,170.531187736082,-636.376840947178,-238.63219334286,431.554899497079,-1087.03268199023,-487.085735002701,-244.597116470497,-674.748157520802,-284.868076310684,-89.1239098291921,-136.196994931942,1.47272588303917,28.4728383300063,64.8724948592337,192.567639262442,159.303155320242,193.393514912629,277.288128312523,268.793375785612,269.955958432805,276.201449152731,277.579775113102,268.9892572837,266.232373748974,268.922770764618,276.824691955868,238.993268744231,203.171385312774,218.351730780487,233.64355904038,223.21043503407,177.110787799697,149.686681315333,126.115554698029,163.191323586608,21.190344799268,46.497490503201,199.40993187275,-552.17043622857,-401.692424359642,-459.836750385743,-363.372546054678,-214.96974898999,-589.547191000462,-93.3521395933677,-448.940074067703,-296.958403611346,-346.677256422899,82.4631316084351,86.0816853896815,-201.665150591753,114.002571437058,502.134978865629,-245.855714916314,55.908976227974,628.739921004611,-404.110444022254
-577.621945118625,-102.139621831584,-805.133574953247,-519.051513714752,619.661893048814,-678.264391481259,-764.724662996923,-191.87549647588,-652.720961768858,-534.972570088524,-123.347866752377,-806.634323422812,-492.22131439359,-542.185684497759,-334.235452509613,-116.24257379812,143.308912385443,89.1720152839818,108.309011707512,228.826894502524,215.999096653565,348.531338187395,291.830365244072,279.826008937498,410.34472513242,362.421107498402,369.922537126651,352.783725363705,328.728034700104,343.858717088223,316.215525771402,294.417162029103,265.005555099417,304.159313358143,239.744075469394,241.002442323948,238.612911268816,196.514985891344,214.140863060058,168.624061000507,129.032087218315,137.66154824182,7.60986960648726,41.2151886931764,178.352709032257,-925.227185842765,-895.063448821829,-943.499573940866,-997.771824505538,-445.972102595552,-944.274006085759,-678.507532978764,-774.8759031664,-808.094313652567,-902.594454626881,-302.62381794483,-363.040515048102,-567.316341111454,-277.518909009811,131.611435979951,-664.96467324128,-419.488207280391,199.144351910197,-622.900682889832
