18.7040809831778,20.3714990553215,18.6315845452585,22.9088743824968,19.8640239898865,23.9963209512862,26.0987176509458,28.9260787297982,20.4439954932408,27.1136677818159,21.8214278137074,21.966420689546,28.2736107885246,27.1136677818159,24.6487888925599,27.6211428472509,26.4611998405422,29.9410288606683,30.2310146123455,28.2011143506053,31.3184611811349,36.1757225217276,33.9283329462295,30.0135252985876,52.7774068052459,34.1458222599874,31.9709291224085,34.5083044495838,18.8490738590164,54.0823426877932,40.0180337314502,24.5037960167213,49.0800884713619,25.5912425855107,49.0800884713619,46.5427131441866,47.1951810854602,43.3528698757377,27.0411713438966,26.7511855922194,43.8603449411727,43.932841379092,0.797460817112231,51.32747804686,42.4829126207062,32.6233970636822,20.0815133036444,24.7212853304792,21.3139527482724,20.6614848069987,26.3887034026229,20.4439954932408,18.6315845452585,19.8640239898865,16.6016842835183,21.1689598724338,22.3289028791425,19.9365204278058,24.3588031408827,23.6338387616898,21.6764349378688,18.3415987935813,20.8064776828373,19.9365204278058
84.255658422595,90.7900868160532,83.5491822889149,102.467392669386,87.4396755145167,109.439712778624,119.41553715705,131.743854407525,92.0765344530878,123.578984432948,98.1774407631621,100.677839599312,129.227880414126,123.723977308787,113.18812621665,127.509367237839,123.600385766725,138.734662762275,138.878199093982,131.783743986814,146.285497830735,170.058056463535,158.959265569425,138.571181640924,249.485137599974,160.208736715434,152.933768785534,164.611074638867,86.8285536966641,257.561935979381,190.174642885872,117.574888982834,230.056539065804,125.852144974618,234.043843151365,220.916608539646,223.070100343449,203.895967614063,132.369541666696,130.921069452442,205.506464405536,204.980501094588,9.72864129430265,229.773389206585,199.478054533381,148.200098987004,88.1816715950905,110.487269768124,93.232107827401,90.2811552064864,118.689116233726,89.3941662500739,82.0267570926098,87.2946826386781,71.0174943377999,92.6166163771529,99.5704482408778,86.7687193277303,109.492264426898,105.907332110223,95.0245739857387,79.2008525578891,92.0565896634431,87.3486908310846
145.035253521267,153.092727906199,143.308041706215,174.607602318388,145.452765140144,194.6255266554,213.177146193369,233.600935556673,160.979223856128,220.042105578516,169.129864860454,181.151530234021,230.995468289528,219.860136211651,204.093841102838,231.521466466029,229.113944164703,255.114098205713,250.745098293211,245.255459023677,271.44955397426,321.192462520569,297.735034049979,253.148361319276,476.159467057292,300.963635303711,297.1425050743,318.947365238167,157.038430649322,496.398118746451,365.898397786964,229.173883130299,431.975491045599,255.311202022898,451.910108101072,423.51535480721,424.908327419373,386.631717249887,267.727886713584,266.992442201368,385.725839606256,383.997536823223,37.276724757829,394.176226503122,377.484213918499,261.506266723355,145.1859622165,188.420898101329,153.124574507445,146.932718379493,205.332686893137,144.844115342825,134.706736559991,143.677330683187,109.553977741148,150.48173030757,169.004416332556,138.469198880027,188.924769552224,181.567184867061,155.752168500197,124.680542469251,154.571990619272,142.453589877325
109.180956051734,108.545537471436,107.591169808974,129.330065821177,102.50365137252,163.99489738722,179.359797508422,194.602629132117,132.088194438826,186.133387157031,127.601857747893,158.004739150668,197.759752913804,182.889901272325,178.826163256953,203.337827083656,211.167867540502,234.257743113095,221.130091813401,229.497315340105,251.404887709319,313.433810127967,284.61988891105,231.299908472009,475.020357548779,289.472659517528,305.625284996748,327.930781998662,139.031052835435,501.558265497527,370.482665158775,235.631691312557,416.454457187549,281.972302456691,458.496878072598,424.010673939277,420.035454024561,382.300594709195,298.274924551771,307.152583255638,372.728385804214,372.497497767485,70.4154391626329,302.727232769692,371.968157656836,215.003138881494,97.0710675009568,139.864362428747,103.044928160325,93.2075079528279,160.904096209155,89.5538039144887,87.7813456206763,95.5168470740141,54.2768714783204,93.7433787415526,124.432878023529,78.8467461591876,145.450318107686,136.947242970216,102.199808882968,67.1379361194753,110.728956775455,89.89982705795
19.3759185708652,9.01240055405771,18.7218955415666,22.1853279383399,11.8137478071403,64.1509547226852,65.9762875331306,70.3201698642362,48.523483201686,72.2809771064069,22.0304368032287,70.2894904319648,83.1422184144002,63.5524309346547,82.560303997148,88.0404608411074,106.955055785452,120.510759033197,105.576030081956,121.593892814349,129.800649163302,189.168394167087,164.275703660597,125.543220239631,299.027001115281,170.481994027851,202.885739255864,221.487891371597,73.2788082808941,319.637916997753,241.970260010931,156.484791130701,242.251064909879,207.136265315006,295.715707772964,267.977925733294,254.486869461255,234.333408877466,231.999832220981,257.40355737273,223.975208494028,223.824233882982,80.0923497731453,75.6055324036253,226.983128997576,72.7451452994147,-1.09398337584758,22.8238827055848,0.741774407242495,-13.2257216730292,45.2469528066243,-15.8377820376324,-6.12714739113368,-2.46676264289847,-39.692132676178,-18.2674870145872,20.2890926023157,-31.4024497062415,33.7572408798434,25.8125551602265,-5.65765492141241,-36.5152243917172,12.0325418961131,-15.4511249074111
-13.8618526808959,-24.4293920148104,-14.209175196083,-15.1079138485253,-16.1877468742583,24.997550467431,17.8428844181856,17.9446491152692,16.2184472905926,24.6944697201412,-18.1154607900866,32.6821168344481,38.0383314350928,12.9963426617043,46.013070217886,36.3645469844712,58.1636841070491,65.9687448069618,62.2646227589833,67.3163568783007,73.282904569941,126.377367931417,108.005425158468,88.7445911253253,201.444780748651,119.434063282865,140.539148374823,164.312214779863,69.9338108551285,212.550632545414,173.770218906362,119.350447261435,139.037965710455,147.4150932813,199.018574513449,184.079234611301,151.966385427504,136.711391316406,189.090000760726,221.229991051102,148.588478486468,133.733975986043,69.2281935148589,-17.2584305953248,134.609499534727,9.44166068513065,-34.3850825609031,-22.4472803104708,-36.6980199281089,-51.173279651302,1.5081652241013,-47.6571981791453,-37.72998156741,-36.4880503042122,-68.0537363642517,-59.4959171376046,-18.9431009496664,-67.3846290106151,-9.37412100074434,-19.681945242766,-43.0405709121508,-70.4890421835526,-24.9544843074464,-54.1657669652795
4.43495091596608,-4.02072280506947,4.81120229890636,4.85271470682022,3.12451544264256,38.7118197215352,30.9349417274485,30.3546488585408,26.0254955181567,38.7879163513007,3.74854955441916,40.4729496863845,52.298488167987,29.8327072028797,59.7077085576597,47.6431912504087,65.0345469565556,67.9191774136643,77.5488614268718,69.904656192014,83.4770565568503,125.487418655913,112.101033314008,105.456626004616,186.758209082147,132.932403401526,122.1605477316,156.594356429919,113.730129256765,187.399018555613,163.974274725553,129.363560905297,91.9689922342287,115.829760441782,169.733536592932,169.867411764336,105.401942698604,84.5716309378296,169.59088117577,191.547210637267,118.569701189733,82.3144341321395,51.6103237639545,-30.5908456552534,88.5144288001371,7.67717596127091,-19.4209177399718,-10.4546486299889,-26.6999531165925,-35.4731232909238,10.5596271796738,-27.067662108332,-24.6540547232924,-24.2342409817084,-44.6431029657793,-43.2659079978887,-8.98406345231116,-45.0768222463815,3.53755572720496,-10.1560058042035,-25.6409242485829,-47.7768367622027,-10.3960128831294,-36.6034215786698
10.6521022156368,0.373736036589007,12.2041745199817,6.80442053548392,7.34939635716724,32.925112710813,24.6244673354318,22.5746848687746,22.4544652048071,33.5073448512638,13.5101879201535,34.4201494452414,43.6998623484255,31.9401488170201,50.0421495199465,38.3302790030554,48.2960026168124,47.5567810627031,62.6575888922486,52.4233729386681,67.3198541040815,92.2733221080514,81.9647731216228,88.0869824444327,126.411362085144,108.359251336158,70.5058540336343,106.986807131976,117.011268791714,109.623410044194,102.816770012395,99.7636958177887,-6.5709160121876,53.0371111545852,84.5986150917441,93.5042888171485,-2.87367083382733,-2.31461657282395,99.4587060530104,110.078121692874,8.92120802058704,-19.7748462258847,6.35030048314716,-115.405454946917,4.02060802549684,-29.4460748710983,-22.3325004298415,-23.3516570638548,-32.3927730688397,-34.9544024080818,-7.87351671776197,-28.8933960682892,-30.7409349228909,-29.6938574583587,-31.8875153923851,-38.6977953787257,-17.560945335192,-37.561249622059,-3.06663075889099,-13.1767124242104,-21.7662973317491,-37.5464144961862,-6.91660665654129,-29.2606232452411
0.912942434628276,-7.33106621403846,1.54550739965932,-6.26264039503502,0.504110685300792,9.65933038776981,-1.01474929419781,-1.85263782577647,6.70986067548627,7.32741099578924,6.03628953147349,16.3788986753193,17.6189517085415,13.4941047461864,20.7451555472099,6.97023007802025,9.47767214780164,8.52613460655978,24.0752863029781,12.3490241267985,21.2672583027811,29.2229444953494,22.3115757001054,43.9888028191919,32.4562387216687,45.6885226872913,-1.35858720675282,26.1626792484706,69.3709349032376,-3.39799766095888,2.97919845888307,23.8216025259916,-101.600343800397,-28.1521719512423,-32.8446990137714,-29.8321045705222,-128.174990354869,-76.876947059882,-4.01086422261076,4.40322404739454,-128.075868369673,-108.777291651745,-67.8969563277269,-209.773215151701,-71.3317461180418,-75.6128148494111,-32.3034626534272,-51.721044326843,-40.4787110168017,-40.599742515458,-39.2233463824129,-37.9358762589871,-47.5816586065187,-40.1660324414832,-31.649400284208,-39.6227671021943,-31.422849861176,-38.5516691761254,-19.9865472496185,-19.5979087841236,-24.3316492721099,-36.1374657148824,-10.4699416206502,-31.2284203833993
6.526410571661,5.75195506897623,2.36264186197744,0.327823278069061,9.83217580851126,5.3372046027887,-4.99922781609587,-1.68279518111647,3.72350093364216,0.192954447873187,13.8838099172926,12.3977181167152,12.164462782836,9.11102917031891,8.86048449055316,-2.26424551501973,-4.91349701472491,-11.7702058945219,4.90342389364568,-10.0263273940669,-4.56947031950703,-13.8563821383496,-13.5759383036776,16.4667770529381,-26.3176482228036,0.802477177686632,-45.650558180172,-25.9457520373998,25.7109343949218,-72.5180201539621,-61.0972341054135,-31.8035155077069,-111.960002312972,-74.1656381951692,-101.666227870926,-107.664161457448,-165.951295859013,-80.3520131157668,-69.0001906445085,-64.9231064919021,-173.989205124253,-106.195450017969,-113.052096703682,-214.324300139067,-72.0342611034087,-63.1709413152566,-10.6337856792117,-46.252714325742,-17.3761201416139,-15.0899908531993,-37.4009479522403,-11.5615445430469,-39.6686950241337,-21.3004005700429,-15.0888761979501,-13.6672525534334,-16.4718477747235,-13.544846867513,-12.0855793172126,-3.98444725796438,-3.42995924072737,-9.19640783987766,5.89883648149114,-13.2428844565531
30.6762701092533,33.017381776604,20.2896320729072,20.6886356616562,31.6205007032644,19.5734503430516,13.633579673125,17.4884336540633,18.7744743149271,12.2685991277345,33.461636275236,20.5829367682989,21.5920552950841,19.7499186808557,15.635521947924,11.1607910136583,8.34869998723362,-14.4076653619079,2.37993938210106,-8.29915022568711,-4.39025924457456,-31.1075696859773,-21.8586734995465,5.24620894814728,-57.9579714668964,-18.922411191681,-68.2019126612109,-49.0450630948972,9.37209437063485,-106.073798016149,-84.823194374436,-46.5916505107589,-81.9309354585137,-83.2153963421297,-130.62685829371,-131.741784201851,-135.450254126697,-56.8301618655219,-86.8953807390229,-94.4083799608491,-140.543256578835,-63.9658448664217,-98.8451430344796,-161.366915158938,-43.4685166215795,-14.566981835096,28.4638973715734,-13.9686389876912,18.5646304806722,27.3761352915108,-8.4727738709496,30.7687954275334,-9.23221167575262,13.2719010834047,17.3401160065575,26.4763461705655,10.8504034624648,24.4858555095345,7.56710049529514,16.8502638429647,28.0299527090145,28.1702625698686,30.5827923043298,19.1197618920671
46.9670788788761,43.8778970086616,34.7747944068678,27.4074888414678,43.5591411313072,25.931301395418,24.1411087362169,22.5766547118783,32.4778468671684,14.485898094777,36.7263950294336,21.163698033494,17.8578559178639,20.4508893696283,16.7112303670836,10.5057332331499,15.7384610237121,-21.0488971893393,-11.4214441708701,-7.17484033345344,-13.6425093813911,-47.2854923654202,-34.588098849659,-14.9680849119989,-98.9155903984743,-41.4692982701755,-96.1995814145933,-80.4992643295182,-9.85722475938045,-147.409003478801,-113.69002024973,-65.2866190857298,-91.9262298424927,-95.6307431975379,-169.151371609269,-157.439937701083,-127.504219399995,-73.6870500191717,-107.358844750804,-122.668990569298,-122.396295843549,-68.5987936495477,-81.6999332208138,-116.311769771421,-60.1430091998283,-1.03103727989497,36.3383198010033,-0.501050974826563,26.7337579032769,42.1443549643954,8.37789319608869,40.6368952196743,10.4895260850969,26.2766727143967,35.6470667996339,43.6655466643277,16.1318112187581,40.4497514985777,10.0451086086047,20.8124150694746,37.913934057963,38.0344898141587,35.7121997895708,37.1102977230637
40.8764444823815,30.3442866006942,32.1706719231893,17.2371066539968,33.6697851572692,15.6602897641999,11.2477591773845,5.49309891072431,24.097203987478,-1.72828917840606,18.4175700129772,7.0494859066263,-3.95887008029418,1.30496730495865,0.12519232290243,-16.7793413566694,0.0354561681340528,-40.3620166746291,-41.8752702453646,-20.8708063493384,-46.2743919111905,-71.2415148407076,-64.0962265898687,-52.3264199135643,-143.715956222423,-77.8036521410474,-126.467715992755,-125.26483598601,-51.4185410993508,-194.236821589702,-161.662785416883,-109.715202395524,-139.584525983494,-124.686474685732,-218.1739824976,-204.868891194048,-161.464152690166,-125.110564746883,-148.172890652136,-166.336572671877,-147.249098441641,-116.997122931727,-112.376214157611,-89.4995736106006,-117.567253417797,-31.060718224018,5.33228520578186,-18.0210870856185,7.0231561221775,21.883509961326,-2.26726630966119,14.4643746315787,4.25153696696395,11.3103121026177,28.325782980942,32.4356194630894,-1.09015704755047,31.4467095558433,-6.10809403300478,10.587614947335,21.4909415483551,24.2557345374456,21.4567243720586,31.2221714192894
13.7150086212747,4.01107987326055,10.1585150015029,-2.76376485765291,3.52842286946347,-7.56765871898126,-19.9860459274237,-21.8012256046967,-6.93096854613076,-28.8729075000997,-11.2614568031795,-18.925173266499,-34.6903847792431,-31.9593153415458,-32.5134806187537,-55.1718915734633,-36.254207621861,-73.6012404997532,-78.8181974768709,-53.2860927994897,-88.7016356864333,-101.851487199572,-104.686144809707,-98.7388026217131,-181.428388524885,-124.783703136684,-150.073144620536,-166.123064622059,-99.6475610572106,-231.213853338774,-209.530405764893,-153.14534738012,-180.512098528999,-154.292505313013,-255.008526485174,-252.290126885599,-194.295254998747,-167.559237478923,-185.000194210315,-208.953304547226,-176.667002606975,-159.054253977943,-154.460449966024,-73.6028747466203,-166.500863459989,-57.6693203160142,-26.0375656978936,-40.9868036443364,-13.8172349705924,-2.45307605437886,-26.5705368481385,-13.6875423590117,-14.3095133348077,-12.0016990877053,12.2117869890698,13.2571603222655,-22.6005904551592,16.6758808516753,-31.1492262434454,-8.5218509131512,-4.57172698604843,8.74190590149218,1.88372048547222,14.0777860418683
-30.5379863841368,-28.7957975487915,-28.0306634166993,-35.6438689797711,-35.441953222497,-44.9771558608159,-60.8675113828775,-53.8291996234766,-48.1317551898934,-63.8617212587307,-45.6112838436616,-56.5430776360951,-72.9437070572917,-72.9858073894925,-77.4687128563775,-97.4834240467742,-88.1507281375408,-117.107607420144,-119.346611488228,-105.294306020161,-133.115794660107,-143.526471878865,-153.334406852953,-147.339672618382,-224.647263935522,-176.702554271767,-176.632798669332,-201.4272643911,-138.280699132465,-265.618321445881,-244.09785744591,-174.914194689531,-200.961221992091,-178.28137810072,-277.211268444288,-280.660645506911,-207.670259350456,-185.565986925048,-203.942408159037,-231.398347140646,-188.254183088188,-177.228714657589,-147.165550444547,-63.9434005598508,-185.095101718537,-60.0939873769482,-31.2573572239826,-51.1360047604568,-23.8492581943648,-11.2902071502676,-51.1382996895494,-25.4864615689317,-33.7730481893671,-31.7393380811594,-1.42302242978329,-5.14864293253147,-42.5431646539575,5.69278682313825,-60.2160610800398,-34.7093129747998,-27.3487113436293,-7.020206754669,-20.3306909476037,-2.01502171979647
-56.0720492805328,-43.6431401861349,-48.7835996103509,-53.7028774480816,-51.3282454980171,-70.2243013691484,-81.7391493783421,-71.1518875113176,-69.7010907477171,-79.8310962002359,-57.1118759231459,-79.9508989024489,-94.3786109934423,-92.5771983643541,-102.804217762954,-120.867436838152,-122.108255558249,-135.072373347365,-140.210855032661,-139.233839602832,-156.563126788336,-169.811743447362,-181.691453637004,-172.420021957163,-251.398256503266,-198.657788882779,-188.431143509997,-214.609540722396,-145.942999457238,-279.17579412433,-243.401131222118,-164.091388471884,-188.001718847928,-180.330104107504,-268.099961165831,-267.337112198152,-192.28810880512,-170.136031404658,-191.565799192579,-213.468211364978,-166.398247138568,-161.7685197253,-80.3358200268054,-33.1750322568802,-166.522234541472,-40.3246245392592,-5.04972387085159,-37.3541076050405,-8.80513804932947,3.65961924159026,-52.9866193950411,-13.1289979013022,-35.4320836271731,-29.3256743237016,3.65188806152986,-6.11345110032887,-46.327843667765,11.9186594053256,-68.7267429027494,-41.6508336498235,-27.2132243966508,-6.10654759667292,-28.5143800562247,-1.42157018672549
-32.9390928882939,-21.0032764617869,-26.3363649896056,-28.381147683111,-29.223376358794,-55.82556703735,-61.5974760799346,-56.7581870371288,-52.2938499040951,-54.9125942855505,-30.8585904932519,-64.7575241234847,-75.9768761708114,-68.0371411142939,-81.1993724640882,-99.1736795773451,-107.636633399639,-103.403419113708,-118.947736396528,-120.740194772659,-136.536324092054,-150.039578584216,-163.033533389616,-151.760241536793,-226.315622125778,-168.007203363506,-159.837523572487,-186.569499850145,-111.350201487281,-245.267542915899,-196.395314157427,-120.530942848048,-135.398127261318,-144.635024176709,-216.078351126307,-209.039676013879,-137.444314972347,-120.785340501728,-143.909439588183,-158.102364081096,-105.38815430324,-109.818398849319,6.81233844484033,27.9763731550801,-117.045587006603,-7.01261694831655,36.4997485850856,-1.42512847229387,31.5917737166502,38.4079291377073,-21.4493384837385,20.4322238038342,-6.97915139620427,3.9390604768137,36.4587255400455,23.6093683033909,-26.2956528115852,34.1554155990969,-44.5599872429054,-16.9859683820198,-1.35362678905454,23.5558537085091,-11.2706810526687,15.9446385439975
-9.73482409926775,-4.2001708261174,-6.12904004144307,-6.89635777033178,-12.8608971572351,-41.0861253860525,-41.9737821733483,-45.1273058402802,-36.3909105757254,-36.0283828694287,-14.953204027563,-50.960613646743,-59.8177880364154,-43.0575541114244,-57.9918596752534,-72.2186097260424,-86.0369265456549,-74.28855810917,-95.3088310597628,-96.0533464647542,-113.507566958949,-123.121610171496,-136.96948005836,-123.480867068535,-190.851259550277,-137.378996562275,-130.102348391626,-157.26331442001,-76.4053643811945,-207.736773128832,-153.199976008796,-87.8261589114747,-94.3522915500075,-111.216338155096,-174.57261124168,-161.171372240251,-86.3501353843129,-86.0683540230873,-110.101056592895,-119.253122771363,-57.0088500686385,-70.5909725571003,61.9564764137793,65.3831994212904,-84.9529994757032,2.2252872564781,47.7732587815855,17.181943411472,48.3533079171573,52.6244780457218,-2.46522655877289,34.8073158845003,13.4868999457073,24.0144203101255,54.0220167719989,42.2078476962461,-18.4506464261487,31.5489440365489,-30.0048047361121,-5.09554752196912,8.30443564474991,37.8894477175079,-4.28018426215104,16.9066970975694
-28.9120350945684,-25.6173947277802,-25.9925353235756,-29.6275721014882,-31.1084831230431,-63.4334405685707,-56.6220350870088,-62.6601367823088,-56.3244199612133,-60.1294875075641,-37.5872146368931,-71.5671996298732,-79.8304491458024,-57.4179021188287,-75.7751401338075,-82.130079471864,-99.2240805179047,-89.9360566573461,-104.677260040963,-108.385725645196,-126.301277957632,-130.993612068434,-141.878635060914,-123.26423111082,-196.255347317889,-146.248088804679,-136.732905128255,-163.103192055693,-73.7090677109016,-213.022666671248,-152.189491494483,-92.101716013898,-99.2213025211808,-115.814744119838,-181.815708413419,-157.000707822739,-81.5249243570572,-95.0024462662239,-120.705130517275,-125.768463816995,-57.5394908505535,-76.667588684656,76.787514904493,49.7923795959112,-95.6454689178473,-26.7359251401527,17.6367155351498,-1.41350227963861,19.368608684925,27.8315348945876,-23.8448701228172,11.9618923445847,-0.864315812906057,2.61627022344195,28.6407218012442,16.6275154263377,-35.9900117500017,-3.05425214921814,-44.1955123050623,-27.0711712888336,-12.9433172168867,14.9472142896327,-25.2607863035494,-4.4131851486856
-43.8841652360964,-39.4216592534458,-43.9301871223314,-49.657555196042,-45.3623502588974,-81.5574171278155,-68.9215342239687,-73.7047713505033,-72.8194025134759,-78.9483036180062,-51.0582609021676,-85.5701035259481,-92.1657157884036,-73.9204194950236,-93.2030745376884,-90.8132153339036,-113.544975787062,-105.795734958361,-108.258148549041,-118.1751477897,-134.161400212524,-139.745301072627,-142.513073828916,-118.609898614555,-208.170721979853,-149.516204259518,-142.95389438348,-165.280628542278,-71.0908890001678,-222.015039005061,-154.034972644614,-89.2051872292462,-103.914637043533,-122.533708716695,-189.588814233113,-148.492376062536,-84.9582804807421,-99.941602719837,-129.531541398349,-134.699854505438,-56.7552202663198,-80.7240755736078,91.8351174518605,38.8253097315996,-101.63634221117,-48.2893691846216,-4.44751519978373,-17.5402815084159,-4.63083105916359,8.22941575237096,-38.5342523728906,-3.77639511818926,-10.7838860019685,-15.6057982946232,8.02810133700061,-9.54946664701726,-36.8319255701156,-18.8580630440553,-44.4096930499875,-38.6679519180087,-22.149116172506,1.45478325055268,-34.8050463059569,-9.22731039942236
-25.6533353850885,-21.6537372341701,-32.7789315439228,-36.9664517512113,-34.5301983869471,-65.7847932492153,-57.5713206906802,-62.2365690054329,-58.34569813713,-61.7456133148954,-33.978155236617,-70.215944548586,-72.5140729972988,-62.4698807138032,-78.4081136927465,-71.025276698643,-103.855253356855,-89.6484882547968,-83.9594445592943,-100.612046012377,-106.960029789207,-124.034986692003,-114.383746391985,-92.3263132404012,-191.2834579723,-121.634977725064,-127.363600811871,-135.5425607978,-48.6307111047907,-199.837905946062,-129.565831720973,-55.2034883767163,-76.3129916208161,-106.37292964279,-166.016414203933,-103.109131343026,-55.5059848713431,-68.9154032510046,-113.120332230604,-120.249803839127,-14.7039931689472,-48.7262829965505,130.46499522732,72.1036465360994,-71.5976831239353,-37.9385971885394,6.34936783349527,-9.97190500884622,6.36736827280833,17.2720722425273,-22.2881601248347,9.19274530180745,5.72920704393864,-3.1058270639735,22.2661593551681,-1.47769705082976,-15.488386429761,-4.31434539135074,-19.1927635753971,-22.2483058794109,-8.42557710229181,14.286918680623,-20.2047670416107,6.73695743785863
-21.7061612266684,-16.731336075379,-30.1824130477931,-32.1586487991414,-32.1273846447349,-58.4560220717954,-57.8659083678365,-64.492242185182,-49.6126795961868,-53.4838061129135,-29.6928567353746,-64.4825867907464,-63.9418965064569,-54.7062049347945,-70.8542415520224,-63.7040508273949,-104.155590754579,-78.0806541192016,-74.0179545216221,-95.4540073526167,-87.051345964041,-118.70870967579,-97.6720126081116,-82.3702670819891,-179.398393530804,-103.825542496739,-125.731660257252,-113.626982368903,-34.6574702408219,-180.873583226364,-108.524288721356,-28.7245171287464,-48.6327858471926,-100.902221230484,-148.194591813572,-58.1943380260185,-19.4430633510223,-36.4694271819566,-112.415955848284,-109.434096488231,32.0440902603791,-15.3129775412486,178.812324139429,111.725457764695,-37.7707855000151,-26.6074075727744,21.3109764587607,-5.99689846374111,20.2386425632903,23.5494403832843,-14.7220115069041,16.8943601051938,12.6368351879191,3.94367072860383,32.0948211873645,8.61719991902416,-12.2275835554054,-1.65050246183752,-9.66089028753654,-15.6094620501621,-8.65007798880445,15.389838759702,-17.2653796118787,7.41795681899239
-52.013737204398,-41.4879170998002,-52.0408419939506,-55.4365486146818,-52.5117899758073,-84.2581736027458,-82.5665282871851,-89.5680198607949,-67.5946934331098,-78.7616253009406,-54.2480640557613,-84.2742675052466,-84.3487410076532,-71.160463399738,-94.5925718084656,-87.324881104442,-130.625431945714,-93.0322425685708,-93.8935902337437,-121.186546191245,-101.492044208414,-138.099430249535,-115.054098383457,-100.101127977541,-198.495572610808,-114.968570284192,-144.529459430197,-125.576961448726,-42.3874542123153,-186.898526475069,-109.864007224048,-30.3906147318571,-44.9610173090936,-118.763999087183,-153.218349469773,-45.6844996706448,-10.6020620274551,-31.5040684564724,-137.402096808929,-113.681753116789,42.7209302332573,-10.0538532733407,211.809675224994,123.928407268604,-27.5416780004462,-36.0597579380189,15.3339883432044,-18.2556964534814,8.10367648766759,7.07278460444539,-33.7175882731281,-0.414191545886413,-5.98196340027472,-13.9449036894181,9.33613132427664,-6.80424426109921,-30.1186631649779,-23.5651410623988,-29.2556709343984,-35.0392295784829,-31.0364080486325,-6.81829822652773,-35.2849119564448,-12.9192732505914
-74.9947619282951,-60.9974379833402,-66.2428007238051,-75.0739875031482,-69.8681780915869,-105.095063999196,-100.349567057191,-106.152067710419,-85.1533360333799,-101.098175476014,-75.3052394290388,-96.3246671046793,-98.8855016984582,-88.224670500008,-115.903105985692,-106.020833663418,-149.498306736366,-107.845466575716,-107.571893703377,-144.898869776443,-120.169877974502,-148.889467051518,-133.774795607179,-113.131962134443,-218.010715704226,-128.183436742186,-148.545838257938,-141.149873861286,-55.6347548941119,-191.779759835281,-118.191492460578,-43.0640955677187,-55.4787970474833,-127.812220889572,-155.764442275824,-52.9076110883245,-25.8160280905138,-45.9825406855902,-150.18341022732,-117.301593220729,16.5059349936314,-27.4913797932295,205.350379486988,109.750864781577,-39.119022036973,-56.0961588314674,-15.158422284195,-35.8275553874414,-25.76106750055,-23.8606788306263,-54.5646387173225,-28.0881820772326,-21.0209870863058,-32.4335016653658,-24.0049045620735,-33.0119079799969,-42.9554701411404,-44.4528146603413,-48.4899620223377,-53.8587688000176,-50.2913870962708,-28.0756328876432,-46.7283002700486,-31.9235056866542
-66.2598056318033,-54.6102563487472,-55.9808450731512,-67.612923606417,-66.3473010245559,-89.6827824097254,-91.3328228631758,-99.1089666260939,-79.5440073888429,-90.1851604195055,-72.9443598527632,-79.1095597867166,-85.9479703922944,-84.4923633220774,-105.037686244241,-95.9131195820023,-134.554574738316,-99.403803394719,-96.3813592730803,-138.113605109791,-116.979576484987,-131.033151282469,-127.263794160774,-105.500555464268,-205.946924560331,-126.971127361089,-127.542635740701,-133.750740900409,-65.3045840437277,-178.51732925033,-123.150096204411,-58.2165908070286,-77.9985905365006,-112.952741945807,-147.132461136174,-65.7701075955354,-54.868377546648,-75.1427739639298,-141.037351224769,-119.109306404514,-36.67649988395,-65.60273881646,152.571747798626,55.7093593106367,-75.8502046938876,-80.0938776794077,-65.1225367045542,-56.6179440935801,-66.6588700134403,-62.4143959173396,-62.8684085710039,-53.3721206177691,-16.3256114310613,-37.0443576172064,-42.7454983169217,-54.5969735035852,-44.1670226205174,-51.9864499507674,-44.3259272888397,-52.0727586373986,-54.2298589656439,-36.1634300315155,-37.6938231980005,-38.9869427740962
-39.5168812661171,-32.0696878121456,-33.5592749442537,-42.7449644782369,-46.6867945617952,-53.0868523081037,-62.6220752218892,-77.9353553409928,-52.0503299627572,-57.5911820418941,-52.3211983967824,-45.1676084215762,-57.9222518741737,-62.5698688063112,-70.8835148417892,-67.3224684653481,-96.210796649749,-71.2666937410329,-73.3074050486013,-104.109384555597,-97.2554076160057,-97.8812599011405,-103.417004295567,-90.9421211561234,-174.074597972117,-116.979411537311,-98.9272722721628,-114.430074188295,-72.8328460137267,-158.54584868523,-126.3611089266,-77.4598022230586,-119.347722508282,-92.0957049292213,-139.425154059414,-90.8752436220152,-96.9888743968348,-124.554894551801,-131.032704900341,-128.035113846234,-107.623548063973,-123.893580278761,67.4933302993655,-47.458226859778,-137.326620256868,-115.503839035816,-119.819664799821,-81.4607910299749,-103.059947384391,-101.839081504993,-64.5044248608417,-74.0480426014621,-6.99693918012762,-35.1443363054464,-47.3337386409275,-71.8523203392408,-37.6416159621742,-53.3987282470544,-20.8620608953835,-37.2881600060169,-47.4986828995635,-34.5561396564076,-16.8423481816484,-32.1907239045604
-5.6353108626889,-3.43956283416176,-4.22053369467088,-12.1856993181028,-15.8270543611027,-16.3409043537164,-23.6941178806768,-49.9294159934103,-10.4623860354285,-23.8555618453867,-19.0750730113579,-6.70667839244024,-26.2133866123074,-31.4159266142525,-29.5327223621999,-31.9380989741917,-49.9218582630912,-32.7681368477817,-44.464603767753,-59.0000105018915,-67.4895419961355,-60.0947821026808,-72.884729312411,-75.7716928286694,-143.373284350756,-98.2623448942342,-65.9623643163501,-93.0641971920278,-74.5213946351223,-135.196431453999,-122.551086299215,-93.4481875345,-157.695018622312,-73.4852758853526,-129.276054885679,-121.433383166313,-136.562468516937,-172.07402670869,-120.03921004899,-132.386845674602,-167.876479345233,-173.577975757739,-22.9340818638143,-148.335973088956,-187.635812265083,-147.845781268971,-152.238102728776,-94.6089049672134,-117.59893725809,-117.667660647674,-58.4222819253216,-77.8521998572713,0.0288221809755566,-25.6015800008936,-39.3529247817101,-74.5851250055757,-20.2087929362508,-45.8225009324406,8.24908155496318,-18.639106094219,-29.8109690741444,-19.556180545914,8.83480638188746,-9.8429523792906
28.1344622252569,26.7231165077532,28.855235706841,19.7928673946197,21.8926196719254,14.5713451727299,15.023208127411,-18.9147350411601,29.177775313014,4.49177252447003,17.6938908784069,28.9413802411061,5.56590395461975,-0.679349854738734,9.96487421144859,4.03364498068034,-4.54455834867009,5.19982231161574,-9.17837547418839,-18.1710002008008,-28.7201213558377,-18.8471343413181,-38.3647953127814,-50.2372466208948,-107.657105692426,-67.694145955983,-23.9423978296385,-59.280589645696,-63.1205078712183,-93.3345740917498,-102.054174383627,-94.4268141908757,-155.095691606841,-43.9322922748231,-98.7408348256144,-125.096598932664,-141.939938513519,-174.606434250662,-91.7426988355933,-108.214367078064,-177.214158728366,-176.786657278332,-76.9489248732238,-178.205960082319,-183.290978979942,-129.44277385128,-129.184759592078,-67.6667290186348,-86.4372879866247,-82.435047375841,-31.307452731713,-43.5833655067433,20.143611235085,3.37206366935767,-6.74070088332964,-42.3713804508436,11.1766933124253,-16.1077461628612,35.4692632891182,6.38870598709716,3.33959911114832,15.3186652775362,36.7259099804439,22.7753306484834
43.6574253607537,46.6367073112413,45.4025201644347,38.5864238430844,50.0422358631807,27.3368776882391,34.0913260510983,3.30344869154108,44.2819924561303,20.9385404408252,40.0157618604504,40.8328265695355,22.1997580878608,16.951653522746,30.2231152300982,26.1347645906908,20.7820239323579,24.554679397866,18.7210358581924,5.444411137376,4.91494739492121,11.5951834096947,-8.18512678498007,-16.9315764424399,-63.444009951035,-35.6566621623904,15.5748579688138,-13.5162143312203,-36.8352347270561,-34.2802973208601,-63.9035876425802,-73.2071841752025,-110.554184656139,1.12043449457712,-44.9466686782733,-86.4968873688778,-105.372948402723,-124.102485969884,-41.7653645152426,-51.0730471761612,-130.294344681962,-129.919344658744,-60.4715761156461,-133.851100173471,-125.781009023404,-37.8265355121788,-35.6639600515836,11.1511789777804,-4.30772062549683,-0.0714499191749676,21.9298147925589,27.1223971589692,59.6223515892549,52.2687619747173,50.2221892854182,23.8100859241959,51.4285977989028,34.1492595070585,57.5500570448401,37.2586814138624,46.2371446132716,61.8251166987094,58.3775600436632,55.0702286536814
35.0276291365441,46.4293615105735,35.2450648642288,34.942686537743,55.2571027045837,13.9100281249908,26.1699815532698,7.05578022865862,32.884677801191,17.5929586412047,41.1060072191706,19.697102297781,13.7134773539028,16.9893579052682,22.8125812635642,24.6834890676401,14.0447791104558,20.3452610753628,25.9699213582103,8.86875825326213,16.9433663745892,17.5853880196272,7.92663193616641,7.96072329312926,-31.3701765376738,-13.985392392729,42.0238770519217,26.1458044721877,-3.98804340906213,15.7489009235299,-20.5404952020463,-37.6388661184828,-59.7296550361925,51.4670322575531,13.2924184643645,-33.7567883601905,-60.7946829279571,-59.0091180790978,24.1714877997482,17.4474498090167,-73.2990715197835,-66.2853123028152,11.1663939292347,-72.3777803804828,-57.0193639015842,84.9134469367305,93.0632773034637,113.057498097428,98.7799539942489,94.5505350052534,85.0108312002936,101.867844335028,101.742076851896,103.72567668181,107.862408238708,96.0571376668971,89.5538557979971,86.8583770780646,72.8894383798586,65.1770400318517,85.2323510415501,102.231932822876,64.8643167747601,80.8636726097343
19.005964723185,33.5945246712766,15.6124910058863,24.7165708490664,45.4160615419722,-7.69196021314539,9.28668637605699,-2.09814874199269,16.072772991538,1.89138005318037,30.034200688384,-11.1911502315302,-3.42693961928743,6.94185336410392,5.17886113968518,11.4826013121613,-6.77077939201663,8.81342101599634,18.2919118269034,3.21591866604698,12.2143179172763,8.68058477009077,10.1380771171883,16.8164111658816,-22.7559344105462,-2.62893716075071,59.3212858399232,47.5181138560515,18.1769204071034,43.6248096324743,7.7338804224077,-15.3488103952861,-30.6218359226888,96.9629322720732,58.0876305167146,-7.8450353840517,-46.7050567803851,-22.0237500476645,92.5753981739067,70.373218239707,-53.5917085989276,-29.4507716077354,73.8637628542575,-50.7599022310493,-19.882183730913,175.11245413841,182.904849299596,186.6689504657,172.052362581266,159.652800578433,130.533793084342,147.083653436598,127.42575935114,135.488948846798,142.742248747551,141.888384114467,114.051519666769,121.25872640411,81.8198766228458,81.0941614901155,108.269771279217,124.461976887403,57.8586907472175,96.7949299521247
10.1265322164041,23.3547218208029,6.33753741448601,25.2235372416777,38.3059357950699,-13.5982346781849,4.11140503642904,-9.53286974744226,10.344354410244,-5.18035744359033,18.0102521896513,-23.4933886191764,-8.5386853075238,0.389490490095092,-2.82718204774855,7.53530224806055,-13.2800724041958,6.41036510886796,10.8380627785584,4.2633233398431,11.3674680729833,5.07567554273604,10.9511152889309,15.9868795265938,-18.2563655139961,6.21352816699487,72.5858318729364,54.0176515148684,20.3504039976829,65.4074029567561,17.1142356779178,-19.6629347709404,-24.4993014361282,130.884576157626,90.6648943445496,-10.8836637414831,-59.3999819258792,-23.1265313234579,148.261968560191,102.60668606282,-66.9753203630494,-36.063698773149,80.3528586687087,-78.5900580394952,-24.573958751843,204.138183306299,191.899134734741,202.909534905968,184.327190070801,170.106343309699,143.452153479242,152.033942055118,131.567199718185,138.968622577525,147.557410019397,147.508999255792,117.861027453168,124.877206885289,83.4234528708506,82.4135205272056,110.221407071494,126.728110290308,48.5070586001663,97.9762179539697
-1.65314531040445,9.80666661117818,-0.071240804510492,20.8120426536331,27.7308564681083,-11.5314782406748,0.466432491396779,-17.6477599901912,4.31458480695784,-5.64718989533372,2.51391403700339,-22.4036867402152,-12.5957235563566,-4.39382870839961,-7.88750441097264,5.69579638528402,-8.83009094204359,4.27006741655123,0.574107456550685,6.55370047085604,12.1371860873098,5.61790244242129,12.0253904143812,5.87640950687823,-11.4911360215128,4.55650999791083,74.8551021704849,45.3630856518727,1.99260929806377,81.784421685429,10.1323709470727,-39.9695306108199,-46.1291200733891,141.075894816967,104.132390490675,-26.8284182901382,-82.1740792071352,-57.0109604289402,172.979117720048,115.087429081719,-94.7648709879311,-76.5594030245807,40.7512552083063,-139.312373679199,-60.3887589000174,167.054042210437,136.338315799466,159.384104032431,138.294777261734,123.934908569937,114.678423453875,112.935785586709,106.591068635956,109.728362275772,114.598513715378,111.346860933552,89.235087357782,92.6410511394444,61.2492302203104,59.4567834310487,84.0219749468835,99.4074126349171,29.9794043919408,72.3739858882152
-44.3041606777368,-36.61899071181,-38.4204270470805,-26.7649941094353,-21.3980311566376,-42.3772813396466,-41.1346619395602,-60.8072327374845,-35.8444194130852,-42.0002117809184,-42.2838829990162,-49.5443225229393,-55.5270084260996,-43.5746993890292,-43.9764241718392,-36.5340017103116,-36.5445557948619,-37.2449013878891,-47.1409731286984,-25.1763634235615,-28.0085408798352,-27.8118088476488,-23.6792768073591,-41.5022655864725,-50.851182017792,-45.5350944997909,39.9829970428179,-3.3637076908192,-51.1252222118787,43.4798089398672,-45.2199792168108,-91.5830288044998,-134.221964896432,102.150018759661,52.8757023822505,-91.2790049448182,-152.236412333408,-148.049037882325,133.734507097975,80.5557853547379,-167.685747864605,-167.782690740693,-19.7253034150262,-251.495538012945,-148.418724871639,49.5705212366802,34.1170158498402,53.3382783674017,39.0810957003427,23.8182503599168,23.3228636462804,16.1499410264926,28.4388280384146,29.1736294736748,28.1632440628746,22.3082243459637,9.3014611878574,15.6426788069256,-13.6633923182177,-12.8737601608735,10.5319891889856,19.0089460383067,-31.5574711311683,-0.817630484386113
-121.001616839434,-118.709111421095,-117.700894014748,-117.737653395707,-112.410554933955,-121.495387757726,-128.824296690602,-155.213999990896,-113.415385525996,-131.203979895486,-125.162639118396,-121.901079756068,-145.882605277498,-136.262810514962,-124.418593851592,-131.504766621346,-116.239129803396,-134.399451231692,-147.821971339326,-107.713662499046,-129.446718869252,-123.482674238502,-124.565238716184,-143.693720150254,-173.895435578257,-157.837014689156,-49.6853512005181,-106.904432663607,-144.493866465118,-85.1254153936128,-169.496471182049,-197.192848237889,-308.563442895895,4.30308098733593,-85.9887191474632,-241.315091786346,-309.088648191069,-315.833129721328,22.1995035941594,-15.9060237214684,-310.946591980128,-328.567387484249,-92.9370352981337,-422.395739999736,-313.832808152494,-130.433785596897,-101.052000381536,-95.2498779909776,-95.9854244007148,-108.047966660063,-118.148090021896,-117.448249396972,-95.409794448683,-94.1810085904843,-93.0980622162412,-104.536057671132,-107.112117949318,-94.8941488983812,-133.317905368917,-127.242808523547,-103.708170289421,-99.720185004113,-137.186580812731,-112.152901353737
-193.318796023728,-193.2628775483,-194.906014509947,-199.832220471401,-193.169107470867,-206.272527028301,-215.005031396227,-252.650026772625,-184.281176866773,-222.280690491382,-206.448271281387,-197.274400421198,-233.712167282489,-235.002787859523,-208.878254417982,-228.236859344588,-204.28497422892,-238.214570419622,-252.006707948452,-202.016070296997,-240.565358155987,-241.810257572654,-244.889356267785,-254.470072240641,-323.01481140164,-276.79203233476,-161.006676832685,-225.141446787044,-238.192763474606,-244.888273681472,-301.594431039362,-315.903235976552,-501.579734000679,-112.699157169951,-242.062230084695,-409.121514462442,-491.432158006416,-504.462243540439,-108.897084099208,-132.357645638604,-465.996623751215,-503.505430968027,-176.521864626389,-569.473194462986,-503.807593765509,-288.256354490158,-217.477054865571,-221.574931415145,-209.946906590051,-211.145812843441,-237.997625278037,-217.940418910646,-199.605920656766,-198.250506628973,-186.735383634272,-203.841034694929,-203.564725014538,-187.452183006536,-236.981289031887,-224.21499163818,-201.927826194576,-191.571041282792,-230.818717093614,-204.186058570698
-229.403311846688,-228.129884397357,-234.190768588761,-235.528308636697,-226.66474931182,-252.4840946405,-258.607923183759,-293.503681102347,-219.686513259544,-266.281018941281,-248.125432536079,-236.783439881134,-275.331751112612,-283.050493204237,-252.737288127868,-276.061330451109,-249.786845914607,-292.592518067654,-299.626374837246,-253.578366523574,-296.0385328798,-310.695298067658,-309.444748676375,-308.917275050964,-398.61737721452,-333.37352121302,-229.843257966768,-295.781685083852,-282.890678026536,-327.671932140355,-355.36573379724,-378.557655881722,-611.980792109657,-188.972492620833,-313.633211703507,-477.611835700849,-588.541596233957,-619.664419046811,-192.858146301922,-210.894492989171,-548.563809299245,-603.724558304255,-261.172657603392,-598.848826004295,-618.953876236109,-347.446450433768,-262.531198162969,-272.395098813358,-255.338539523114,-243.026643773644,-284.49733488702,-246.683761363721,-238.817884654071,-237.071556054795,-217.349471879621,-233.928179898289,-246.217927298862,-221.897850514189,-277.244359298672,-263.885673993839,-240.270535182722,-221.552321883158,-270.237312766184,-237.199373144292
-241.107912042858,-238.288144742461,-247.167549696812,-240.667145615022,-233.412017925755,-262.568142166077,-264.834096143127,-281.92253660325,-234.280695901461,-272.170215095507,-256.789515948369,-249.646565030549,-280.058423819722,-283.42634696245,-259.597509626237,-278.296388745138,-251.955861757417,-298.017695708033,-294.628994118177,-253.037234760371,-291.028670377397,-310.179634800196,-304.446378344611,-304.70964243483,-376.108096201963,-321.205769046358,-230.07904597851,-302.332244499992,-279.887948192667,-302.131608157968,-324.886795846368,-376.173227010609,-613.438851404324,-201.776854538046,-282.126301421235,-430.202634227351,-571.831294963436,-627.270584705697,-210.015920434993,-230.867890669558,-543.386309993245,-604.368593313809,-323.118336375961,-519.831260467833,-622.714948797966,-321.784255440216,-248.585719054611,-262.378798389774,-249.304048579129,-231.502048639835,-283.747294642804,-237.531765124377,-242.831093200759,-235.878961794063,-215.591736908942,-226.436338119705,-253.409618301134,-217.172792744843,-273.344728287281,-269.297662870766,-241.04367579295,-221.085668934014,-271.772793444947,-236.105753131791
-260.361139788687,-255.07958878278,-260.879174623542,-251.901313184862,-250.455138906577,-266.376894955111,-263.64873270865,-274.1435878886,-250.520856265604,-275.743807822965,-262.391028909732,-260.439960753561,-280.01303049076,-280.682915955684,-261.615045024373,-273.153771757521,-245.450670804517,-290.119584824086,-288.969412277593,-239.633120442215,-272.298334990589,-285.252000922034,-279.759296041386,-292.537400610013,-319.63108647455,-293.12440227566,-197.230067760253,-284.70360184695,-272.351247325461,-239.809036362787,-278.07555963076,-352.546988018481,-557.798182586222,-175.494399774321,-217.650809898476,-360.43230615493,-500.61620019973,-569.079898432263,-190.778345864686,-215.607666216568,-497.435193896036,-549.998455596417,-347.522472931359,-419.927239505107,-563.992860463172,-291.50850330678,-237.95167005792,-253.440478089223,-250.630212083704,-239.740327228234,-290.852590076067,-248.194592474306,-263.110407166567,-250.635191497327,-234.549663819092,-239.577445365971,-262.706960083522,-227.169626024275,-279.882803171408,-284.393035470916,-256.894555553865,-238.715529789472,-280.054392610477,-250.306673916165
-290.080266441769,-279.781967325064,-277.442260144797,-276.087278387939,-279.089267671251,-277.595038382821,-271.212120597752,-293.040854626913,-265.817257438105,-286.997889828055,-275.184523425911,-270.140776307188,-285.418539259456,-293.281189585191,-267.773665478603,-276.810355127627,-243.599519349174,-281.526072632487,-299.001193410154,-237.603277211134,-266.936825349659,-270.765787735523,-266.896609869976,-294.295871692243,-282.069855686983,-282.91719881536,-169.354866402367,-273.386419550742,-276.918779489997,-200.027767125077,-249.952315395941,-327.593206567834,-483.042565230989,-137.87533327667,-172.18422635612,-325.092015891115,-419.230981379193,-486.859331198624,-164.229982226277,-190.470786511589,-439.68825355126,-476.374390837922,-343.25690441455,-352.421982513224,-488.904779417285,-299.730365672271,-265.292968986263,-277.587897740048,-285.633150470864,-288.147746321771,-317.633087990213,-296.491896950938,-303.027658641254,-293.66967112353,-285.753573845454,-292.628267179252,-290.302740429126,-273.598784597043,-310.016636585713,-316.411211332079,-301.600126455119,-286.312956350988,-313.371579563355,-290.268906281639
-294.32995996027,-278.809515737182,-272.128075612889,-277.864615282592,-282.933024260215,-274.211605024045,-265.797338710864,-292.623060525699,-252.600310933303,-279.585723222723,-269.947331086544,-255.027197161099,-272.64703288384,-287.461555106138,-252.561506718177,-259.731271676534,-218.941671153259,-248.668066438201,-280.182695327987,-215.927454724163,-246.270766674034,-240.948570644044,-236.229200659941,-273.060776704353,-239.61813780377,-258.13946296648,-137.126221955622,-241.683735551256,-257.226212839369,-155.411670081109,-201.40318428321,-276.205298912454,-375.46270006772,-89.3916352850727,-117.512777787287,-271.979435114007,-312.070469380965,-377.415169664646,-118.393825713442,-141.468277751833,-345.010605178969,-367.020784639912,-307.333125924018,-282.018896576701,-384.792478872354,-301.538016812623,-291.895369545648,-294.79220799401,-308.783031144516,-322.951548207821,-323.725389385876,-333.391188373013,-317.689549519043,-315.81989327376,-321.10516178473,-337.840343712488,-308.063104437644,-308.398903050816,-318.153871596821,-325.648684881263,-328.611162970823,-321.163427647655,-335.394614683359,-314.391679382295
-245.002440600665,-227.607658575571,-225.221522426179,-228.090692848491,-234.23887775032,-226.845147786193,-215.639807172555,-231.821090889525,-195.004002540109,-229.722652564038,-221.970738727156,-198.541182272513,-216.934661195233,-228.653228780981,-194.582060454321,-195.153703740076,-152.337807290181,-175.028641950834,-203.22951850502,-142.564605318151,-177.634987786196,-163.784138135394,-157.48092387307,-194.840519240014,-152.686180428617,-176.446787211326,-82.1781563413948,-155.063181309219,-180.349963198298,-67.1618854478693,-96.8997872668267,-177.730112426017,-229.822254921339,-28.0884441910645,-15.0096208604922,-145.093548520417,-164.927388250526,-238.412299726014,-36.0499472110869,-51.6801188993198,-196.510590162939,-215.158069084731,-226.267416060046,-162.937267167314,-240.324465325938,-248.705040827824,-259.759879010856,-255.589038515519,-268.313714996824,-284.183701935649,-274.261292181035,-297.312955354888,-272.17747499838,-273.070482113277,-289.617425620191,-308.738610787342,-272.16639919057,-273.482671016733,-267.839329716211,-278.982978740994,-289.01440540897,-290.427087119737,-300.009973551544,-279.918859920713
-155.464492933519,-140.323779038278,-144.25551792482,-142.450152720365,-147.673528207095,-139.865436901489,-126.599660599493,-132.561602194823,-112.174528054046,-144.395260528947,-140.65169767994,-114.217454674667,-128.420012891006,-130.338095080679,-106.14287133256,-102.337507827558,-64.8780071230269,-79.7499122084885,-98.1826571313042,-41.9507213066313,-75.7076328678465,-63.0637447124869,-53.9660451568073,-79.1335309357024,-43.2445071042636,-51.8861688730962,-27.2517593145715,-35.172842728672,-59.4617787784655,27.3020895573825,43.607753378808,-46.1582842487455,-84.5342861312864,23.3747796943331,110.622875473973,24.8341166837091,-11.8223077075567,-101.514214528202,57.4338535504319,51.5827276750008,-38.61662311889,-70.7210410115757,-123.06915136202,-30.4903747235517,-96.50523129913,-167.215704029938,-178.04802470228,-172.935548907525,-183.760021882255,-189.545188640393,-184.054897658393,-197.926339419441,-179.951169835156,-184.569359307638,-199.672936073929,-208.200760076997,-182.227118936098,-180.157241257124,-174.829516133201,-191.720974651264,-195.170172641823,-199.296261497207,-211.975427579193,-193.873774832899
-63.6159776886302,-51.9910791919515,-56.0533890786505,-56.3817300872583,-62.4588354971814,-51.5632452858172,-39.1486780325179,-42.3126431855049,-35.8532511223859,-50.4456868138035,-56.0704390920054,-32.6785486523926,-40.0807721467812,-35.5498571379922,-24.2766225478306,-19.2592080283513,8.32461652509646,4.21965610790962,-6.16525491829237,33.6348534404826,18.6554646646674,10.1344906896387,31.6120870383964,29.2797175696979,30.6641248407385,65.4181040232055,-7.2846404192084,59.5102033361775,70.7780595739377,51.8822024748513,180.718243228646,89.8647283230654,30.3563489313649,33.2986903717824,205.313192930398,173.67077480615,107.729716005458,12.0059753921449,119.201751199213,136.20290347878,76.9369374303344,31.7801681335999,-40.383548840813,50.6276198226067,12.3958327415769,-97.4826409818833,-100.722665562498,-89.761580766552,-103.298247487446,-102.680534349126,-91.7576071299218,-98.3906799739978,-81.0608399449151,-96.8443446887113,-102.284200292485,-102.97091412515,-82.140677850144,-83.9392472537412,-75.9997761681467,-98.1463476355873,-97.2725375737831,-100.777564690806,-113.262656901403,-100.392912994127
6.43450171846582,19.0631389736057,16.0770421418613,14.7786346799423,3.8825602918998,11.5333230947359,20.0368226773222,24.3699190960216,21.2358022679616,29.9877015149776,14.2105919951695,28.4674370975671,29.9784660562338,34.9830950308976,27.8393688666198,44.5107541007145,52.7123051245186,64.9546214098256,67.0686317822464,69.3750108042152,87.9975971352647,43.7133993451979,89.2734608213473,113.91301449297,60.0488451427431,153.306703714588,-8.3083530168833,110.907161203353,188.149690633432,15.1097214661473,298.19609997312,218.243444298817,141.279547978819,2.30179268911764,258.750890354245,295.934592154471,207.594784855988,130.756766590472,151.240316906436,204.878295098126,169.036197179281,133.752596789466,29.42574989433,99.785784022102,123.652500892786,-22.3156780457629,-28.8560892114646,-10.8158581236659,-24.7541028439147,-32.3097894531443,-12.7410161981199,-17.2479315342544,1.62685264392098,-18.8502756203816,-21.7283529742871,-23.9922283567251,2.10327537030038,-3.4853692564951,12.9519316780714,-9.92019426270747,-12.150312135827,-16.0275818589978,-25.5352775274888,-20.4711995570946
63.2123739903564,83.0743449938573,71.7402486933995,78.6967625266187,66.4202985960289,62.1577842508808,65.3485134644494,87.7228658718497,70.5069023223899,94.4986303107961,78.8833578892544,78.5432238746093,89.8649243388138,97.4671349431844,68.009489093571,106.935063310739,86.9377578207712,118.954855245557,139.865919721881,100.797684957107,150.113121121623,75.2110059968753,143.734985520444,189.846906749555,102.583063488622,231.130012764927,18.9974059986643,171.172187144984,284.974096183291,33.5583661093826,403.090864376394,339.411152328297,287.83661285613,-17.196302157548,306.232662270861,431.209642255316,329.762888055688,289.425024108533,201.597569688152,262.67155373064,290.670709302351,281.571566005936,127.967037864484,189.773230363246,286.787371634906,82.6965397841244,74.808534184682,80.610497023212,72.9322265422184,60.4235461963156,58.8791804712691,77.4325249459047,71.824669938101,63.3589193564291,60.138495389144,57.0385373969775,80.8439285592767,82.4720059722991,95.8730680390019,77.2231004218802,79.3321252467765,75.7847904720778,60.0428087690781,62.2694462656491
118.230897622955,143.782562986275,120.679107618133,136.43504527882,129.11964759054,112.647805781926,117.032929910277,153.109469543782,119.041374881441,148.046472622206,142.971677477157,127.73928953759,146.489652343247,161.258613391571,118.893717151061,171.758221904618,133.020578824985,178.736963029264,213.423989026975,153.854779072239,215.756368764464,126.940183943277,209.742980326154,261.918860852465,189.353086352373,307.839794405079,73.5502071767189,276.187390224542,353.656161981868,157.295705924005,493.581640581703,437.285725007211,446.795216055354,22.2222350143873,358.014463684055,565.434177383132,462.935323135593,457.52318372893,284.221815189752,301.59296536487,425.660856131565,442.605258311658,238.345761462259,317.028580685142,462.865456857986,178.297632565986,184.20465303383,161.945238613087,159.315007086404,161.623382057415,116.12206976452,174.026523790594,126.760355236094,129.290522466198,140.914648263273,144.576919242001,147.326217903075,164.681142071518,162.577044252233,150.441786812981,167.271489950128,161.625213183315,135.269137679419,140.202088328986
158.777875183737,179.661913329296,157.316591310075,172.542527998084,169.224534154366,147.47389056711,161.829843963712,196.529122930255,153.10359688365,184.064998841616,185.719357966236,164.224944478429,185.851067158255,206.767924510121,166.221312529596,217.956270178075,176.683759409815,225.444212583677,263.496503726825,200.217201609059,261.554187921462,165.603369229154,259.020516760989,312.145904884906,259.303450914381,353.004707185081,87.3564020609608,356.436897099466,385.753650283497,251.331451296421,535.553401535677,493.5421305677,555.855494856616,85.757453037436,366.589307910498,628.263086371192,548.865446820344,566.446630269646,337.011171068641,313.65601060905,503.945572936452,548.044160827806,292.080950621843,409.582954797223,567.108001905093,209.58174730788,230.196850297983,193.182509399744,189.010859220018,208.772534043181,145.066966639628,213.679046226442,150.971157793075,146.851081328281,182.211388423803,196.755276285501,171.387506557307,198.420603903352,191.928546652909,184.982376491018,208.120341223777,193.810255086903,169.616238938098,173.782667116749
173.658300047201,181.076261765506,171.202587627538,181.620779344948,177.833143375635,160.316942457846,176.916506047311,209.346301287058,164.645293595823,192.959842747665,193.969846661566,177.161580092719,197.875644672906,221.262157990001,185.79707413652,234.524729726435,191.645781444801,235.176430939975,275.653702121116,205.073990929834,267.65902819657,158.95509100195,257.130021763637,327.854347756754,246.65312547058,337.044944879296,32.2835789834055,311.115703356566,378.262170509181,178.425381098474,483.665830388656,516.107132373105,602.195584775198,98.6886307481968,284.361531667006,597.094866692481,573.511290840608,604.070095019762,294.753493966811,271.143301405067,508.972074723687,583.9244541004,262.484595596077,440.355482296974,592.601915677019,185.589185349478,205.516224190824,180.98368951969,171.253247091786,187.77563569522,153.033622370704,186.757987295309,148.766044603858,132.752656751721,172.850463149491,194.023197535882,160.820662680551,179.291113464773,188.58326719991,183.267894951248,194.596067663245,170.313308403626,165.03717481423,162.536175367351
177.805369954865,172.375283015977,170.190392748647,178.70171559493,175.751507248568,170.740467755474,172.80347683677,213.580795154868,168.838694867449,185.881739845219,186.306651450845,177.845371053221,199.429754774436,219.446077071431,184.410393820378,235.141597174762,188.707360972923,217.951361036967,266.10663119159,187.335828130505,250.76915273532,130.41365047551,219.950848765724,316.674980904258,184.676092328523,275.293393134854,-24.2537021971531,159.85139437103,331.592507870505,8.40279210687663,329.698284259194,517.866680548723,626.711169529549,60.043756664076,123.763334646841,520.178837612595,581.965840671153,622.811913280515,161.358202329241,140.654599297095,494.266824508042,598.134559898061,189.475761328915,444.679801875288,608.152539986437,161.159446468025,165.429413615917,164.474757661547,145.821436018272,148.151790164739,157.668681831931,149.651819344492,144.479320321014,128.816893799153,147.125182606785,165.999784239928,158.858067856164,156.903014394568,179.620384619054,174.868428813196,171.727130244803,140.572970018162,158.687457636503,152.638712131224
190.940531963404,177.260178595172,174.090207402825,179.843707735941,182.458384581263,191.878243379781,180.722447813052,227.313703444846,182.707438713485,189.939776656923,186.7389684418,184.608027878164,209.750115885834,220.463660634317,187.780144875493,236.534669358296,199.967418649908,206.826123050565,261.18100844589,189.602695082377,240.637275218126,123.096010966396,195.307731698753,295.642120051454,153.231239839082,218.29770680358,-15.3197596140305,36.7301078275615,259.659974917337,-90.7406715937959,141.202347143259,497.426378382394,656.935117979089,32.8453228522512,-45.2865393834225,445.48463607234,607.215331568153,660.579364234877,-21.1035317322809,-33.1278319923051,512.283840180863,635.214891049384,136.500808120541,463.359489976782,653.761546361214,168.040074684762,149.443419595362,162.44754219515,134.17394749934,133.116954412332,165.48480425281,143.804798529202,154.517342009725,143.744302080395,138.48641424476,149.631121673633,176.241733236556,162.218618555446,181.320101586384,178.603459820654,174.542325587486,137.169946128261,168.987962518939,170.233669393293
206.514143407895,185.656914634525,186.976201646248,186.138851618902,192.911620391856,212.848856416955,201.694265880858,243.134639685705,200.71611762016,208.08364050349,194.868694112484,198.074574047586,221.347708748324,222.751786346908,200.868478997539,237.633094015765,226.726503100925,214.570352519655,262.377563416433,212.987436037097,243.273105227168,142.640570014768,197.763843534158,273.012783525433,173.665659817307,199.211755642124,45.4329290086602,24.776522076391,196.122252266973,-70.0963602407279,36.1155398431102,457.298067392717,686.853650608464,32.6812995716685,-138.171911340045,388.264004717947,645.692457730605,707.060286777139,-225.438545824233,-121.977055581393,576.873784134269,692.799396865295,143.668809141246,521.652569883567,708.675783881917,188.338654976382,151.306010468579,164.98319014175,137.761619269419,138.100633659133,171.873481806807,155.165680640689,171.092723627327,155.901040479839,145.644241796752,152.205358660482,184.545765574421,175.243449427607,187.883145919665,186.706832356648,191.068321286924,146.315890519204,180.904055088233,192.396461824669
200.744338195265,175.012588329767,190.25982733403,184.517830857187,189.503851664705,215.669154699218,205.898773333207,243.273818773423,202.016031706713,212.355516299983,192.016807899313,200.132919713784,216.396352069615,211.773915499456,203.662440278682,225.711794130603,239.835165542102,220.980975331236,248.264099360485,223.118088106371,238.512316030127,163.549308762769,199.473215392433,242.9190733871,208.969929098798,198.503295942933,104.010119143411,72.1063067415461,159.248409147386,0.980558766981527,57.9053688390257,408.794907910124,708.135210928825,7.4771232160046,-120.885974218324,345.724037602108,689.922984563686,740.658465536433,-418.986965697222,-81.255545097681,674.971659278252,744.999043570609,194.391448340858,630.921223409691,746.983981750429,190.414218728689,147.042534379266,157.588804662305,143.304919473785,135.241487388054,167.431257003514,154.446153438911,170.144971751345,149.288100051382,143.896557075232,153.50386371258,167.907081053938,170.82733639766,182.548018656097,181.849109499126,192.291818125847,140.955516045359,177.047556609324,187.981961565825
166.542998797254,144.226633982488,169.226853718588,161.093202624885,164.520320738521,193.852091575231,182.277712841438,220.454762745859,177.686321561068,187.081504595549,166.257187632227,179.113952589633,191.448498559574,183.139074230079,184.308786192917,197.051944362604,224.022496964516,203.705480706741,210.310092265792,206.464560377091,208.817218035432,168.904226393158,178.715462103388,198.70986871518,226.108017825624,176.973937326489,130.869767267759,92.3206412311949,125.618688306138,62.8856703406771,109.656545772837,346.749143937305,705.493414743405,-63.0758551387037,-40.2563759449841,291.004870378655,713.789106592775,735.521430990643,-518.172660713909,-32.9456323184257,750.728097738529,759.195616075705,223.560737861201,750.726846372698,746.579873459464,168.63458397366,121.530040284018,137.358147906741,127.285892803263,109.386462980535,146.701011930176,131.410145064402,141.486758963801,124.913056603689,118.449831481497,131.71424442979,136.29142439558,148.022348383426,155.739066979173,155.418451603586,166.12619802059,113.821333966043,155.57357463057,156.892598114471
118.153696772036,103.52554359431,128.257658036314,115.206141815761,121.758963877047,153.367573105747,144.121821858648,179.279336362102,136.321105625642,144.87506941846,120.380087546598,141.048286231212,151.672458992767,141.347317519711,150.997475446799,157.352970153587,192.738504533789,163.448511148175,157.378192048183,182.73179884283,159.690483592766,162.915180001827,145.256329555401,142.80849159415,225.474233482559,128.537256652726,139.370157313095,77.6316583115496,66.4073567498267,116.09286565914,96.5685441185635,252.83005528234,632.205382967541,-109.133717548342,39.6094387825754,192.446056707545,652.626035152597,643.548144603025,-436.021347638709,-59.2337829267311,707.557749272605,681.496538083009,182.647499894065,780.167597817955,657.978050718896,132.841134159876,71.528519647678,104.320214284015,78.3626959252952,61.189424478359,112.732284184616,85.3132731559093,97.7499800561749,87.5583535094087,72.8165577848309,82.7763515791531,99.4355492818634,110.261585892606,114.139665348017,110.160682034011,116.574153791208,71.2413330286369,120.832840289476,112.034269136052
72.3960239583512,57.3581141508397,81.4308863651016,64.035932075597,69.9375553009502,108.785726782339,100.603655393986,133.366930842939,92.2310584157867,103.484138585216,68.8780962370776,96.1328146778957,105.286199207081,93.0459863759705,114.766577160838,111.459226984606,165.438580352854,117.991037458731,99.4035882568329,166.816866509677,111.138128220308,157.296846724211,117.783298526356,86.5315558682948,224.348858465236,78.3364307071509,155.745489899765,73.6492925143007,-13.4179815760288,178.226856879107,49.4625719498944,140.234281918149,475.083786855427,-63.2419031312342,97.7522235603734,80.2719067089619,494.749001095867,461.731414396917,-214.822388038222,-81.1024424855595,530.679658432903,501.410668934412,102.388847625389,675.643980363214,472.117667911006,90.2087534930274,9.49924332831223,56.913781311051,14.8533291993491,3.92489356058061,72.0959042068446,24.9036620346104,53.8382051878806,40.8012715770487,19.2058589848366,21.4808434673852,60.3429560732443,60.0562442444986,72.3408637097287,58.9536898349209,58.4270075205698,21.5210873189326,78.5979067874509,58.2849874664565
39.5038345714649,14.8162875702311,42.9267844138501,27.3995465679163,23.3094922886291,74.9012227143921,58.8465541745346,97.1581723486642,57.8270868718972,69.1743680900473,30.2420032832643,51.7626602833164,65.9353483815383,51.2614190693348,80.9425754125037,65.6181505974445,145.272457887072,82.3535075700784,52.2286089156589,148.44827513759,77.4923220337962,151.71911054943,95.8325863395822,43.5943226786106,223.522973536987,44.8967455636248,175.194609770142,89.2649330029778,-86.6985357968361,231.70872912557,24.1156672895764,52.7451453843821,325.276350504105,31.1647413903363,126.659523157338,17.3481644448633,339.190556676908,295.696708011192,-30.6141186584745,-56.3329141388181,346.017731673215,322.954365307531,52.2886254639632,519.327162796291,296.754517856178,52.807192463908,-37.29396858676,7.84950993785543,-29.7515804521569,-38.3360776599189,32.521815634951,-23.5917192181987,17.2168227479829,-3.88994368484553,-23.8463906239749,-27.9223949531452,24.167619105453,10.730427215826,39.1559398771066,18.8030394457369,11.4010306737378,-22.7893571307702,39.7469191675256,7.37494190713355
16.4766927261308,-15.1064895945619,15.8458019778894,1.8911587110969,-10.7186074567507,48.2249109847031,26.1314473386604,67.4969058750131,31.7404692550058,35.895698701857,4.75329581325648,12.129732117581,36.7623606398946,22.1891798628569,48.5574060135157,26.4103333122878,118.317865901135,52.5766790077579,24.2625485878642,111.90613421347,51.8156418209475,130.348284383252,61.956570805977,11.4455608257574,199.38307679657,18.5176033038578,170.878404959698,84.5237047790811,-134.139584398481,237.256163706789,-1.62830340160004,1.09582627223875,267.31716368484,87.5965389528435,103.506307574786,0.623207109023082,254.517997271973,237.774719576782,11.7065930315834,-65.7910623984841,246.903919808925,242.986485734135,38.5786073710995,383.066703125812,231.693047224539,32.9998027388388,-54.4793469193146,-22.9425394786485,-44.5367096333243,-55.5909209425813,1.63079119269457,-44.9755030411848,-13.0642807324379,-35.4772046333052,-48.52397656594,-52.4968429525843,-7.7525785189375,-29.0194494900056,9.65282480752013,-7.9989251619285,-21.1019388364326,-55.3307511192673,9.79450505798321,-27.4424584763085
-12.791623593754,-43.685940832699,-12.8058606482594,-32.8485745154892,-42.3587063686395,11.0077023639703,-5.5939080476661,31.0542997579249,-0.67763345234789,-3.62189070047883,-26.8486151724581,-25.3205124374272,0.555102963793373,-7.9089812517338,9.25281283677715,-11.4530868473073,72.6524691339309,9.88001955261755,-8.92907748820484,56.0671884901896,10.5874888168737,86.4288735040675,6.31036403477589,-32.8415953266776,141.167284134269,-23.6946437657482,142.544862003549,40.7351818601637,-165.133257085,195.240651648811,-56.2434915965539,-62.2248649202697,236.263314436578,99.8953739030683,34.8337512464195,-13.5804385894563,165.49020300041,220.631750632927,-8.90595485863169,-124.892595284538,170.579084032792,199.179876873974,13.4884309441548,228.833411800596,211.120047767207,26.13098546131,-55.5398654048044,-36.0120155441172,-52.959628132651,-63.2144190443993,-20.1794030717042,-55.6874008620212,-44.1452002549515,-58.7632369495374,-69.9789091083697,-65.3560558261517,-41.643909996972,-66.9308432660279,-26.5584098547563,-35.5408995590839,-52.9580761411934,-85.6582993548707,-19.3694073760639,-56.3396721070588
-51.9875349326318,-83.7079170155458,-51.3000396964072,-77.4180419568323,-78.3194010187352,-35.4296939281944,-46.7764185935335,-11.5519270301818,-44.9224378381896,-45.6087532893701,-69.3653030873394,-62.3033649642032,-50.6356893328514,-49.900797605187,-38.0956428046895,-58.2216676188375,16.4741548053784,-50.1196664744735,-69.9262890829017,-4.55309857350189,-52.0375697381281,38.2465524977103,-55.9822176740575,-97.7634898303283,79.3199111464803,-80.4940520122911,116.160992848385,-5.23478726680269,-204.363768074714,155.21270695377,-101.103280952541,-180.874729587277,116.231779167725,106.3064154985,-12.1142500253591,-38.4401397652622,-11.2328433417097,121.379391450851,14.8962353600861,-134.326181683977,38.4724242964894,78.7145750369232,-33.3614361045125,27.6791811498204,112.031098649252,18.245902985977,-59.2652394937632,-47.98168083134,-72.5317420035855,-75.928938660499,-39.5347016552163,-73.5891194698862,-75.0322857919893,-81.5000121668177,-99.7341158573327,-83.5653900750083,-76.8512452069623,-105.478171627804,-66.1282016740441,-68.8672908216701,-90.4279822558802,-124.198592627427,-53.2216838447594,-102.335213403226
-79.840933377931,-118.386024028585,-83.2354221074786,-107.017272595396,-106.087006174307,-66.6899782547826,-83.1969079520844,-46.3879942364562,-85.2414970512165,-77.0250878187739,-102.593434739609,-88.1616142379428,-93.294604528314,-86.7321317575363,-74.999420147885,-101.892216348986,-27.4589131891813,-100.238323727569,-130.971627638143,-47.1408767289927,-106.721566292914,10.1385876876998,-94.7037094961181,-156.306408432129,52.4075077574355,-119.335614496722,103.876822405483,-10.6230356281742,-247.323099143641,158.950283275321,-86.950918358981,-327.076429981138,-83.0399394641676,110.829514957834,26.5107937897581,-81.0420603525373,-227.870122889863,-58.0667334689623,86.4303301205126,-50.7049384441506,-122.1163607166,-103.638429416717,-83.7019854817497,-157.848831282985,-61.1771180362724,4.13985792560656,-74.2739248608608,-69.0747872413885,-93.5355795293891,-96.0697636916842,-59.0632849112568,-96.9242120225974,-95.8258959149945,-102.139769928373,-129.663844700035,-104.809752422336,-100.328846923967,-138.318058340043,-92.9950659948034,-98.0041171850316,-131.714997662426,-172.433646031883,-81.3596503276657,-176.181076987248
-85.8946054141525,-128.233109340981,-91.2615683836564,-111.541340819488,-117.777118973731,-74.1022827537724,-96.4763356997355,-63.8396184022933,-103.000225779212,-90.1595639764748,-116.285120547167,-91.8238215252481,-107.909967579829,-98.8851427499742,-87.1585337846245,-121.700003221439,-49.7951470963501,-117.418414378623,-155.455916941727,-65.3427394653394,-131.970397397004,1.69574873237743,-101.461319557596,-188.727984341958,56.2729439306703,-123.382326737451,97.550432626671,20.6741052407546,-267.92105735287,202.140974166894,-28.1004249486709,-438.214677232098,-277.8010740372,115.251863772559,130.759035203361,-153.740040288905,-412.217787101681,-245.179270879356,168.032922472641,63.202584418322,-279.176473734961,-281.734800457563,-154.002884087741,-305.139152681602,-241.891990235582,-23.124646502572,-108.946257326755,-104.644714045131,-119.789855907639,-128.417340222398,-79.8322596884438,-126.746059632739,-107.924651391889,-126.189955923824,-159.875877383972,-128.823791388812,-111.229517479662,-174.959940277422,-103.544507430705,-121.531354950085,-185.479793974943,-225.836339758458,-95.2115978270824,-264.713559601541
-91.134624468863,-129.017444086563,-89.2143505322034,-113.12749814738,-127.16537020337,-76.8757549983854,-100.132029391253,-72.366105428702,-105.486630531003,-94.6410436374395,-126.806104488672,-82.0742633780187,-111.190634530449,-102.290715949646,-87.8114961488805,-128.000600119019,-67.3642198538342,-120.606130576711,-160.705857635808,-83.4084851198634,-149.321339201318,-12.4835455442758,-108.008421323592,-215.527541819354,50.4246084062231,-122.650785182782,85.3524766358786,45.9011878728606,-268.557727548358,246.142780471225,17.7961670019909,-498.602633526922,-443.678840666042,140.621104263467,219.827748901792,-233.673314703949,-575.662672477296,-424.684667921058,238.332519672527,142.311740012665,-461.846292567353,-463.943738411393,-261.339248288647,-483.874126933725,-426.076926023278,-79.3256676354786,-168.200974656452,-158.656099633511,-173.129234743996,-176.848577875404,-111.639865729525,-171.176359119729,-124.729734360672,-166.186160915066,-205.094271826111,-166.930191321785,-133.397505559207,-227.045121405988,-115.198698646035,-149.719888332143,-254.474486301068,-266.275704115288,-105.519441459912,-323.786029705855
-106.684303150332,-138.364111045097,-97.4332744283282,-124.977213851238,-142.274071228291,-84.0462655846575,-111.926721761005,-85.1486128796722,-113.692709811044,-103.211589010205,-141.029242159535,-75.040472858574,-121.252215536179,-118.422531848243,-92.8624594141555,-139.253807996539,-92.83900737808,-133.72365620389,-175.820761071033,-113.019351945611,-177.448413865224,-37.4449101707791,-135.301683806048,-248.166463141281,24.288161231713,-144.055874835635,67.5503001370094,40.0061582685701,-265.314019690625,264.257865322937,25.2900259282289,-515.675030030872,-568.051608285089,180.527801607902,253.15485072861,-279.197214740365,-701.813886790302,-577.044009185761,277.659584889733,173.198359350068,-638.860608392124,-632.252339578413,-363.100529408887,-679.285068620631,-589.951354674267,-152.207120456188,-227.297300000535,-214.211493359619,-234.070064082915,-221.713540530115,-152.289149627368,-212.799632813721,-146.159106712672,-207.179781156959,-249.299881895375,-202.603875264303,-172.419869805563,-265.828662501294,-137.990568308534,-173.747451659797,-300.789490831187,-266.517088667487,-120.434892937119,-309.635335996917
-107.952647547589,-137.123679608298,-101.990175417491,-124.852012964939,-144.402495365718,-76.8414378021524,-112.6291569167,-90.6005827858289,-118.603359973999,-105.383401745385,-135.779495522002,-65.2610942835003,-121.01309165108,-126.500033299067,-87.5580219534047,-138.748894536606,-104.377257216488,-138.284618688712,-178.804964137521,-123.386314814283,-188.605784249295,-38.9543655228119,-146.067082346928,-253.510812059936,25.8631356861233,-158.212752908218,68.0536156330978,35.3741137312086,-247.552831485426,283.671704264535,26.8745405070424,-472.265220402496,-582.46859461972,210.133687127802,264.676964026051,-280.519368295223,-695.544091187755,-614.032638893854,287.388604783457,176.300783414642,-689.470076083905,-674.610816624515,-399.830404645451,-752.929267011928,-633.423185836547,-185.677249921831,-237.915408626925,-230.903422848797,-244.341778612753,-225.169628161158,-166.014591592754,-210.999952845672,-151.047076971626,-207.471773285824,-241.960348067515,-193.198259563014,-186.076236757056,-242.296547276873,-150.074714069545,-161.797190767516,-270.839396072763,-216.310765069822,-119.44303230088,-230.762969047523
-75.4123948953492,-105.515153664705,-76.5166203390154,-93.4998617885129,-115.587002614392,-42.674613105051,-81.5826342460532,-67.0781853541214,-92.62781284821,-82.6466480285976,-98.4722279886262,-33.3850391912674,-89.4005857686603,-98.8116384006137,-48.9165027351148,-104.516910063403,-76.9139322926506,-108.800434158715,-141.207323383757,-95.3480001124708,-156.6643034841,-1.85755855649305,-104.807000191924,-214.456023653482,81.8363107758521,-124.483024329866,105.391825908089,72.0853555727524,-205.964550079026,339.197295309133,55.8716456842082,-385.84974716351,-471.218501417153,239.127860924237,282.536220703889,-267.031993534258,-550.8669738056,-509.602792317145,300.893254109571,171.262656776237,-580.400903161611,-556.148479211693,-364.932453213796,-656.920317078431,-532.057349930486,-141.922480279188,-182.073439699789,-185.29337968312,-184.137461112764,-170.663637656509,-121.729051412545,-151.728613664756,-119.481195466578,-151.73179200645,-169.13268263083,-132.861761107914,-137.89297243832,-158.147690702514,-119.556795202152,-103.841871874906,-167.255310763945,-134.0040177869,-78.5164771280326,-132.838459775718
-31.3217308477664,-63.9961665210118,-31.6397508032457,-52.0559326847549,-71.7976169954836,-3.3615029503893,-44.8612995670299,-29.9248173674305,-47.0636928679854,-52.760774700764,-59.425223109068,13.5939064721474,-47.1494448290696,-61.0420548947682,3.84397720325189,-59.5430683522821,-34.6903043167084,-68.828555298935,-94.952754299709,-65.8650420961295,-115.726979286671,27.5319195409322,-55.1191383572899,-176.978900817514,123.917226183055,-68.8132946269801,149.930814054665,115.907068179262,-165.906192130225,381.280621270295,86.6163805413904,-330.181111199375,-352.88294883738,287.890684643421,268.907021881932,-280.062790743526,-410.29331612215,-384.548228024911,326.46975249821,148.624586630713,-440.62970176807,-411.246798934975,-298.1882394425,-513.229111315617,-407.887050403169,-58.0343918007911,-99.6374265321511,-106.374406910532,-99.5801266315971,-88.5021975764755,-44.8489903112917,-71.3059950338854,-58.0148706584985,-74.3880507905079,-81.6563946241124,-66.1602025657554,-56.1661081641262,-73.0614114878537,-53.2889245934593,-34.4221960786776,-60.1645776730815,-55.9803363890551,-15.9159330499609,-52.6626743227039
-12.6437069282176,-47.1167426704444,-6.07521097603123,-37.147634186054,-49.9061890272536,6.01150446226381,-40.4715439422316,-24.3766555959439,-26.5055703697915,-55.7906828023536,-54.6872167138956,36.693846282885,-38.9696377356692,-61.7223629389981,22.2012090783803,-50.767306881117,-26.3878333117193,-65.4808690994986,-94.5161292567062,-76.4356737065837,-121.424611933197,4.24919825855962,-62.722610678814,-188.510684715533,76.1221269016955,-59.9373851834269,156.890438990099,94.7120732456096,-152.287661225663,321.580619528866,58.4964438663981,-332.283746674406,-336.628216057069,333.28544440616,172.82683201713,-330.682315452792,-377.618746323963,-350.990993802767,319.576527726999,81.2592814752936,-392.082544559665,-361.673389257945,-242.395605726042,-437.618216777383,-364.128277517894,-1.40670081240177,-42.4208055774299,-48.3491414154143,-44.5480661743722,-30.8966203303093,7.92978674517581,-17.6725424210526,-0.542757194988261,-19.4244646432669,-29.6786625479057,-32.079525734513,-0.842044737545579,-31.5280752798812,1.14829273353513,4.41252471933713,-11.0702891168483,-11.8655892402116,24.2229119837065,-11.0672991984338
-13.4322625334455,-46.8127742120036,-5.15630607795535,-43.0311251335655,-49.9951486791241,-8.66453486952142,-52.0096003664894,-48.8193394162929,-34.7154333915579,-79.0145047117586,-66.1330025516,23.8041300901027,-61.8752238580446,-86.510415060854,3.37888302015647,-74.1213751332582,-45.2066387922556,-89.9634660185181,-124.359101455376,-101.177834331267,-156.887588210511,-31.1528741910293,-97.2010664672733,-218.434797783034,-3.36435646812009,-95.5263358401618,141.146562750725,28.2140356705845,-142.041163957678,185.889148275004,-32.5850581906323,-322.721409169496,-358.840258508047,339.42347164542,15.6131588606447,-377.444969060249,-376.651540175813,-357.083283005039,256.010276738754,-26.4007181342598,-390.561732862449,-351.144286331824,-206.270672356935,-394.932447923321,-351.43930573581,20.1863553139602,-10.1753799511381,-19.8132334272404,-14.6270472492184,-7.52722075654485,28.415555103144,8.27063456699108,35.1393155433018,13.1685458799895,-2.40747649507337,-18.1949301647998,19.912052000378,-12.0216295401926,26.2605751478027,16.3065696660987,-3.21878254775161,10.2224115619494,40.7107180648302,3.02266907326116
22.005396060288,-6.26098871858959,22.9276251088189,-10.0858349712028,-11.4796733266964,12.5739927641387,-15.5079488496729,-28.1423507311695,-11.979506042214,-46.956348436087,-27.5793273038528,28.4160975670973,-41.933857931782,-54.4539223168789,11.6393912912999,-54.7074670896272,-23.4380579573921,-65.6512166253335,-97.3890319899789,-64.7331146625466,-128.93996511849,11.7756941643289,-52.9960358501123,-180.492562920278,28.9672210502584,-78.9694376758577,168.346851334927,24.7280948565863,-82.945980370816,106.278052222321,-106.488778963529,-229.355883176864,-272.130969814028,320.715537657744,-111.039160152538,-371.146963656262,-256.716187249889,-271.083124856175,188.370891885329,-116.402271444269,-298.650593278012,-245.873294294343,-156.670851749135,-268.26001194816,-253.45593078292,65.0319515392645,45.7408592584181,31.6794022727406,44.231683985929,36.5059520845186,72.8416337854863,55.686676550963,84.4407272025933,67.9974490440953,52.5945874577142,29.3914360158261,61.995816830494,41.6654755323182,69.4109447420024,57.1206255720208,37.764087073799,62.7904049006444,85.0663312028083,47.6772047438959
127.15636426811,107.29528325156,120.253462639017,101.959612365097,108.403279908635,108.641522293255,98.1940057242493,87.4115795677206,84.4965977060215,78.9641691467413,94.6068272667957,103.268504325225,71.4800983750556,77.4026818494402,95.1430338777992,60.1530434023654,76.271852473013,55.7484976870349,34.475521007515,65.5656932284205,11.6237749541449,155.281546724949,104.33719657671,-36.1938008145598,213.710713662956,43.9245281487695,272.258633297928,123.796202920995,31.1722102854594,143.573874579859,-99.4891606683884,-84.3411249625805,-60.1412389412075,325.324079492707,-136.474456850299,-321.80396936787,-14.8025127324879,-67.1982616572648,180.199299607254,-127.83202268835,-85.4123426870777,-35.3087423759188,-68.3311951611786,-43.1376838764469,-49.7259115378613,170.398707861435,152.362323856996,141.998271804024,159.596946157806,145.975080646176,178.549619252404,158.948326533228,185.48631111281,172.530734560468,162.537295889973,142.706971976567,163.285086027696,153.195411905247,169.919112575351,167.580367093411,153.00133589599,175.197593265712,186.38447177693,162.512464098652
258.815407177342,247.727311142542,247.409925091008,247.369708559586,258.944053688221,233.933806975879,235.6902463067,242.292768398836,213.058338588622,236.359503863141,248.758566292269,217.223790258841,221.178280337336,245.377473656327,214.14491022884,218.00321323496,201.676645423323,216.885439906471,211.835272698138,228.432641549981,195.645631333007,315.536662201916,287.168535638353,153.914884782338,432.626868141184,208.051878343907,405.663871860774,250.473697943467,145.356579993129,220.092635596175,-34.0926894265921,19.5835165497366,141.864844632554,359.859166457009,-79.1495695132541,-272.382050669334,182.9021249318,142.135992596906,222.961376798923,-64.5827450786149,132.507097021219,158.166913116168,34.879048417525,149.684296749866,155.337888310328,295.501570127924,276.791802229915,272.888882098649,293.348391611575,288.174837921487,304.597746026999,289.765693721723,308.495292441389,296.682117749788,292.786678264188,284.242186335482,287.396003959035,286.21826498579,293.149800167782,308.80927851747,297.468082751905,310.693992776912,306.574460067012,302.1866359599
345.20249016151,340.109648586779,326.902755252185,344.176957186937,354.996590894994,311.788307223916,321.818041474004,344.419428260611,297.530198011403,335.166753668398,349.954635614012,292.714947874386,313.457574794613,352.04772592176,290.158850856701,321.57612421336,270.289572761818,318.586681792242,336.084520624764,326.452318565566,322.61456732762,387.082337449519,392.67160213615,303.516581065285,531.526215818061,334.801911307626,467.642319216668,325.860536514735,231.937065795843,223.94880744985,41.1079493041844,88.2723420328841,234.866958503335,368.910515576916,-18.9032460914676,-210.495235044533,252.6642212788,252.130490970318,257.884239895805,3.47654577162649,257.849200835834,250.558577800456,107.302049031551,214.537022158125,264.421231524887,375.693903921539,369.167130208604,361.57341968599,388.847086658515,396.277241764589,386.820620745239,390.278939308031,390.258757909175,387.543531492821,385.781969371457,390.176116903599,372.442781887,382.7399657162,373.645642758912,403.790278590662,398.399521263545,412.435398000011,390.476830634386,394.300557300669
367.753761527251,364.695894365119,342.820581097302,371.579198849551,381.690659182197,326.869543294847,345.963053107076,372.73842380171,316.912785623041,360.434255046481,375.658394070799,304.707454177718,335.154902961643,378.876917012571,301.766954501402,347.275303735909,268.265919266088,338.870849637927,377.726427429019,330.419159783424,374.948751697472,348.830294191562,408.109885463145,394.767470684022,466.247323741899,416.672981769119,397.07601115051,332.297767711264,324.251639118049,124.190063172522,107.683737772712,236.800954985712,273.004444713944,307.848135416811,-4.10020326633771,-85.1120346917289,309.561517650484,289.313327135885,252.216350503386,25.0766281009401,321.645905175726,290.255263507903,130.470202806349,220.306803123195,302.849280377246,403.599508834506,414.894650010852,396.611664078821,432.117764697151,448.205775637436,415.344628297266,439.617481458854,416.198783340421,424.979277988666,424.66711338972,443.44121261695,404.289036024396,423.874149555163,395.303586413003,430.438336593832,440.977235298987,462.212090526402,425.33831341569,430.88585721924
367.51510336262,366.521549224595,344.940986545323,377.098883340389,392.129966641341,327.125394261065,357.86248394458,377.360516904397,314.672051668323,369.779205199036,382.544259431171,295.624565011598,344.577774676886,387.076677121844,296.926918850796,357.350559690158,254.669284257787,343.313241833715,397.143652208038,303.607104999421,410.864469695791,280.266558409018,405.659283673511,476.528238946825,345.655907760039,484.117692456056,243.044498275056,311.986242089668,457.959920724586,-3.31933401681873,174.293246814525,524.261048140032,367.111900474984,185.600242977452,-2.78757079212723,131.154256592022,466.151927124263,358.362344840619,221.3817094133,40.252277948526,422.411040351396,372.709126320369,153.866413040003,294.942471990338,368.347239128433,418.644864858674,435.943339465851,416.430837069778,454.421406065498,472.952768257555,426.536030339962,464.017618924133,420.909757193718,435.852576155204,439.682550878074,471.749242619907,416.02803753765,441.564394850665,395.859023132387,432.056607116792,461.689317206688,479.828491215735,434.802532506935,453.441999920893
385.021150164232,392.807116469775,370.690439756734,406.019033969918,427.990630300267,352.553478747987,395.794138219027,405.252456179723,338.723391234001,412.30853495284,425.542397271741,312.438251981538,384.100812760966,428.418393996639,325.169847764367,408.053443814012,278.991640103412,393.064306556504,463.322961434122,320.29578574032,481.700019396595,267.679996591929,454.355105288068,595.18867504201,316.283711225192,570.283299022346,106.629404962735,332.897916629856,649.369145072647,-66.5614839050366,251.441975521956,894.538482339428,546.897878291483,6.96740046492496,23.7630891132605,456.626764273872,696.784298050691,510.452116750122,186.105250225883,105.123192951084,620.997687084449,533.257546350376,267.948705330438,474.857071610793,512.319178339185,442.244641497804,464.133029060533,451.531090014519,487.492381066639,502.441636324632,446.902681317218,491.046977863597,430.739473038539,458.044822877687,465.203975404966,500.680163054408,435.269385444683,470.414731818211,407.204879898793,449.753598303078,489.301520095585,497.680810974636,444.736449791218,486.640180915197
421.966829588498,442.464016311961,410.539286580594,456.370516238177,483.117702180478,397.125920914616,451.737958280788,458.937372875427,392.278709569612,479.490615404371,495.409162447075,360.114475684562,446.24741181882,494.804111570897,385.339224650767,487.649631296456,331.718705969294,480.091098689289,569.537198559061,385.764097532272,578.451188189007,314.279960795027,544.615081336215,733.860660297242,406.768243172145,668.834860271658,37.7266213668672,399.449481988287,849.268565426065,-56.6075081271534,289.256131871059,1225.53149752514,751.581769927804,-220.063418288845,25.9547608124213,842.714434389976,914.685145659093,704.866353294486,130.603498175583,168.485048879085,858.22731912681,731.886122306792,465.318052749492,684.709774262045,705.822681962669,462.243390235431,509.772441994436,491.824353691882,531.538039208445,542.206250577628,471.693928827358,524.792641307895,442.927601802406,494.601411217581,505.44508107698,536.001029798334,459.030617645213,508.517561124844,425.382639580544,482.530187912237,524.732973040647,534.721303863703,463.003788288067,525.411140450953
453.826160836884,478.880596789499,437.40267946254,494.884801990499,526.528982176805,432.619126089508,497.909446685666,507.631918294775,438.407405982437,528.924149218398,548.806668902867,407.386966295854,498.082677994815,547.93459720686,438.964730429285,547.966901831618,373.57508151423,552.493743058286,651.421438560545,448.414604138501,651.460802646682,362.852654604068,616.278544603979,824.874396778207,528.464957018501,712.895801600998,30.2294323878785,443.853317096471,916.75414456591,-9.97213529960204,209.193098973097,1368.88789856016,898.627746591344,-388.313648533746,-83.7057842676325,1113.77697235319,1041.410039159,865.826220835552,14.0728206692965,139.453055609466,993.796339437476,892.294966557433,614.799628812397,819.07594773093,878.51800038862,462.315238873773,547.962377139177,508.141475955681,561.186714383312,575.146795678318,483.335355769086,551.274475056237,443.389062036571,515.09859620657,533.975237768353,565.311040704086,471.170776917155,530.011511551067,430.616232996285,503.794314939757,548.622987108191,570.076606413675,475.22927405476,553.444619065352
467.681250305444,488.504919332744,445.88024714811,507.040193507029,544.135074006118,449.885563062765,525.721325570039,531.815861975546,457.247368854572,545.675709456366,575.695234694175,434.49313737022,523.393803692729,577.855454186149,467.580653590956,576.644847739582,392.821669902098,588.651286254973,687.968721255621,477.46744918336,689.216445573154,376.593813765745,650.111613281488,861.061300212443,595.560033398909,698.299891642533,59.4377003621539,453.330281684526,836.312478779628,83.7234298102923,92.4562301354841,1310.21127865798,954.738847140223,-378.399047645166,-229.497281582449,1186.94123538937,1061.37441146789,965.770620523669,-141.411751251449,78.6702869464863,1008.93723042465,981.10713248435,675.222516358026,868.271897471607,991.569729652252,447.069308826813,557.231212324842,499.43316591959,561.624848803834,585.493228697673,480.644071194057,557.407051816211,430.918278227934,509.000224844968,532.728071210159,572.73471161111,468.826500945725,527.289826663501,420.544180021401,500.067172245862,546.263750489971,572.460809211846,469.676773479901,560.030772689447
490.241418545111,511.138972211837,464.500137847696,525.369612384265,567.372628018084,475.070623108736,559.531531600436,560.169688223189,484.634111929111,567.947457802517,614.467356513204,466.611610996054,552.37356288613,620.54659352123,502.081892775405,618.716947046063,419.274168474552,626.188418502941,736.804088736363,499.26358382514,747.975733519304,364.730769011241,688.396855029329,939.649234742377,592.458305590058,752.118505473143,76.7603890062772,503.777113420254,842.917180556836,254.223191128809,175.053334543616,1242.63218452404,960.922235274205,-269.007521292311,-151.456327143583,1243.68323013814,1048.75626724082,1052.09350727437,-203.019080658963,173.841799011728,1051.84673263425,1056.04010459287,772.15621643948,947.134771740474,1084.05033186945,444.219764468329,560.652099432087,504.304498526192,562.221916244582,589.839108323371,491.626968508452,561.990048893211,432.471208041666,514.095156639742,530.266457755033,572.292820003281,474.749865127388,531.137059351201,425.996039182009,498.444709593324,542.69312920454,565.947859183417,468.110997754521,563.534040319232
543.055219931773,569.729405802184,509.117902165534,573.751698403567,622.681726543423,523.765045513611,612.715373244334,614.770391327991,546.04045361923,620.088165373838,678.695482848639,522.142226095324,609.734153645149,691.123171528222,561.588493258352,694.79305655768,470.000628017592,687.560903872028,823.608903106001,539.843026535559,848.513702496786,350.536005014258,752.91742952783,1089.01901290575,555.790400766286,917.389864360451,51.2580598044037,604.48773677894,1057.41267024878,433.597838374126,514.917174347599,1253.03715558092,954.74832506636,-255.060015079386,210.457508807676,1429.98011287826,1038.83749343794,1136.78274044323,-102.92434413585,465.626971174328,1162.85101899029,1144.90995132703,957.154356586496,1096.32186883148,1173.69655587196,464.526818625711,580.29563656708,537.146211066438,590.832725183565,609.817232757391,527.527916434711,586.325636574689,463.170527906498,551.631187428791,555.079775030423,587.007350811211,504.153753414833,558.095846850076,464.166698785004,524.283781056149,565.672564830948,591.761103397846,491.549585477248,585.974030397955
571.315560987078,598.070280303295,531.872760049306,597.288043055388,650.971481007206,546.499286340288,635.111006815584,636.47074061306,580.795922150356,643.923815411376,697.72545829719,550.221270534812,640.307023089904,722.963950133826,593.123101236407,730.976586162785,505.362157161278,716.175187605494,860.955423463436,567.586397422459,898.958058219031,349.228070453999,786.31488193978,1156.76526986813,525.930726684538,1012.48355954996,37.8921891580939,637.439706746197,1231.27554218619,482.018428755621,856.31752138638,1167.32240170981,912.630412821079,-349.929970110892,531.617998716213,1573.46842499174,969.280705117578,1125.97864920834,-9.90502239612212,765.471961671206,1164.25169256724,1146.79642644661,1095.27924979748,1150.16100936391,1165.27583554672,465.223976720187,572.690686267114,539.001818456124,596.811879741996,604.655174333399,532.447353069243,586.787884440438,473.49065003572,561.90447992092,558.214615342532,580.477033271024,515.451590485999,555.557696977046,483.061210372954,532.23791762165,573.181152121574,606.07643339063,500.032186239339,587.973905519322
496.048296480197,517.272389381622,467.613384078575,520.00312594992,565.484540374683,478.518056797203,561.56525945249,550.195212509479,512.189043525595,563.430584112568,596.820046659176,488.894729505936,567.774582321634,638.028644495782,534.482699526724,646.269902389288,471.75762525102,646.960023814864,760.137490963414,530.34729793455,808.372273125842,356.431454358772,716.584431052043,1017.27396633578,494.786430107353,884.00885754971,90.3025599111104,531.269384773745,1121.24278821019,379.734164333088,949.515253692075,898.048470128595,824.396654522138,-379.426142883971,565.421694622985,1416.49415683751,830.4812059261,972.981785140485,-101.83301570354,910.877015262151,952.30502598478,997.964666990387,1058.17332842876,980.661687991816,1002.78820380853,397.006963396179,478.789022570872,448.716909687785,504.182714919761,507.79184852939,444.312199388251,496.769207381351,400.846938056433,473.922513907703,465.295529960681,487.789873758656,446.405530726674,462.368320733071,417.385372360552,454.072511942357,494.651575538383,521.465316568024,431.010004843255,500.231133799237
331.83688549272,350.704151778427,322.231032554389,356.739473898603,383.06021670368,332.641108009277,401.920431973442,373.821863129708,359.039512334571,393.275845105971,408.123513974178,356.155092194373,406.746361531069,455.338330574327,397.614750933954,466.285795067245,362.875853052383,490.484221771024,555.937137421495,419.110558767513,609.586781131129,333.041185865115,544.214316494339,752.619253669722,395.375146949071,621.151512945308,139.166604359081,348.498752071468,814.607189576305,251.79340112762,799.145534362355,568.64384394876,707.226213835019,-261.259143882938,475.437210294663,941.851591783219,664.405204334861,758.426446416427,-231.509104114882,902.812585790224,639.237905123578,770.942519489435,835.883309286096,684.650763678326,773.251435781055,273.392802335892,317.374702548707,293.625272596329,333.101152956038,334.381700401889,290.145416860749,329.066026107699,260.89702507155,311.507061416684,295.109846551025,321.001125038066,305.455985491533,301.1773481287,282.165535542114,304.943816945018,335.074664575799,345.558461201277,292.118082609285,330.922388237143
167.110020297999,185.015871948125,164.650867470438,189.647644703247,199.238086191611,181.647606498268,226.67746265088,187.474404775628,202.667305261754,215.332126342032,222.852916826584,216.762742486477,237.102811118766,263.120423565049,240.834025499474,276.782496197642,217.372004777817,304.979040688637,343.660584841096,268.473028771489,394.344422363543,243.702062082616,329.010208467241,502.960798256758,188.202418838233,377.497537628534,93.3356898959798,154.443702563899,494.157581437766,174.490432261278,531.306088546585,221.729707346971,507.159087275905,-91.532688393203,488.275552755706,354.175559950156,400.410466739878,505.564787467764,-97.5050813292565,774.716809093199,312.029468315908,485.000838287252,459.657353746545,354.15299334085,508.997551251405,147.431510693255,161.14821319586,148.727417579011,173.72685051023,164.984973637741,149.904440925467,157.424526007676,123.186962634629,159.766565266085,134.473974490061,154.958291527635,163.472981376418,146.476517246274,145.442663123143,159.421377622523,166.108663506928,170.624314852411,150.214112321511,160.937402721654
42.2447757722603,52.8399416778864,38.3526240160217,57.2271081797576,54.2016893292342,63.9329602857246,80.0795752208629,30.8871443710698,79.9907400870847,73.0281893575681,68.5972318523014,97.9527196150748,98.2990167423528,104.701096339643,102.74351253719,115.823820442829,82.7636948364259,132.156397233175,159.521801500016,119.825301245289,200.425247738193,117.038807047198,126.519384184873,284.314192801884,-52.0271770357202,167.753713563931,-7.07937058157856,-45.7995768464221,183.582411798953,110.429516024496,234.472226629703,-200.17823472943,163.394532062162,39.3546440990646,544.881760576872,-119.900420982796,-37.1507494195604,144.240688436013,278.226515680121,540.288334309642,-63.0643697033177,83.6630156856118,-9.14432236451676,-41.3882904889291,133.731395611145,41.1487711450978,36.0600440194219,36.1915437723356,53.5565588034282,29.9271898845604,46.2672703472578,14.0360823116946,17.6407624606625,49.8007407595992,11.9956599057138,17.8043308298547,54.5891382748657,21.7716209902379,36.5074320567826,45.4259450320648,27.443030295211,36.39288496875,38.720201410372,27.7840182989261
-69.418721772193,-73.6685219363964,-68.1494908941896,-59.9275688107653,-81.4549491965296,-38.4766790391493,-43.3599612989889,-108.218636451565,-27.8130973169531,-47.8984675083506,-82.0134882738587,-7.30973882939577,-22.7113682642875,-39.8979783892919,-10.0137392346056,-28.8268096858676,-13.9926026532857,-16.5938944287785,-12.8832642749532,-2.21997669985141,20.6382466228424,15.8533541983603,-36.4774676105687,49.5116889815965,-207.846461555474,-51.8648611909295,-53.7914796502863,-232.378216949158,-157.4018731113,21.6890745140583,-32.6729932153139,-635.399567636596,-226.991381540655,150.120981702705,466.902663502832,-389.246172352088,-508.443696585501,-265.185106908208,546.107351936482,249.795346204666,-445.536115963431,-344.320168335,-446.315814763199,-443.85915889726,-291.66535436727,-59.653482897829,-92.0956001145653,-75.166526825069,-74.0820779043857,-105.763131727797,-58.9006876490286,-123.908588512673,-76.4845701314014,-56.3523324952009,-111.212534359832,-118.983931872134,-46.7931278539636,-108.212005896713,-63.6258538701849,-63.1113430975376,-96.891351781874,-93.2748463843513,-61.8906808848512,-100.149987308431
-176.102446856722,-198.61183126554,-163.398832404428,-168.240144657488,-212.752988501074,-134.231756231028,-147.629575352422,-229.942411411889,-128.021105706474,-155.059047171876,-221.143656837779,-93.6659936468326,-129.291332666041,-176.103736469307,-99.1480398117765,-156.503262484556,-76.6867607194712,-135.136137342862,-169.132719612719,-92.2253314377793,-139.305576395875,-36.1171265750195,-151.90800086633,-190.488145338379,-254.112944450142,-259.39430834527,-16.0992682063062,-354.875143157018,-506.299932743874,-74.8680061931767,-238.116289503776,-963.114272417972,-497.691565648869,270.220416709761,233.532715839305,-527.632361717405,-805.801627729895,-546.393261520811,508.544475461118,-42.8983078258251,-702.952065108386,-621.601230728657,-751.057956751828,-706.627710613199,-578.364371929391,-160.707818027068,-233.983207789359,-193.145754198683,-218.732953978886,-251.529501389706,-173.062573794209,-260.841163148747,-167.137907834177,-175.276130432303,-241.641903957552,-259.025390411052,-153.935256930763,-249.269283269496,-162.311400752048,-173.361245808305,-214.570254291206,-232.116223543722,-160.918385816578,-232.259758325948
-249.988331646502,-286.983404955026,-228.994871836591,-248.069690570191,-305.54348935915,-197.109709247755,-219.563609915445,-312.568956041144,-201.36759041325,-232.375695376034,-312.896459296895,-150.142535050375,-207.590811531896,-278.091759709883,-162.865743056089,-246.929264830858,-123.290201639324,-216.930731655727,-283.480246334482,-158.054149415176,-268.141075648126,-63.8518230233408,-233.527931369595,-394.214027623503,-258.830963889325,-414.904340660828,42.5617233622525,-399.102527128551,-802.852992366582,-144.539425244405,-384.989202216436,-1149.96396460963,-607.678821165127,355.164694518515,-27.5472290894913,-627.039643974131,-900.525402913477,-649.252496637808,301.298815744208,-289.530956393436,-784.770783838649,-717.624222686305,-900.828580858645,-798.568468963721,-677.882720691657,-244.735383707523,-344.90233534973,-282.847770535501,-326.023332426369,-364.761188640462,-256.289345909739,-362.693864586708,-233.357065746959,-268.593540788736,-335.760710903657,-365.514750867567,-240.584299440517,-354.233835871625,-236.502805888816,-257.996298694139,-301.859777037603,-341.737439046781,-237.61559547004,-329.823246853261
-285.872474324845,-326.493194919068,-262.197748662856,-295.840634979192,-350.896493923766,-218.3872586505,-259.8749315202,-354.724713880463,-242.836085187547,-277.19348784103,-356.464616506043,-185.32173677876,-258.479665309841,-337.58090981634,-204.569919581453,-297.639896573087,-160.03239820234,-270.071562699809,-354.148440439388,-206.598830591927,-365.748586262266,-95.6165276684456,-305.951892080236,-547.156729689181,-275.974021852261,-515.789753953464,59.1099336704424,-392.457926756148,-965.940183313894,-159.718187542755,-444.320139609578,-1171.37076813687,-595.740571783188,353.283859639126,-184.956971289597,-649.095245049155,-840.683425447678,-639.275227544179,108.927579768082,-388.977812335524,-712.482489785417,-690.723058484131,-871.356391822379,-759.573008983391,-667.892187087087,-292.99549122685,-389.681493912132,-320.505748078483,-366.135828674305,-417.196773480309,-290.792386531781,-409.696585857062,-268.260206758172,-310.195573058265,-374.923117699818,-416.819194194666,-286.147797935454,-397.091061127005,-274.087478328325,-302.137281405624,-345.399154104461,-395.242693932764,-282.881532294646,-374.362357057834
-311.144867416034,-348.352141557113,-289.382173178708,-328.385211018887,-377.660519562384,-231.061331900819,-285.987135020644,-378.441115580195,-269.992372123312,-307.496166322655,-380.40148577659,-214.397871040777,-293.04479649489,-371.441262219932,-233.433484805374,-326.242493575697,-179.181105468607,-305.843734752826,-396.411148867789,-231.688411148006,-421.16888689834,-126.087369563119,-359.911111378986,-628.370650659536,-285.674877831838,-554.509777125309,46.308431471959,-344.208413459865,-912.24057215558,-108.650122315923,-356.692085735554,-972.959817174085,-485.639136358335,289.979723519336,-177.909899455432,-516.853817083296,-617.492013941708,-553.266129810045,-34.6233628820097,-275.796743222937,-495.586937153182,-554.965623177016,-642.025688348608,-582.464966405795,-581.676820637816,-311.178760591808,-392.03528293174,-328.765918179916,-374.443801151887,-434.199022457517,-306.804146488103,-428.235727293235,-296.595000395306,-329.616615416975,-391.832142261734,-435.162584986949,-307.566068604042,-410.734700419098,-296.681323180202,-328.728420387308,-369.819482003709,-418.136135575251,-317.415888439911,-395.129205563818
-354.81556908257,-391.62104927922,-334.682956829571,-367.699494958189,-417.58154767936,-272.1308821731,-322.046791919883,-409.467953811976,-306.027021761537,-346.747198626962,-412.408906813178,-249.630127635245,-324.031899813001,-404.427922778734,-260.303893092286,-353.397126929223,-186.129969206706,-329.547701756304,-421.593350735134,-233.117621010621,-428.171607216627,-138.767911277738,-365.313949732017,-616.095398642129,-249.910351974542,-520.393459807054,45.0511753175991,-250.857843154641,-681.356283891433,-15.8075197014811,-165.525576433539,-629.002982097301,-351.437907790655,219.164803624134,-44.8884076304439,-306.557115670324,-309.076370869964,-439.862126700189,-158.943983532093,-69.4770648641899,-222.481240301582,-374.336400494564,-318.038830568981,-320.756514786171,-459.128074108343,-335.435363956482,-407.135959853668,-354.174902414362,-403.224111089155,-464.625900848149,-347.766805424132,-466.121942858973,-349.911329837764,-377.337289847352,-430.638630437848,-468.964690235776,-348.909881794519,-447.260520914977,-340.729681634706,-378.437665717354,-418.356340610692,-460.912082133882,-372.621092117829,-435.89183878877
-428.978853602223,-464.221064016696,-399.156543249959,-429.490408856152,-480.492683956908,-345.046779440762,-386.54470791264,-461.10860813393,-364.91862982407,-408.569917516886,-467.42196507885,-305.238776403145,-365.853564285645,-454.323155151288,-298.935828279683,-392.756563467687,-206.664868074809,-352.204179022149,-441.481956206846,-233.395690529274,-412.475235668459,-144.037071633425,-331.216605685953,-545.334377312664,-182.220873008994,-441.758262696052,44.7067852094313,-139.621613239433,-454.876781330475,72.1503092684378,-12.5027592932018,-353.58229191392,-299.906253966799,151.272143746388,99.8037801854948,-190.397864252147,-112.365480068622,-384.364588769754,-227.303878951023,36.4101194643563,-74.5235265905502,-284.188988557708,-88.5504063182802,-133.511084716308,-396.642467990772,-394.341642326736,-460.104639168912,-418.937688833716,-468.175982305468,-528.96964140536,-428.433640330075,-539.749898350044,-434.107511419287,-466.689541042145,-503.478024989795,-542.95926240169,-434.464172279847,-521.247744614012,-423.598294516566,-464.410272856587,-502.721149047008,-537.973190743442,-459.751917757916,-509.124247598468
-514.317073299324,-535.711455810279,-467.120466438437,-499.919622911079,-548.103799527982,-422.498001555503,-464.406164897401,-519.129023438923,-434.938955491019,-477.723191151383,-530.681998032496,-377.376832214955,-416.363946604389,-511.686166744553,-352.673651102531,-438.073691767843,-253.434186375758,-380.672033946487,-458.379414084754,-251.65641227093,-401.277372528957,-161.185463989446,-299.6523271881,-477.67172784485,-125.115211254222,-364.463510285148,18.5189951623185,-53.8190142228677,-346.999434471563,127.263373295128,38.3778488462368,-241.86871013397,-325.549822963254,86.0919902099894,165.108080462741,-201.180136979309,-93.5814402438345,-400.007622343755,-176.951916613158,12.832560602848,-108.831867653047,-312.465173350978,-24.8759683755572,-102.434195247031,-419.736868828669,-475.322640591943,-527.523729653147,-503.175029290755,-544.229327736063,-602.829566121939,-524.077037110168,-617.054024526366,-525.473066016111,-559.546441972165,-580.898512605444,-627.20117452818,-535.124143122093,-595.625523792081,-520.714488821749,-553.344957617814,-584.511818218684,-611.066534988137,-555.758581762866,-574.85487859692
-581.295903690793,-582.437427110156,-529.27029091339,-555.001833749918,-602.027512725365,-486.258898928699,-525.950067491683,-567.285922870893,-496.70227379834,-532.255089597767,-578.165154884787,-444.871682463751,-464.632525712706,-559.372417381367,-412.239524514157,-479.464591774785,-316.831379859929,-415.73976988361,-474.46616786256,-289.298732357333,-409.544095224741,-199.585340994793,-303.822269356107,-446.977443804111,-112.44818794328,-323.751234754241,-29.2756724184663,-32.1538463562956,-308.428330638353,123.657538082764,22.1347114245034,-188.099222250373,-349.509430418585,37.8525835898916,129.130957968481,-230.302260454114,-131.556324611902,-434.800796150116,-70.1330189328929,-48.4456530691891,-201.11938869816,-364.473344317037,-56.6249211430468,-167.857862785264,-463.465903158479,-560.336071773094,-591.362212771203,-584.702688969232,-613.042140319124,-662.928312396908,-610.932022078014,-673.976776358128,-608.997100375676,-625.232335984734,-636.24061083906,-687.951397010935,-616.211725684438,-642.263758180057,-599.101050366361,-616.308201730425,-632.274199301287,-650.386953254476,-635.600203534036,-599.225222406116
-625.904324216888,-614.506612874553,-583.937552191532,-596.90885886691,-644.040536674922,-540.492681837123,-568.480219805967,-610.22799856542,-546.614683928133,-575.244361556595,-610.446015090538,-503.03284057917,-513.416028304606,-598.93372651341,-473.666811758699,-525.079033024686,-386.480965892787,-463.737447488004,-508.621810369323,-344.770961639573,-449.190184911392,-266.766518625403,-351.134167222933,-459.391529946795,-167.613036133961,-334.656307836239,-91.1932160473217,-94.874920053873,-277.562471722905,27.8220715892127,-39.2848320283896,-118.983654044719,-373.945127104708,-2.50327417676582,5.85619130517768,-232.24843831525,-146.721601285656,-474.724918106231,-57.266985546621,-127.632201800798,-258.008283044813,-396.493708447156,-125.431622610938,-257.435398279561,-498.881840551178,-652.546795856618,-664.655944588771,-662.653214896995,-680.431835652081,-717.725188354635,-687.259942181102,-724.930451642381,-689.156727197875,-677.195249430683,-677.10982454891,-731.796382784583,-680.11987198361,-678.149570096779,-657.489027618099,-663.817052277601,-658.675257554013,-672.66999815732,-693.968966768723,-610.137899514692
-641.764898659951,-626.502698442879,-608.037161684538,-617.60770054568,-658.604501372707,-570.43778122973,-587.091299051204,-631.199460689819,-569.206905231752,-596.108866388547,-620.634824310584,-541.486975980551,-547.694819182823,-615.591252267983,-519.811711038481,-561.681179228067,-437.345692883746,-503.342268335894,-544.696632175766,-397.149051490427,-490.060743633432,-340.607728970596,-403.212318627945,-478.388794219964,-261.772465646136,-359.935359555617,-145.156395450202,-191.262808040919,-251.428701286847,-118.027934443883,-123.639525304647,-73.3950633038352,-416.746569388624,-50.5371331346365,-149.211967114432,-243.276043567688,-152.234446391051,-502.180196775897,-152.89723832256,-240.330848806353,-280.405568395175,-413.765710137129,-206.191813192923,-312.525389520436,-516.265678958332,-727.322744484546,-727.221656857918,-715.375220332586,-725.279256779915,-755.037293282603,-734.008912661671,-758.080549435665,-744.175172451336,-712.461430671339,-698.945280189065,-755.153718460513,-715.549411733176,-700.329092401409,-689.789901267521,-692.098648100659,-667.594656331484,-687.80669153554,-714.321894868903,-631.61674077837
-599.012878196271,-578.565825395237,-568.573185086861,-576.545809616305,-604.13190681583,-541.257643946691,-549.985269695614,-582.940620260463,-534.537958904746,-553.345486573684,-573.09554102627,-522.082686751892,-522.061018196602,-566.97346882834,-509.54822285299,-539.421793995096,-430.753536655828,-484.840535912533,-519.818560133141,-403.185457397393,-469.210446725668,-367.784579371567,-396.89461075693,-440.0182601954,-307.197824708508,-329.782756044492,-146.281492199648,-218.607355115673,-206.232480104984,-196.283085842039,-165.589935622545,-43.5572891278316,-395.182577917312,-88.515495750012,-247.393223652326,-246.403662567341,-123.306640035544,-437.443670899065,-227.90695153403,-332.502553021274,-243.923746724367,-359.501073319906,-237.742826307469,-252.013869811644,-444.027048842933,-725.234617745975,-709.085756418454,-693.798833082392,-695.896042798645,-718.059378195088,-711.260014175417,-715.514147335328,-726.946882689863,-684.794560653113,-661.062684395411,-712.521222228286,-680.966200154933,-662.849039948036,-659.325933973244,-659.53870733384,-628.984334137177,-659.948655642038,-668.549148898017,-621.268233583421
-500.48302257333,-467.53850006523,-478.324818885945,-472.027705818388,-482.806448787667,-463.478381101144,-457.905399049482,-467.453620805532,-453.740411483405,-451.649771195444,-464.930276828413,-449.823504629372,-434.714404183436,-456.719489539072,-444.110842388312,-452.975919092457,-379.103546765175,-412.537128577807,-427.602513536027,-361.593949717416,-391.480003138801,-343.298118568469,-333.32782538744,-343.015597304733,-277.241058076135,-241.243222151508,-116.552689032318,-157.172422865864,-113.01546383973,-177.868259674276,-136.979497995222,27.8589786212704,-259.791360609047,-113.514524758596,-258.595374436444,-186.35165600304,-36.4069743337339,-264.449830238369,-229.668959083779,-351.693252751711,-131.528855508164,-204.606203720238,-179.544637820052,-71.1117460721529,-261.686412474935,-635.57310639059,-588.447732825262,-592.710686369749,-586.819723905372,-587.325162290864,-617.998730999306,-586.154501381131,-635.43173939626,-584.062503054171,-552.571927801326,-585.096886576174,-581.088693249119,-557.406947316719,-560.822560462282,-560.271499063472,-539.328483587115,-564.229284530828,-568.809323308884,-539.673109358112
-402.497351326251,-356.494296156444,-393.326847321524,-370.405222173848,-362.862145914549,-396.40635297269,-370.942305214102,-360.001128520028,-380.535456582954,-361.505661455138,-355.652535805402,-393.219868708554,-353.179789689391,-359.038260594831,-391.080810729148,-373.448786081323,-350.99284168186,-357.409444936946,-348.795761134101,-333.742738369724,-339.446227895609,-332.313291674562,-296.27959728916,-268.109220154351,-263.808274418069,-184.958435704325,-158.87302005737,-110.834774414429,-24.1506539245023,-176.174163797115,-104.310580734177,107.297259259734,-122.17655189765,-176.127245241731,-246.966235442837,-92.8505877303113,31.5228175459668,-111.21596530985,-219.0025064422,-323.638427932507,-36.3313709943478,-64.5513132569342,-81.1413187178719,92.5506529761324,-100.782965412012,-521.710895967296,-437.394531415175,-472.367927841355,-457.511586625424,-428.506154962639,-506.688934895676,-438.534658705726,-525.770522163153,-469.158371380389,-424.448843441097,-429.627359068016,-478.457801953153,-436.026706055194,-451.920030177433,-451.444288026527,-441.91556808592,-437.926869302649,-468.161579809166,-420.03890376316
-348.838164627718,-300.917589795529,-347.406335994553,-323.372870058588,-300.731835619401,-370.588783727989,-338.31800946635,-317.759338011927,-346.815963427107,-330.220477408615,-300.246693465883,-387.033096181439,-327.569344482291,-329.469342492368,-392.432429344977,-357.772863931056,-377.422568917073,-363.831924366878,-342.899125141906,-365.306857161275,-362.447866550151,-382.184076408951,-349.125623496868,-279.157425561037,-356.319435592229,-234.752432307635,-325.609786502472,-171.424811578379,-28.494395998062,-289.301082744525,-146.659717964978,100.707972829624,-115.613499834202,-314.049287968961,-286.336143324256,-73.1602703225956,-13.3453973030516,-101.25639846144,-233.673339309173,-308.289973750309,-68.8145601272013,-73.9840776052156,-22.9396794562751,102.345788345358,-93.7399393225207,-444.012457517601,-336.298381886318,-389.058958072809,-362.626121690673,-319.369837383937,-426.513181211787,-336.41955526965,-444.537985454618,-393.787858304599,-331.941913945912,-318.581759339434,-415.47086371461,-345.847612372146,-387.364303178035,-382.782836280841,-370.82748096816,-339.899753891698,-402.051193479959,-326.31511197078
-330.576224209356,-291.196630545956,-328.675037642354,-312.900889886814,-287.437145937124,-364.829664192202,-346.498599564097,-321.844481399848,-338.409077123206,-338.333446147543,-293.801005528147,-395.604190687916,-338.243736593773,-343.884064129795,-414.985657978486,-384.32879906833,-419.832928052851,-406.182296366791,-383.521586510975,-434.597506425149,-427.489803392378,-467.208464982092,-461.91240976186,-352.406321491497,-536.236998001166,-355.016621176187,-556.156689545478,-316.766758914743,-125.134656544361,-488.864082370927,-257.110836126846,3.07008987323614,-234.864897199986,-490.828503744393,-382.344422700453,-168.300145544994,-160.721743212521,-216.951613216127,-269.446797420838,-335.23050509691,-207.546146234666,-218.494328765021,-32.2444857605403,-17.1621108707246,-218.692516543764,-405.152189143013,-292.581584209452,-346.357242347985,-311.988009306579,-272.83521028087,-384.437144906857,-285.704772973061,-393.684800063038,-354.27732254725,-284.193661714675,-267.223320151152,-383.070325883375,-296.070623617828,-363.925650378601,-352.754841404335,-322.211335332811,-290.345747277085,-363.709537449661,-283.033313502011
-312.804943345397,-278.400815133262,-307.836258988371,-293.592103629562,-279.510578210083,-347.810232297941,-348.111228304954,-321.150317982248,-323.244465888525,-339.476057014834,-291.038222890837,-377.638454547149,-336.699167623127,-343.664150830837,-410.79531982667,-394.968029675305,-436.78247821861,-431.752002268468,-406.970825397634,-489.867546772715,-470.760552756958,-529.399354770407,-551.392763578831,-410.048737140745,-708.977694301833,-445.781907481709,-747.443395906502,-464.713022455848,-215.825992631695,-691.334818169214,-355.744633626697,-88.3917848081689,-370.638737177717,-628.022513186452,-481.252411433304,-280.886952975631,-313.234961639758,-346.579850176982,-330.621848126659,-376.918476312118,-335.140689844018,-369.121975737749,-67.953295487825,-123.597185370204,-353.756302729308,-369.140704203632,-258.942565537945,-311.387841746692,-282.700985630506,-244.884065723467,-350.842656889058,-252.076212794689,-349.286970206868,-315.418171084293,-248.139447105883,-237.77454951617,-347.342575156488,-262.955650789717,-339.405910853819,-326.424968257839,-275.398598243179,-263.275129143244,-325.605626139532,-258.881942753187
-260.731108806962,-220.764889707416,-254.84949356633,-237.745618303802,-238.120115307969,-294.2161753665,-305.150771181402,-279.212835040652,-274.618415767549,-298.098151753788,-247.272867708137,-319.578076469519,-290.567580684327,-294.776809343288,-359.935168446468,-354.33120829026,-411.963919193747,-403.08378236361,-374.664358066929,-493.209367565819,-451.549242012439,-529.593476800341,-556.74974809895,-400.443147160917,-781.291615866683,-454.06259444291,-823.565679757742,-556.500866136949,-227.146881558606,-843.659380103765,-378.06939565769,-86.5511516560111,-409.931607073338,-673.122534534669,-527.919884803857,-281.145702212554,-371.865011415672,-383.408650193306,-427.713306407939,-373.152734814296,-365.514173083015,-413.01454055836,-58.8016429287247,-111.584966842363,-390.818995335072,-300.826446171513,-194.646613200527,-246.897533814493,-230.808296462669,-183.352232513934,-281.315576308365,-190.00537782942,-278.715940248626,-246.716609450975,-181.169938600761,-179.704912105442,-273.640239594538,-199.608639041763,-274.110085993696,-262.687566227254,-205.687148552275,-210.28604354415,-259.052268582267,-201.190405548211
-158.993496171836,-111.241492287519,-157.222416931414,-142.637796513312,-146.468457053887,-194.742164820612,-210.634310718874,-185.539033617333,-186.054314253254,-207.28608714019,-151.646252495595,-224.3483393104,-201.084803076264,-200.55327898539,-268.11052473947,-265.749084005048,-340.54885849827,-319.307159572319,-293.646132518535,-436.700184152635,-377.422814103118,-466.34612059204,-483.466888395208,-342.358489730076,-729.509603186986,-418.09202614066,-771.225528486211,-576.653977714862,-191.64296951143,-902.703270429619,-344.187168080541,2.31795159838396,-307.052656791515,-626.559045034324,-513.569486191575,-165.097863421534,-310.759066323097,-286.578124338517,-561.191132763421,-310.08358756439,-298.871497917924,-325.60460396497,28.5678388902293,10.7180990377778,-293.03799305371,-189.13066128594,-92.3544660210611,-138.515564525814,-123.595513049343,-68.9606102340126,-158.702505687564,-78.31801849044,-163.833778661197,-137.314940302824,-67.8155173391454,-66.9848585006896,-151.877029205312,-78.8321290762893,-158.051803965937,-146.232254124124,-94.0979025334735,-101.021702066996,-150.282240751214,-88.9111402950956
-40.804635197793,9.96409323116896,-47.7832205093433,-39.3366417968543,-32.7775399033421,-84.1460401440775,-101.424844297137,-71.0350908198326,-86.2035345377223,-101.7326490193,-46.2673443516549,-120.289373362809,-105.722784970377,-97.7493852457309,-173.980030188471,-167.771756478495,-250.410768204464,-225.818093595667,-207.338676807545,-356.447379587763,-302.440893431132,-387.449378911255,-399.323530273706,-294.938786366286,-631.032063656839,-408.295144788552,-657.765603516214,-556.302642442818,-197.457423052704,-838.876442090544,-338.27473294654,63.2358684979051,-138.199707949076,-530.519212392326,-479.215001730986,-70.8866457650026,-226.698099345572,-122.343142421825,-691.200088236587,-259.340215754988,-223.483750862872,-189.943163890005,130.943154266908,133.793156038619,-126.023105715859,-56.8690992356014,24.2503096602837,-12.6695365937818,12.9340038097612,64.6330192880546,-21.3082879810477,54.5338233006963,-29.2063380831132,-8.81635037372197,61.6541412299136,72.5510996388659,-17.275284890858,63.1915940112288,-23.3595113178225,-10.7293118932723,38.3815234094047,34.8555032055851,-24.0823079538633,42.1227647673361
32.7414072431164,83.0254932380328,19.0037452927719,23.3449274125738,41.4318171823361,-19.1528796099025,-34.1012552266751,4.10988766184943,-22.0062598546817,-35.5774254414897,8.60935438146437,-54.559015594807,-49.4979112913515,-37.2652946958441,-125.038587092086,-111.008602519349,-194.658409015334,-180.587603759608,-164.744988583697,-307.92523246319,-279.557456391288,-349.968750134545,-370.755758684014,-299.416907690762,-574.844524458043,-450.687993834833,-561.046445128481,-545.813270775742,-297.373138253644,-700.777107024176,-405.473840245111,-60.317344733159,-63.0228300372943,-437.501428343557,-470.031607287463,-130.764041912843,-282.560144256939,-41.8315601756812,-737.709254572405,-291.273677531493,-266.624430222359,-151.442986565256,131.797141219351,112.492350500745,-37.4938880007818,49.6098693875556,111.419992235785,80.4071870451332,109.678808704052,154.932129922968,73.9591608575035,150.647086690565,72.7431338671169,90.3956819379453,149.952390791335,172.999433100981,77.2653308249891,157.073197876014,75.0949157728113,84.8981397165262,129.835821654569,128.861883434842,65.3375818286463,130.298427940242
