72.1339557296973,81.9934712867212,51.6899602364565,64.0868511206557,65.3192905652837,71.6989771021815,60.0995470350945,56.0397465116141,68.1466516441361,56.4022287012105,57.1996895183228,57.6346681458385,60.1720434730138,62.4919294864312,55.7497607599369,55.8222571978562,71.9164664159394,58.9396040283858,59.0845969042244,68.6541267095712,75.0338132464691,45.5277630133165,76.266252691097,83.3709036071878,56.257235825372,83.2259107313492,47.4851668371374,97.3627161256115,109.687110571891,102.292473904123,80.0360674629003,126.941262796683,47.7751525888146,74.8163239327111,113.021946716179,105.192331420895,64.2318439964942,32.9133828153594,133.248452895662,101.567509524931,50.3125279159899,61.694468669319,59.0845969042244,60.3895327867717,30.0860217365069,33.7833400703909,61.0420007280454,55.8947536357755,65.899262068638,70.321544781715,46.9776917717024,54.8798035049054,44.0053378170113,47.7751525888146,64.4493333102522,67.7841694545397,47.1951810854602,57.2721859562421,48.7901027196847,50.7475065435056,60.6070221005296,64.5943261860908,52.9948961190037,62.8544116760277
352.42347567197,399.859120008625,256.939608636675,314.820119382035,321.46547724857,351.011979948741,295.827956019513,276.346805837068,334.373766002399,278.79173993668,281.705716066569,285.87207643073,296.389439277354,306.59978467092,274.970830060734,275.459816880656,350.739025898445,289.526592097061,290.722055050664,333.301894590858,364.87829755277,225.307740938225,368.696294340453,404.220111808636,271.14409400826,401.792209410406,234.813066742243,465.753681676195,533.58469266201,491.030177259787,385.351539988176,612.627890275076,237.203992649447,362.613876275891,528.819425720781,520.449165613702,323.772701193002,164.727830288471,627.403607885224,482.950465792116,250.693709450762,303.75830497895,286.227275899668,308.440879673338,152.254520162158,166.100892976542,293.775197879864,270.439074418712,318.345217329777,339.038862167204,230.520201747755,267.943045214958,217.86637879871,235.536574577304,313.350245834004,330.62389602024,233.872069593424,280.164802624751,241.657425677023,250.292794226008,296.930977745551,316.503112611428,263.203996068101,308.102265077581
713.850181953517,807.101670961228,535.688292594584,643.084333768757,658.518316391622,713.640335176096,606.963762915187,569.785479889218,681.186582242164,575.654012254563,578.565406006785,592.789476352334,607.278022462879,624.894795978681,565.914200300959,566.174451656247,708.84760278696,590.739561569842,593.162003367695,665.378035529858,729.116934617806,461.591467099096,728.307792342556,801.849210215275,522.462099691696,792.41892836129,472.243522415973,896.556123086501,1067.07386049602,941.515682648244,760.317142618377,1209.87162440567,496.80743712573,698.59852239192,961.883101434137,1079.03496646963,692.536125330186,353.801468470703,1157.38352974644,920.007620783904,525.037252754109,629.359550648714,575.53169716839,676.840980472293,332.83468409507,342.556518241194,581.463191583924,539.711191757816,633.395111880931,672.333944732882,471.731068443917,543.875439917123,452.28780023257,484.473293698728,629.869718088147,668.111208752441,485.007990513996,569.701301993161,500.481096698295,515.777293674403,603.722424100891,642.304960755453,546.892117054136,627.01637145013
797.254128571177,894.664551203847,627.09625765201,725.692322191534,747.285738455172,802.314161306401,691.671092762507,656.174244602183,766.195753574657,662.679467915359,660.362886699534,685.641217418991,687.776555113419,702.941677403939,649.344896901775,642.759292410921,788.804123394713,662.772568229183,660.420685148931,716.819704364241,780.936817414802,514.417569290245,761.64586394872,838.467166429938,490.097852975477,826.564954683675,486.850667923129,867.967736745583,1141.39012381027,876.801764040784,803.244215195324,1266.65782697206,590.865010078536,646.435660435,777.090992955724,1233.73109432392,848.377266978585,448.002018894705,989.971791839533,876.531326228545,612.673767367053,742.475224500234,637.207346946763,877.266134775084,433.070208780315,405.463981416688,631.479009691399,594.013246450449,691.96443629057,729.12238442574,541.915862870504,615.682302027007,530.021666296988,558.405366997435,697.282592787637,746.334670542255,565.809239834876,644.093045348735,580.490728779391,595.692628955433,677.969900426101,718.430209693226,636.092401169445,705.978027763296
599.116614191346,662.527805539278,498.699213468546,545.90026571277,568.95994894633,607.621844820055,528.454758850757,509.370292564935,578.130014046852,513.255198748466,504.857471596364,534.819111381985,517.892300594387,526.227757529279,506.198055572112,478.762136703722,590.022285372209,486.736360869637,467.60713049155,496.064064667172,516.560767589273,367.115873867958,481.911831413618,505.176767882727,180.681503429887,517.451079418241,262.486351670878,411.184221925789,737.305731956368,318.797323443172,523.725408140481,779.035331945498,483.24837741457,236.579212589799,86.093072504311,844.781764066267,716.5350061427,411.952816285396,270.101258680169,407.309674380665,451.017998774675,614.487805322793,455.663121472381,836.543089496847,411.64086231012,363.730913098294,482.427365106206,461.05792667891,526.253102369962,544.056520264513,440.708816325951,488.952997844284,435.112217337038,449.958533241317,529.78143919811,574.132723064577,460.365365032126,501.816013605798,461.541449818735,475.849279331115,515.026225439686,546.662942581805,505.062283591643,539.855112645381
423.508831901235,462.518960108162,355.495919565026,375.312525287887,398.22087668654,426.454635050758,362.22834533476,350.678309268541,404.72184143958,354.194054254092,344.826854650799,376.74233918166,349.49365030064,355.789357181501,362.622430756479,307.149657871297,417.653231597405,311.432973049171,270.682895265314,315.405872563549,276.259948100834,232.897481429255,250.65561340639,190.683999626986,-74.3796665541628,251.23987734534,75.4030190979313,42.3896577385376,334.51069130944,-126.69703651047,252.170777745903,276.005708558324,339.089148226754,-38.1832995721148,-388.314083907094,234.258537306019,495.195476729519,338.054734771978,-181.22859220984,34.978368128839,210.680513008458,455.993375087253,248.928333549354,717.522267469221,344.078994961607,358.48474382553,406.567834208759,389.005788121754,427.386581008964,427.943182379306,364.90867718002,395.616606205947,346.095558135936,359.620721908448,410.263209296159,443.760100186815,362.054686118628,382.66214007342,344.377195302078,363.041645128582,375.191485142984,409.889055423489,371.860121780864,396.912460585903
351.320146406583,387.112581261234,287.413431522261,304.383970981028,328.785320658801,342.3970477034,282.133145671032,269.648214962827,329.926333865411,274.644522091969,269.468520109054,301.237362717621,272.253393715238,276.830890874797,292.163174391291,222.513139577024,344.03033561543,223.693297022131,172.796599111171,249.119049106463,166.479693063742,191.708611432199,161.318550659319,37.4997262450622,-142.765684872624,120.807671224108,43.9241727343533,-75.5301138046731,87.0292926570261,-225.20163106313,56.9395128480376,-122.659555008671,205.473245269509,-25.6272927631369,-444.750707852939,-356.963547746335,249.602460837717,275.856346808023,-238.8142150628,-110.628012530983,12.8957367309558,325.841716406174,108.695173835773,556.769293973818,276.354368564838,403.649438206544,416.118480854236,401.657329152708,422.851144246137,413.380399364572,362.121657389087,380.291787200539,326.17616395879,346.529596056112,394.325617275475,412.048234580421,335.327428821358,347.533647253337,306.80640960762,324.071373882486,330.630822893646,373.384483559442,321.770978592157,351.064616336114
291.905500257949,322.052263388147,251.154024958474,251.859845636338,283.726173140127,269.252057946485,229.491414849819,226.893229137922,264.554781264503,224.638155116895,225.621173528451,243.815013834994,219.100658729815,218.490679973604,230.578046551239,168.139704472504,263.064284148769,155.541118319397,110.264290849251,181.643418407487,86.2383257818693,168.895448836328,84.9011007980558,-54.1619259261395,-141.123288383521,-11.1058726878661,53.1147316779421,-126.71741347837,-119.619276732693,-212.322606903219,-136.808346718885,-535.254170475871,14.3279236696814,14.242228871322,-377.006634758786,-759.078972232742,-55.5246575262019,200.689744529186,-342.497242680885,-195.043828151088,-90.8313346432218,173.405502737126,56.8697690147449,315.529311947139,194.885832604745,425.529754730879,370.015562493276,382.580069738568,378.698658336984,360.890341847988,357.646936104043,348.050788064193,324.01797547722,343.38993421519,370.281504468742,369.872039894131,322.430802994026,316.153154823952,297.929076346654,300.102115800536,298.386966354466,333.965908710076,301.168183818921,314.3061222491
239.306654462354,246.301207979252,217.55060121074,196.007047152458,239.846141827067,196.388764507005,183.010407966722,206.394390966131,192.983916963932,182.79905526272,189.859761448604,179.194519732566,163.205803439696,163.575995025202,165.480143317045,117.32032243337,173.758897411042,92.8072273079761,57.5836038975315,107.638657624283,17.5217574570526,137.119134849562,11.0182890133905,-116.373030837036,-127.758124833659,-141.42726385562,50.4058016657933,-176.728842725035,-267.743758946753,-236.889872677328,-258.507098741299,-829.354811019374,-210.558507993082,-45.3398345571974,-306.711765406287,-809.71117618137,-322.600893929512,87.208449917762,-577.472741266475,-227.00899647185,-55.8300482636838,31.1798026773183,144.059731098668,89.3539768465907,87.4068207399161,427.159030617157,289.113254537715,342.462447165347,311.471783210232,282.374121110406,339.055439621385,300.393386513586,320.926071069665,329.819382568861,327.857754567272,328.450577254255,306.238941494048,282.342237854793,290.830422202681,278.854990782733,268.43436419485,285.183916489297,286.793115456339,273.454900078317
205.392493029845,182.221909626884,176.688896000685,153.936330508198,202.285339724188,138.143404232733,139.930565835182,190.725981080867,135.088088090762,143.758223654814,156.170537762278,115.188066785147,107.116597255909,119.958300432924,112.103690942894,75.2140119372335,119.845443268635,55.0412297605955,24.8903678909329,82.4802904474756,-12.4246010560047,130.539375043035,-2.6037745482117,-133.664112467712,-55.7826889874332,-201.87079008131,110.29903064919,-162.141957003917,-330.491091162894,-223.808555328276,-243.888577446302,-867.167179180972,-328.160774844711,-87.8559587075021,-172.419365304935,-558.137849699047,-414.740631440118,-18.354740698732,-683.863163641879,-151.863944962211,84.9810616126908,-38.9510954044181,321.945737121278,-16.7905903853281,-2.79842304775623,443.056330328291,266.102235228047,338.01895961105,293.027063482279,249.003772458099,329.757160334536,283.250660815126,318.130666155616,317.2992507254,300.70170413363,325.95574475515,293.401407518121,269.93892202251,280.022371076193,266.594575977083,257.481914522718,258.911129616874,272.801931118213,249.085962727881
143.260808385378,108.367695799784,116.322791158795,104.221202233477,142.718859589625,66.5674478357625,80.3242341095697,144.2080690758,69.2845362054104,87.0941075704791,103.709393128682,42.643173881887,41.6698319384454,66.3943644307,56.5796357840794,31.389831534764,73.3850853872905,23.860881936998,-4.57010977673873,85.1888367899823,-30.1317847680751,150.687460837209,17.6923254096568,-135.862137761671,77.7215303838666,-226.235204367744,245.400597098955,-83.7384300258228,-399.170516839912,-112.175223645171,-169.834774060261,-752.084535197496,-263.115354863141,-35.8709702975178,-2.16630466178914,-240.364361615489,-354.646521252501,-55.4135364117261,-525.892909481116,-31.8220443181827,197.670845808197,-68.0450333234345,432.637067861126,-75.145585071986,-32.7363092047946,425.43875026007,261.689988846125,316.409943058963,274.033999762076,219.11426592254,296.812842118474,256.236659878589,281.832205996939,280.031564821686,250.113279966233,288.736925298478,254.274377731737,240.424208292792,239.535787991072,227.676514010986,222.630120667441,215.831733818581,226.391979308209,203.475894966809
40.2929308943135,18.7600423006256,45.9070735331749,36.460006248675,59.1988444331834,-22.9445623170566,9.37884821326276,72.5548171795014,-10.2430832162155,19.8878909015646,38.1883819657618,-32.1236473602073,-22.4760473983416,3.34723547953928,1.12308657325192,-9.34366848155302,6.81949058495387,-7.38577574147015,-29.9461374880144,84.5852425667828,-40.4502087562065,185.170105820001,47.09727349489,-123.31615821398,246.485334892893,-226.746407511353,382.39547062999,44.6380651065885,-459.12215234425,72.2939158400789,-85.762216727708,-581.704758745543,-107.831138740043,70.7473552948367,153.811311381771,-20.8199579395757,-254.455526093772,-52.41687296877,-180.950355218771,68.5486313574035,188.536225792424,-127.151161296475,398.246416202422,-194.842941298077,-35.6119607322304,314.851962003465,185.023302529421,209.858062506589,180.982973723019,127.367533135252,198.14558027066,165.041602860925,186.438004857027,189.523401478722,141.5247736346,163.932939466478,165.442429486134,158.080608381484,153.746472126151,141.006028276894,133.677637259271,123.088198993475,134.198275236834,108.421090820268
-44.590100580906,-47.957825881409,-0.320036942048347,-11.2304397621941,3.78578596315548,-82.8602416615129,-34.6384867993344,27.8048022764222,-60.6560579749298,-13.9135457480959,2.52979098352897,-70.4621014293058,-47.6264689911719,-26.1863352804817,-11.0104704711509,-3.4939164256859,-34.0831221274989,13.5585663368607,3.5106065989612,129.066014871471,23.6128067566114,268.649754794346,155.467618159781,-17.8430303169851,493.793640854821,-91.078118277907,500.532099714883,294.456252818982,-328.703515066041,318.328793926543,100.019367848924,-294.368044061262,43.1055345449168,201.731003395263,356.093931375307,125.30455938563,-121.464673708382,-34.6867065266751,214.216801587995,198.393924961495,134.486462026776,-173.119288652997,312.705156943796,-305.843458682691,-23.2527455597893,166.120036148305,70.4688715636792,75.8373950755438,59.1917772319474,18.1724670067653,77.7242597234463,56.2825984467254,72.6364637179685,80.8558328262167,27.8615127210214,28.5710254835026,65.617752520965,65.7179706912928,58.6552743303718,48.9500273733553,39.7557143540423,27.5879976477428,36.9880958394947,13.2643595983009
-80.7921969740772,-73.6999248999022,-9.68710710785998,-19.9264905881129,0.831564601437298,-90.6553789750449,-38.034198019286,30.8860571116073,-61.6981774558562,-0.0378751232118208,15.0517034256783,-56.8616862429955,-23.2044623133062,-3.63258722650577,33.1556072845346,63.1377977018414,-14.8545398741641,110.803440842065,115.167959395329,244.63238763571,178.396288172954,408.03307300736,361.044000786481,205.710684064451,812.996712910042,211.808588915099,602.303379463624,649.603723573538,35.3074840803934,571.146798177955,418.66177218218,104.325519783919,208.871050925092,330.371018149333,617.300505648044,266.128400076852,89.824034660413,62.9531937870765,527.665397396752,375.067397217322,156.301311938157,-95.7856766413478,275.088980814859,-297.649077434357,75.832523429542,70.9323761229509,6.30945059148209,2.300781007911,-13.7968753487983,-37.4661474442541,6.86359947121871,-2.98788018273169,-4.31395973200312,9.39667472839999,-32.5638733446045,-45.158454692554,2.54786011196559,13.3296254616432,-3.54849814299943,-9.19003339839325,-9.66163795427841,-25.6176393610108,-26.0638154054255,-35.0748950898133
-116.557686634718,-102.804246160942,-25.6612682079046,-36.2312839934956,-7.79986168849841,-101.25036011544,-48.675251153462,25.5685183460532,-67.6499730659263,4.72665888388562,23.6427882293316,-45.8693514190285,-7.68961607802483,14.411942276725,60.6266103630566,113.796026490629,-6.48590991162123,186.599914406047,209.233055022687,314.097886520096,299.514803547179,474.49840958585,498.121009703257,412.973006344596,982.763500391524,477.626083641451,591.032344735688,855.866953393954,405.039306153803,655.433130091186,659.566969218068,430.145752350642,358.404149254942,372.224270509568,768.073359138266,343.462759913928,287.071330431332,235.248123351892,656.803014188186,461.513528780115,204.290429068936,62.1160307227653,239.153443358925,-256.424730019484,245.474067666394,16.5850165026772,-26.0317713073314,-35.8357393727047,-56.7753660856201,-68.9371881147706,-35.4884072016957,-42.2174885471589,-59.1439591603152,-37.9008061145632,-70.7496056113483,-98.4682232121053,-46.0728666135874,-30.3607584401841,-55.9200844319089,-62.062868300104,-50.0260603771734,-71.7820000403507,-78.6840285089828,-74.6777053892429
-200.588028824384,-185.12966032817,-100.127195760984,-110.399150994021,-88.0828199291362,-174.440164122207,-121.661482843085,-53.5374641816385,-142.543883859138,-62.785391560365,-37.9909507266926,-104.500176518819,-69.9959589763117,-44.0295866477347,-13.5590061635679,57.7888986886476,-107.637828943546,116.537893532633,174.815184122989,188.739084468619,252.695110320729,299.097842508576,380.340281444079,446.717938393632,741.890575781913,491.211391051895,349.817629080639,666.512032391912,548.334019621082,462.880585242874,583.075767413714,532.53984372298,373.269047361847,274.343280982767,659.292523570337,255.191703327219,324.791033200844,346.508573300243,597.435188177121,341.788202135694,140.368446090153,133.43539186073,116.097623942669,-329.462700528847,342.152063534038,-68.0261836692473,-101.454332922583,-115.117146970392,-132.451718877658,-147.445093887701,-118.321664725513,-124.646730789198,-145.380531581423,-116.902560153948,-152.052526502075,-194.575076117352,-133.743919232468,-122.293309814468,-148.644727951801,-153.682722142658,-140.339836646062,-162.632208022207,-168.814885467496,-163.433636328966
-315.742105045177,-305.522510287483,-217.209192442657,-225.081256652073,-219.306729811544,-289.431646754419,-239.440655366504,-188.458247914788,-268.348572264736,-186.610299632768,-159.574380570314,-218.025346800955,-194.202083055992,-167.067443480703,-171.421123673893,-88.5838235911222,-304.332452748735,-82.2240389415596,30.2464415741565,-115.487061506458,57.6422049808001,-103.349950818228,29.8327091899179,315.358596977135,130.361118776077,267.76465014055,-75.8766643215191,150.046130368811,447.4844798755,114.110894138821,234.412346677418,447.108202180788,284.396602266241,90.6868553298096,362.115410325297,38.8616344040507,236.312435507442,346.301056557335,436.842162722949,83.1663706279311,-30.6964684804502,91.6903006694623,-93.5290258551144,-472.728597535513,326.12886474152,-195.84455353451,-224.856657702089,-242.966356689591,-248.947212087289,-272.870535761609,-243.187176657988,-244.112193428067,-266.403769947244,-238.18508476945,-277.65564683251,-323.427117763668,-260.279054387557,-251.762755756087,-274.397454724006,-272.113531626068,-269.465150236543,-286.005571728418,-291.135446940453,-287.662565338051
-423.749776513534,-421.4918828439,-321.392488132355,-333.556097815512,-341.905416773882,-391.118625915877,-343.231846214485,-314.075234963867,-380.878786650879,-305.2716201513,-281.234730543134,-321.483212578046,-312.011881548371,-288.032300048176,-320.596596810744,-237.366723004813,-491.634047979181,-284.671654292984,-129.289789529373,-436.509106614448,-167.091333029586,-520.048106639114,-360.44337613647,125.712312256667,-507.175809207705,-52.2975338006818,-491.984030462733,-406.948629588905,177.04744260271,-202.750318775974,-153.773243386537,268.574382785021,257.038264415611,-95.9866333752297,37.936037081887,-180.560703457618,151.267296018908,318.373536095985,248.438404451153,-188.959978820823,-196.70769824159,49.5034331897401,-333.117777310928,-547.034464082027,296.438224912503,-336.671474041861,-358.709681549414,-383.524946422084,-381.040919824229,-404.229536321113,-372.923336491469,-366.31002864559,-391.976484464205,-373.149442808261,-409.84933407989,-451.845775599247,-393.27129414075,-377.583438603016,-396.791531710606,-385.958008893977,-395.412096770071,-408.44881768305,-410.046115893279,-405.787638914493
-516.082989150312,-524.582848783035,-398.018602428428,-423.886964962627,-444.325571211264,-465.952141993731,-415.020974798098,-408.006028108349,-459.105282708805,-394.552589836207,-376.653491558964,-388.753865507307,-395.504181471936,-382.641732081733,-409.732452405511,-344.183435873559,-596.339747692175,-413.269950454912,-258.622290786497,-634.542907021299,-341.577963823713,-749.458759937824,-610.027931577195,-73.7725843013934,-843.439239387641,-354.382962745901,-727.008435310023,-763.177069896768,-199.028932386033,-411.974802483896,-441.196575060405,61.5354406013452,316.661489268367,-244.587207803873,-233.787109670795,-321.236143400891,94.7035965692494,306.742874752689,50.0288646985017,-412.72255740557,-289.584050951655,52.7352869629802,-526.187578591885,-517.665277220668,297.298997184332,-477.53437137596,-490.117865453912,-524.976296762115,-519.295893088311,-530.632753166577,-503.158133137149,-491.897918630693,-517.403585506272,-506.791804980967,-538.717858783276,-579.676350943973,-521.043828617793,-495.818750818175,-511.715097020818,-496.477443148717,-512.929479151806,-526.738802497868,-518.522697830268,-516.017732641404
-591.755877410731,-615.060639428687,-463.659764843839,-500.734725862662,-534.721127485829,-521.568469082601,-470.832781411059,-480.882796389397,-515.477861191113,-463.995481339424,-449.452951697699,-431.41130093554,-454.921824790736,-461.701939732513,-450.956747267413,-416.208147297833,-618.532375657255,-471.104898363474,-357.660246516138,-682.00732653657,-444.992993048564,-748.129303031884,-660.896464175186,-265.304614387771,-812.407795025706,-536.49692150639,-756.549677687229,-827.476095037839,-524.53715757219,-524.038560625934,-592.880220943998,-59.5828801097524,349.765245467163,-362.285028557158,-435.502937985542,-330.921805625377,56.0378481092,290.996332981965,-169.588727918103,-542.456809817283,-274.052818262699,86.3527837397948,-586.947982375174,-399.978336908293,295.128253329655,-616.492356177967,-615.20061147426,-663.58191958361,-654.54547909774,-652.694704339011,-635.950287972472,-621.279470435709,-641.389047339665,-634.63332261822,-662.89747695535,-701.085465718118,-635.654748696958,-610.261001114324,-621.388149388085,-607.000975484364,-625.169617758988,-637.54041315645,-616.545828301846,-623.195323544829
-648.165562905862,-686.262853076118,-521.587977873965,-565.424628076804,-608.513168264463,-561.124672787206,-523.031019079941,-542.224228665332,-560.183472696531,-524.325864911503,-508.087252683332,-467.663821672307,-504.450388500308,-528.377575070431,-479.963376563964,-469.997867551605,-610.306229162116,-497.323116085288,-433.375141751299,-656.092541636771,-500.206119091325,-632.071862306586,-608.302081565415,-413.063400436344,-615.092152063883,-571.532805316086,-705.506972956292,-710.932550617002,-633.99488006745,-598.655322180732,-618.199391029548,-23.9839812732927,290.007932134803,-504.073008030303,-588.937402059354,-234.105548150944,56.8289847299807,245.035007731645,-444.702172798692,-578.320912389432,-162.183931779339,133.666907127849,-534.71413508855,-204.324202029561,256.285768951425,-751.821945014366,-730.108085562298,-790.223199823106,-773.987932114116,-763.363132140476,-760.638702857791,-736.549950589603,-749.583966736432,-752.044290816001,-771.318676248046,-798.070207148891,-728.728206261968,-710.446833921617,-714.261546228268,-702.098998358946,-721.235431763123,-731.462583692655,-694.295403699878,-714.771655560417
-705.059262742803,-753.020993942254,-575.809333975069,-632.380169554673,-678.122376506492,-603.954300739808,-582.737496088653,-612.725783514379,-611.062733497753,-588.836870199741,-576.026584366967,-515.788380482643,-561.751172193065,-592.849319055486,-530.242885703842,-528.420387989941,-634.019956707494,-542.234180310177,-509.582941439619,-666.054758168729,-564.991121140165,-571.129949747464,-607.88905512598,-523.606976041504,-527.767508450309,-572.543440547643,-710.804241327427,-660.386614436213,-572.890848445893,-719.666991957241,-603.995156577954,32.6781447986981,115.002787506472,-703.141758038197,-745.290244501775,-192.078411726581,29.4061237664689,111.039388393594,-775.230716127864,-635.68129800079,-86.7646292018341,109.903758790849,-532.842838074908,-44.4440760614185,127.712849074283,-899.776368624354,-852.791658494843,-920.642553285114,-892.862348320466,-873.658371310983,-886.957965684264,-845.817544735695,-852.220217700632,-867.426604814411,-876.076375442313,-889.843172714597,-819.260094049239,-808.098771285869,-797.138586178705,-784.632644840399,-810.5373264208,-824.219517381359,-766.168189735717,-798.608146448475
-777.553490600273,-830.224588314869,-638.21845715777,-709.925989327002,-757.965975383391,-666.403395062385,-654.491352141859,-703.22547641341,-678.178263837342,-662.41944071575,-666.142778772879,-576.319440469667,-632.019477240101,-667.996550237402,-601.741145699057,-603.919533864795,-694.337580235506,-624.277592331706,-605.345493088816,-738.741286941238,-668.24010672153,-622.517086525188,-703.830750705643,-641.303661730648,-637.097506179098,-648.040997580505,-780.952382083195,-789.729260847713,-518.450248828927,-885.764573121604,-647.369147171526,-72.7995645785029,-186.95826946929,-886.991161716664,-894.295630711532,-316.388672640402,-152.687726757951,-147.731105523622,-1044.14524753636,-798.064839998002,-181.268363739453,-76.5279202483452,-688.540964225264,-84.5407551179592,-127.280469818617,-1074.40145506883,-998.29712167178,-1071.29059667713,-1031.80155043736,-997.186840590968,-1026.34735531144,-969.767380350254,-966.726549641872,-987.044734798401,-995.027477133285,-1001.72608401483,-924.990033302334,-920.769888252952,-886.129305415966,-874.358735213246,-911.014430486196,-930.392534161853,-852.246087044086,-894.48700288852
-827.545516327058,-887.10697917122,-688.142070982424,-765.506141355139,-816.706279921843,-715.542222607732,-708.846432558065,-773.622310319793,-728.687644179447,-716.35929968173,-739.427002766857,-617.855204716893,-682.80986158962,-728.565507090437,-650.158462837257,-666.221179417563,-726.247317628482,-696.456403460336,-690.280517810061,-794.893740481399,-761.569191206805,-686.188526549151,-801.280458648056,-760.735454213209,-784.142409292742,-767.575209279096,-826.355945432734,-978.815381049587,-554.000382049581,-988.699726476479,-748.600058038957,-333.963941226169,-515.413044574612,-948.07010743775,-975.253539905544,-498.821724881261,-469.331900588838,-440.756066559372,-1134.67837525822,-968.858385515035,-401.961201590141,-365.167991181463,-916.595101808906,-307.770748699573,-425.111296781294,-1228.00677703623,-1123.00688484649,-1195.26659962173,-1151.68898284461,-1097.38953967191,-1133.24230267022,-1071.11854281292,-1054.89520199944,-1074.58062721139,-1088.9496036451,-1091.78343422876,-1006.58719867115,-1011.28399814625,-954.135599700681,-948.997200905782,-990.112741990108,-1009.70529433579,-919.952374711506,-973.058990248309
-799.342939003799,-869.545569615296,-674.917558463547,-749.054730468228,-801.42734891043,-698.133100477373,-695.706385792915,-766.259405253272,-710.147258627975,-706.183397060872,-737.005084314188,-599.843996192751,-668.305202141344,-721.983506107224,-631.246182096515,-665.558285962692,-677.918422871006,-693.437061230904,-706.367797284287,-760.260739265466,-777.597562935348,-653.690633340187,-806.579881704623,-833.974269376603,-794.584393134932,-844.108326982274,-778.056007420485,-1079.85425469859,-667.688694482533,-960.4375357367,-850.58550810472,-612.043549820515,-688.706951092282,-890.542164513765,-993.649514608983,-579.859394845251,-746.192180751549,-619.543535061098,-1140.11304731752,-1019.03367400492,-586.278740946568,-587.58795846669,-1089.25548093207,-510.225317353794,-614.587247753749,-1276.54763838274,-1153.14479309955,-1217.98918659174,-1176.3602526815,-1108.84337318992,-1134.11908234473,-1075.53126320312,-1048.55454484958,-1068.9446882988,-1084.25433189576,-1089.08614538799,-996.826654629427,-1011.96604349753,-941.995379552934,-944.993198764431,-982.442452709797,-996.999243238021,-909.082715535119,-967.521996091935
-703.44869364174,-775.280557569106,-594.474615727341,-660.229648947896,-713.72245494131,-622.227430148786,-613.679633236403,-683.176649184487,-624.111198595344,-630.333060162867,-655.997826908922,-527.635207451124,-591.92649041191,-641.27488404513,-557.194890226245,-596.430212031453,-581.467929387067,-614.349320583029,-643.677240287284,-656.594430800428,-716.653931712841,-537.445143149583,-726.235437308711,-849.071243847324,-665.509735110491,-855.901674064595,-640.075872459639,-1042.97242718077,-854.683585104581,-841.199172842764,-906.76876389951,-819.000170668295,-665.796714917008,-802.815849158511,-969.851205348044,-568.578630037985,-856.130789749076,-639.300481022528,-1212.85732202775,-945.084034316939,-641.959511331321,-647.542728508932,-1177.92741437508,-546.541469006877,-641.083833747914,-1189.44516143304,-1074.202802566,-1124.47690384824,-1084.26941279081,-1018.19752718991,-1016.88150595348,-969.277493485488,-935.44099082376,-957.954546545771,-968.227158952512,-986.23110701761,-886.477491641931,-910.954016314425,-836.271214683392,-841.103558002237,-875.800552160756,-888.29101811075,-812.095990206078,-864.478352365103
-600.568815196174,-659.792860388219,-505.6821308992,-553.595222006226,-606.370565594887,-549.268383763031,-518.683753885022,-578.561573031546,-534.027547160275,-534.118192502372,-549.806063116103,-457.054870449671,-504.275272898189,-538.262540613779,-482.085684442887,-502.480124424895,-500.871513389401,-516.558285478556,-548.981856848806,-549.175496065372,-625.052994809034,-415.204963221217,-613.237808946482,-816.396904173701,-492.171273237394,-813.3717997706,-462.347641783217,-859.255755337759,-1059.43376170799,-672.723858522241,-858.157295211351,-932.049218756944,-584.971545814639,-689.765604984045,-827.765946931656,-548.720101097668,-819.225938129739,-578.877497836724,-1213.96088680072,-782.904418908789,-595.786038564379,-584.939069768384,-1164.46233008714,-447.81509097553,-580.140657535863,-968.418526232614,-905.349354456482,-929.313585578471,-900.149784195523,-854.211134230191,-816.772848305873,-792.999182692635,-751.39079448553,-777.560543787037,-789.254169024002,-820.056795192234,-718.217338061147,-750.091183107812,-679.811573716757,-679.559076720392,-713.758314524666,-731.731950079701,-671.493969884945,-712.260136469363
-497.958132626993,-539.811356413686,-428.766746214432,-448.829427239276,-489.423441049443,-486.738056200184,-429.322028512872,-468.844873772824,-460.85898156965,-432.687034411263,-440.313772587792,-402.4964349756,-417.150597355187,-432.13780226105,-412.499208419157,-402.938148072763,-427.867349853452,-421.13856783505,-443.134772444724,-443.987053844077,-509.069464719278,-308.784450109127,-479.415915105012,-709.136482353603,-327.289798817456,-689.142359114757,-284.722893081926,-575.516093107371,-1092.95543804945,-449.569184784591,-654.193642846994,-888.297801220501,-521.936383665978,-479.64290086791,-511.722995970513,-477.510321788264,-694.286143189249,-512.79854454004,-878.132958456525,-535.226587071107,-477.854221345645,-480.756539745744,-977.682250571197,-295.502829081188,-515.557081694512,-593.37164493931,-619.698460068679,-610.998808518141,-615.856201305148,-607.79819799104,-535.334939016994,-549.152348175421,-504.819942979442,-534.332484983609,-559.243803711406,-590.263776105324,-501.123812623343,-540.26416523005,-490.841326302673,-481.791615005835,-512.600881777396,-534.549386400256,-500.852486536038,-525.701409350105
-356.806786230795,-381.577229438404,-318.649638783312,-311.472698811571,-333.00365714497,-382.767268049988,-309.552100085091,-329.696215610564,-356.021450120866,-300.894592793851,-303.702722037619,-315.951311934365,-297.624430503886,-294.460144979342,-306.571381761707,-276.92015724541,-314.632538171022,-301.291985488173,-305.940176261517,-310.758160227434,-353.449975147886,-190.99563535784,-322.67562881408,-511.330097463298,-178.945553483208,-479.377551456638,-122.715058877666,-319.849177368105,-821.931355828488,-206.056986643509,-350.090999159239,-640.584396665687,-406.267279315659,-207.89024171472,-134.190659983,-275.431550940889,-494.458023369172,-444.059756116039,-309.924788950664,-242.810505772894,-290.07217296388,-379.603502668158,-638.90480409212,-146.285582906893,-465.599317099213,-120.494946937429,-236.995961241292,-195.358803030485,-247.750682540581,-282.599739998623,-184.657946055508,-235.999503800454,-203.460876342044,-227.061477360789,-269.121783151106,-298.762612986112,-230.35141660551,-275.942913100569,-256.719960822081,-240.212301750797,-269.254097663524,-282.644860536403,-288.341403268086,-292.170612014772
-201.492949127819,-211.154748571107,-178.733199229973,-156.21528374514,-171.316634208157,-247.762364571425,-170.883824889666,-183.361070126237,-222.220965256348,-160.141194476319,-159.910465619539,-199.168713214722,-163.982629786036,-151.530889549872,-184.074303310689,-145.543139952934,-188.027484267204,-172.675196054068,-164.387462314422,-176.714115677321,-204.170216472892,-73.6711148614954,-189.328443639606,-304.774097717441,-64.2613574622642,-271.386438712912,3.3321025556245,-176.918949961323,-426.323167631296,-29.0012946649329,-94.6485249915676,-330.559777651128,-256.677490938223,-22.3798772231111,130.17671588126,-42.3035125373018,-288.964994855152,-396.270871923019,96.9259279628834,-6.17256938708821,-117.373335887768,-340.98887925174,-326.46358967294,-97.1692571607864,-446.425893925468,252.375243620773,75.3293164441078,158.345979470763,65.4168365345237,0.406408166980514,124.949000906451,46.6774334011738,69.5038384548825,59.0141137247824,0.39240572264746,-40.0781168636032,24.6443574935078,-29.9318719646331,-21.0629065745468,-9.50292452650166,-42.6005343763915,-45.3939842251463,-77.6881237858522,-69.4672403103073
-100.768253741246,-103.633632930644,-81.4711460144398,-55.5030461129657,-77.1631321606131,-156.080415981907,-79.4190937534984,-88.7231563780236,-132.109816560313,-73.920069682853,-71.0979710529054,-120.245743629289,-80.880273972904,-74.180896038276,-117.453155255771,-75.4506033313555,-116.106948827109,-96.3993415670026,-89.7312348985243,-101.426328859101,-131.622534907648,-4.08879920056826,-127.0092729779,-202.814533158579,3.26286774549554,-162.869497448418,71.7032022353127,-107.903005556629,-223.976867530183,49.1363553308016,11.3998643079474,-172.294902054704,-228.166204713511,18.0941546843139,226.268022202611,48.1735684220291,-208.948666993403,-433.67332467124,202.459753984048,105.677515657298,-78.5955307832438,-419.752268487585,-166.544363303895,-203.494154998253,-486.135598080104,387.177507542055,190.258620351187,313.624006749909,201.35416000159,126.392740006553,283.81092078625,187.243553580336,225.451288463281,217.299435109917,143.878747706204,87.2791325108869,176.759227612537,103.396609760015,134.244472733121,128.591041330435,92.3084279254284,82.2055633684851,61.0356676762759,60.8399777812988
-60.1446781653114,-62.1195911665816,-54.1772026708173,-27.43150588918,-49.2039878592512,-125.227968784712,-53.4661226767643,-55.7484026566808,-106.189305997475,-52.3984244046721,-47.9310160456201,-102.233247327353,-60.9541264757419,-65.7854984446356,-115.416983276835,-78.6434174476824,-101.374702733816,-89.0397923473247,-91.4384555576384,-88.3016348364338,-131.284161738436,4.4148084200312,-116.50161379523,-202.432243842998,37.6758774284475,-149.000989898116,88.2304864446376,-41.15205609953,-257.421193281499,83.2666298937347,-3.00400856990248,-165.999075010513,-335.90322138231,11.5451369806074,224.283768260044,4.41676655707981,-251.688224115765,-523.636995710104,211.163271668576,125.647319539919,-143.20614781802,-539.847017354839,-91.4418537188404,-341.770482972167,-539.975106858069,393.899336235112,216.599389055536,345.576104534304,238.464518287909,167.12355511781,332.904671332342,229.070748278234,287.857809640257,271.077631847575,193.964106669453,130.613708482949,237.943416339746,148.940772007737,200.409720004109,185.837939644777,152.303448664615,125.540261788758,129.55752265448,115.417135834241
-50.382650477689,-47.3720837445412,-62.4648471098359,-36.9561290709152,-47.7285453055704,-121.665380058627,-62.8815348214445,-61.0203295463472,-108.004167038762,-63.7949301330658,-61.2477022165424,-114.190233506343,-73.6494681919912,-84.1216907768132,-137.152286191053,-110.086147921238,-113.135193952181,-118.626757846178,-122.351806075149,-107.615267759682,-155.04738062745,-24.5721305380703,-125.449591396467,-221.5763595937,45.5814836125368,-161.498232129261,68.9958963909628,24.5864873735132,-326.679424926134,106.94843720661,-55.1464812546409,-183.040555438114,-425.722244976509,46.9837289108647,182.814207140364,-58.1438576604338,-296.696080705236,-555.57038417374,258.161146149592,112.823074209736,-199.636701236637,-578.061713092141,-22.2848773046618,-379.671600770005,-533.51794141453,436.703832470509,297.412924218262,393.117686373821,303.889594943907,236.263277692993,369.355723702517,274.238940426829,323.426682524912,306.835695489216,238.400171350747,182.432050398639,263.39364886904,184.532541788705,222.387032429825,214.943614559932,186.838743308481,159.91214184784,162.331178562652,150.081346138756
-104.355476557829,-102.094901143535,-110.381148476058,-101.195375980704,-104.849220046574,-167.623912677493,-120.689647500739,-121.31447128466,-156.089487050777,-121.895055586507,-128.89085993552,-163.672653522509,-131.715977857503,-147.303783420197,-193.118348965918,-171.326821040612,-172.752066197509,-186.90551877827,-186.993167589592,-178.940701076956,-221.308951800622,-93.9910991661641,-196.517902715963,-267.091047430181,-26.0884691742757,-200.208695764886,-9.86121038953322,-8.24465286588298,-367.189476301406,37.0816772799679,-139.908554909169,-250.530993619824,-463.386902096636,63.585118983707,43.321293269046,-165.798576424412,-347.094982143546,-546.285093870167,211.909466684087,16.2600627762991,-269.626972759,-587.481868840809,-41.7111605815626,-404.767727048833,-513.947382906306,452.304215838729,337.276869810036,392.483520295947,316.514768912639,249.630974532562,349.566471744113,270.343405593801,296.314733005812,285.358153856908,217.612179203834,176.973100898114,223.324864870366,164.481132966985,180.256615590292,175.941035840792,145.862088705698,132.740628579691,122.531297063909,117.667008473709
-266.559581044952,-291.661095411833,-236.296174174845,-261.20351404945,-271.930293924425,-310.720630438061,-262.169536471709,-263.179680437846,-300.2406662831,-258.438105981464,-282.970831142489,-283.513387408379,-268.946686413536,-300.189266136321,-320.864846817766,-303.347440512826,-317.063710753025,-325.592321498625,-330.269783334212,-343.008073692896,-384.911888573482,-239.312581804345,-390.317330215213,-411.265825822437,-240.646096483267,-321.64366828101,-187.198511868763,-236.515441249878,-490.40877522889,-222.784812107563,-318.467000260507,-484.393827817892,-579.666041811965,-48.312408883985,-267.755034976069,-435.902855550063,-520.641272092766,-640.878486516088,-59.9823229434356,-253.836117098447,-455.754891190754,-736.821968575265,-240.969370503574,-581.868415373484,-617.703412132797,284.284618248295,161.98628873017,191.977749424271,116.277237389239,56.5309356296153,166.541392069581,93.7657120304487,131.51281132417,107.844346092816,18.3135331189554,-11.2696262242304,57.2170591263705,-11.8124730742508,24.0345581443745,3.46492761081791,-45.3806953605872,-55.7406225023993,-40.9787023780296,-62.2072950340568
-466.950858770887,-533.848239802324,-395.120149953639,-453.053358253845,-480.867153880871,-494.47253804598,-411.175583274174,-438.315488700555,-482.00840701749,-422.889269612123,-464.709492385917,-430.44806161147,-437.823754524445,-490.331540655427,-477.829125450487,-467.604552064165,-496.060491857362,-495.519357826842,-513.579558311061,-548.091355277906,-593.938000112941,-433.603254732969,-640.781304890323,-609.240390756558,-525.927651070756,-496.154527319302,-413.359348942556,-564.032141010181,-697.680353796293,-568.00327251023,-561.661637958,-820.107362010755,-810.114585198291,-242.722875049426,-618.752817246341,-821.553687561668,-809.910671429311,-872.223400657155,-404.777845705074,-598.674872097172,-733.75720730271,-1034.73693685289,-526.997520824101,-888.072211440671,-860.45992695986,-14.586057702285,-166.646524529657,-140.501862361634,-223.534239593569,-270.233801253657,-117.610873442795,-197.506531292315,-107.40198621815,-161.113565369299,-279.639740716704,-311.329912613693,-174.148003548887,-282.633253401165,-182.893200650613,-230.856953266575,-306.476589497907,-331.578787708591,-257.59495833491,-317.694692937405
-551.079956338681,-638.579458531421,-460.566634982188,-533.915269245961,-577.66697469295,-575.584969401447,-388.316201851681,-540.70054420282,-552.737369965257,-499.474320003416,-550.01167710459,-492.806440218509,-514.696379223755,-581.240078748446,-550.239158903448,-547.034848629396,-579.523707820469,-579.689766770564,-610.135347390505,-656.938264098581,-694.937092266954,-553.173933980562,-771.934005740189,-699.097795156215,-675.159764206323,-593.922882466556,-538.44379939905,-721.651846232876,-814.303182462967,-713.710620430075,-712.429191879531,-1020.73398913265,-1011.20007279677,-321.037797585274,-718.932572114474,-1085.57042984499,-1046.77321644651,-1080.35061292545,-498.06315454686,-758.156607196395,-951.039878944995,-1284.54498700231,-710.594625376156,-1145.22146734808,-1078.49835804989,-239.096486876659,-411.138329857212,-367.040237987956,-450.395404547563,-486.649459626867,-304.977261264514,-394.016190572576,-253.156361068983,-328.439130170592,-457.916521668673,-499.174002299242,-314.482958159737,-453.000599377068,-291.274776622928,-360.503256641172,-448.986000762326,-491.226738024916,-371.654402365245,-460.825355222934
-455.590456881848,-534.847208794517,-381.714682393381,-454.313847052948,-500.879092467048,-488.242541999275,-175.356660454885,-505.373521074352,-458.358613725008,-437.264906523378,-487.273237583202,-419.393977876289,-440.122960494448,-510.693999161282,-488.411752646518,-490.796439284744,-501.885411285573,-521.389909908275,-557.096613916412,-608.4644241343,-618.934305563039,-516.736512689949,-700.012331654685,-614.96325680069,-582.221580493336,-539.26952065057,-472.852006006808,-577.15635242785,-723.718135005556,-523.056842050291,-663.858920619255,-945.400851370622,-1062.71929654387,-180.531794210019,-471.006295068969,-1040.14661995086,-1106.56982648276,-1117.82319997171,-240.35352968585,-618.405295368796,-987.86559353908,-1322.75001213074,-692.725079669913,-1226.2651809281,-1123.97072026964,-298.561496880366,-453.968590796089,-382.807072523174,-453.170777540423,-477.680228937333,-307.656686669491,-396.690782429497,-235.174031776678,-312.771638148886,-428.673215543059,-471.005226243134,-290.535823167021,-429.280100358966,-244.150531682506,-317.695929802221,-397.768624371713,-449.341560962811,-317.519536606607,-408.568326653996
-281.945098557989,-345.35124417452,-245.435414325874,-307.196649436311,-343.080239060565,-317.362033819828,-17.5538041290745,-365.663773123073,-303.293543309124,-306.82304410772,-351.310830023884,-282.446692536494,-298.323177387367,-364.620442165042,-368.027213893718,-374.039319928874,-349.957268074303,-397.64066061669,-434.448325062889,-484.428484644386,-471.188070787512,-400.797211126017,-531.376122030484,-474.387396353562,-382.525109788786,-399.725822101065,-316.603725030808,-305.317564446672,-511.064557449281,-205.3133660696,-486.121909813509,-686.62758136691,-989.799900713128,23.6447942910812,-125.421159492556,-718.982259744737,-1009.26381346382,-1007.78907787647,92.5234919772037,-338.754738742968,-843.596034415699,-1176.27132385976,-500.702962294317,-1128.44131809523,-1016.31094449416,-263.707289394401,-374.0664740936,-287.752082683869,-341.239766071928,-347.439054463119,-216.957520463644,-293.538854133599,-135.140905960632,-207.169169906639,-298.919442304591,-326.881239427755,-179.227425945661,-297.740599121891,-129.533115400976,-191.656343280336,-252.312815656403,-308.560728531522,-181.701138113523,-258.888283482262
-158.239640029546,-211.309620304219,-150.321199608274,-192.6642143176,-221.507515626822,-182.989085268763,-57.9068382474313,-218.550310073732,-199.519810840755,-201.215088500193,-243.392834652423,-182.521668638346,-200.905234150865,-256.766264696397,-280.16837118011,-286.830665210298,-246.172026091805,-306.547596027686,-347.790104008937,-379.32433451897,-383.960044844882,-329.93799630855,-408.724184870212,-401.126431044938,-268.996726574028,-284.313713216578,-231.87987539864,-149.438912860946,-327.46404029854,-50.0343153208744,-313.598453533175,-410.497671512437,-854.070398479901,79.2879835161604,29.7899730648955,-310.212435809426,-819.065158844228,-850.68226117998,214.672605161971,-125.155154287971,-613.959005094431,-964.102525013024,-234.799544729326,-914.867819421126,-855.857379166541,-212.282638114674,-271.613914457907,-193.300109918773,-232.437555206069,-222.479734549932,-137.38210164583,-191.220128729552,-53.2242802435436,-117.101235492503,-187.162397755893,-196.072344006985,-85.4918659611369,-178.117697782615,-46.9294309765102,-90.1920292821754,-131.137046987846,-189.71330724234,-77.6409413595185,-136.326938383659
-104.93641049788,-149.001214858012,-110.103346777598,-130.203748949833,-164.701439600083,-115.028330183931,-140.333389653542,-139.23841857655,-150.414243071447,-143.29367257128,-190.848430181963,-142.07345332953,-158.962058472383,-207.20223671765,-232.823486873479,-241.488505779599,-203.085158133398,-258.605094863543,-310.457275165694,-303.420695315798,-362.341541125987,-318.323992098999,-350.89035513979,-384.008321081188,-265.351166322469,-215.910062891377,-232.632604765941,-131.620627341794,-222.034615290462,-70.3485228175383,-193.070864561213,-183.460241060973,-674.029700657702,7.91162130706734,-3.48730661436484,-4.34687184394014,-587.132169647354,-702.165010912967,195.910218117738,-16.5463438931049,-434.564257349155,-768.326561666239,-30.6238421008171,-677.377797280191,-706.320583600922,-165.859849612521,-170.168397261555,-119.121988918355,-141.15519443864,-123.327574646237,-86.5838468231109,-115.647009685114,-15.1312040048613,-63.8342710719795,-112.927083700202,-112.848257329717,-39.4214726741874,-107.958875659291,-13.3029762243782,-36.6945090820694,-63.6490831768004,-117.124286646106,-35.1805224529119,-68.781317501949
-85.9301225354708,-116.05636557442,-103.381745985597,-108.818755801494,-148.258098422014,-83.1719085729704,-145.892196302489,-132.803295009863,-120.616407807456,-121.655428693253,-174.40875656949,-128.515915529965,-134.661976963231,-185.975227452615,-200.401441204202,-216.695206874871,-166.537498156667,-224.10037205275,-289.302855765938,-239.135161673326,-341.492056858277,-304.054849899729,-300.778236954855,-365.292476504183,-270.932573018072,-153.175088663013,-224.679675129737,-115.680314980371,-158.451441129005,-81.5536685137743,-107.3828615442,-10.8858820748225,-492.286765131934,-18.0623131320782,-48.2579942170059,94.0240050805999,-389.454675821924,-587.613743784891,257.830762594978,45.343907348876,-392.075277822541,-629.984511340295,16.7148030137646,-508.111839152221,-599.986351265698,-152.525743317885,-97.4676280249209,-76.178195785563,-77.6901190450095,-54.1876265170389,-67.6743353521661,-78.2988686831542,-16.0930747441546,-46.962799154953,-75.2684295688967,-78.3227337064833,-36.2036655097586,-82.0317881539148,-16.1633857535943,-24.0441981733921,-42.6387098556909,-82.4767115800659,-37.2253162235766,-42.6644515575696
-88.8462799036839,-103.006469964623,-119.378383165999,-121.795151700995,-154.991280562066,-71.7358551993802,-148.502705890933,-155.888658230093,-107.813977302399,-128.657966651999,-180.555529042628,-121.658730161183,-122.102545529859,-182.783893683726,-179.554909486534,-205.425368453215,-125.025838349756,-195.97784725136,-274.379673446478,-192.690379884632,-302.641156481375,-269.480693570888,-236.163954847267,-333.467838858733,-235.075977406206,-73.6453660317444,-188.98424875151,-42.5064445223972,-88.1991979798037,-17.4905001168303,-51.254439249041,92.8945801162636,-383.516897982012,32.8189805470395,-43.3667561335805,9.54092449411518,-278.281364946069,-519.056049516862,379.863981167604,76.0713203546909,-439.032660516684,-548.303721945079,-51.851655323885,-416.087613303383,-541.553943645634,-195.057208972213,-94.1487450334533,-88.7947945542783,-76.9469388742299,-44.7238364559582,-96.405954465567,-93.5096189949903,-54.0132118330448,-73.0007694765195,-87.6304639225795,-96.4560584373061,-72.8823330418101,-96.6882226148825,-54.2700671323427,-54.4295679784285,-65.7339238118577,-87.9882762978861,-70.0454771127906,-57.0426782411187
-91.1443661945219,-98.0915707013177,-129.267306344493,-136.780366372229,-157.463304913661,-62.8628673275404,-176.126515908918,-158.267207724682,-96.9901189955788,-130.4260479666,-182.266509365617,-110.870768426019,-113.093647157375,-175.780341896083,-158.772001685493,-188.386575428191,-94.2982694070827,-164.320035686224,-251.037205763973,-158.586328243534,-254.191174938956,-239.539440970338,-166.717593930396,-283.41868666583,-186.086734842632,18.0283069248567,-178.397396288017,37.568820651118,28.0099324020824,35.3598300532612,-13.2254940863505,135.777371593164,-353.255800316564,53.8606298025982,-41.8127446307441,-123.991651038641,-212.269639376735,-462.819494594255,373.331657045982,73.3869758683046,-440.257937132009,-455.582606443318,-98.29684262912,-309.431193249226,-482.395437588464,-237.568673110011,-114.921878280373,-114.214506835395,-105.092388518193,-60.1377940267753,-133.70551083217,-116.740345874352,-92.6599493306596,-105.325775813841,-107.185721506844,-112.799713455743,-111.768561409395,-116.675944938661,-94.2320001152159,-91.2355297585318,-95.5510908414313,-99.3564261703165,-97.9134682705167,-79.5922484035748
-43.0188687553174,-55.8445505777162,-92.500104295795,-104.84001623261,-111.916478993924,-17.2121016350104,-153.797260748595,-108.861580627007,-44.5039176789277,-82.3989679740894,-137.583338072956,-72.1556565247965,-71.7955631854719,-120.659449356913,-109.713547444718,-134.200500093014,-55.1547880346406,-105.802933911178,-184.547715833964,-105.883741650907,-179.656517221735,-214.461846103178,-88.2648360627238,-193.83135316375,-150.628613567011,112.486247076082,-192.686170897183,85.2450269940621,184.597027234826,37.6212690525824,34.2180925467206,161.559776937436,-324.103351764513,26.4740969872989,-45.9991974375871,-182.349613589837,-120.950987069659,-361.805176333242,217.811297250043,75.9957469069304,-320.354856125331,-279.212792442295,-31.2530781858529,-113.142444611889,-364.836851001697,-201.978520609108,-70.4484700379643,-74.7072826925047,-78.2028374115583,-17.715348645658,-109.187203536095,-79.6510844591592,-77.218426596781,-83.482534024961,-62.8585256830207,-50.671834398154,-96.1677036816234,-82.363008140941,-78.6941180266059,-74.0902394227287,-69.9819065681029,-58.7503422453869,-69.7318263226248,-47.5742015799102
69.886838914011,47.793267910554,-6.54606344997709,-10.8612462054774,-6.00196723019263,81.025534768285,-59.2804303551768,-7.59260198141277,60.4838086857145,16.8353554673007,-37.9737252938647,9.18458534394279,17.8104837189852,-10.2034041757065,-24.8259511848665,-39.5347717115536,26.6622990952902,-18.0106067370946,-70.6587099848985,-21.0691185444531,-69.3707156939069,-173.155375017881,4.21216447316758,-70.6277670920537,-126.68702971659,191.449733813471,-175.828831466559,106.390715072277,320.21575814007,50.5838337851918,82.6977558913002,204.737509820394,-230.979166744837,41.4624038441061,-14.0072193531594,-138.958429420782,14.7952496318882,-192.729661902679,84.6313548696466,115.613006678708,-110.427359079983,-23.9284993264823,134.694163898175,153.726948192275,-181.624810039353,-98.5867352574258,44.1630929774526,31.5133718746798,24.5035622430625,95.9318089229405,-14.8311261748715,22.5280772329966,2.54500434768427,4.52687344641842,47.1756964695476,86.4454699407583,-15.1572507508214,20.9049335386438,3.39046308439902,7.86687266528708,26.6423143635989,47.5897058252412,21.6639198565532,56.2158208791368
217.386935302695,194.010226303434,108.602628860792,127.224291610081,138.853557534298,211.452403557939,72.7504638172943,128.059643562347,193.549579830774,145.839523599686,98.2649815958807,125.233597195831,142.649829895647,129.116007203193,91.0203374521308,86.112956505943,155.488745960209,94.7942701659167,68.4752583573947,93.0049366264031,63.3795620625348,-89.3925830718978,111.945308935089,63.3739799041184,-77.8027804026519,250.765788731248,-77.076786663031,132.964392427819,401.549845952077,132.163633637013,111.934084012339,278.086858332588,-59.4575723801131,129.719327477728,61.1150840912281,-11.1656224420949,190.853002998771,31.9179845349208,92.6245677749539,189.509971471869,139.951661550238,258.07593976721,339.331329711361,443.445376049035,44.1698422131711,17.6590250930694,177.968793976908,155.007407295325,162.210240961319,233.947937857519,106.762969887415,154.402613949838,119.854728840148,128.839346079601,181.870293486236,249.45441810275,104.905058977964,162.771438884013,121.553193416274,129.28938461723,163.11403703946,194.992837395115,146.110281652449,196.856790047877
379.448772705205,365.378638051932,256.271991312486,295.688777564002,310.951993018149,358.844582202732,236.587899768998,294.329090788444,348.967627516331,304.386269923009,271.683606681285,271.296677373291,300.254814801715,297.99025302561,253.055595506236,257.499808669711,325.827221732596,261.231620853169,246.124155047586,265.656490040232,237.781227675395,90.9756460931449,280.93517559907,235.590451040799,100.299274888524,347.309051276879,148.026748634287,249.87938577341,486.818669032002,297.795155325058,179.457709442112,405.571684507596,187.321578991148,229.007108208272,179.454103905526,212.85497374234,418.812470023758,286.445546627872,211.090407165586,311.952232664887,418.340054104027,537.285112674456,547.269263902258,744.984729083279,292.749075046734,142.064159269211,319.264644970585,285.3812809112,310.278791833584,380.550779007816,234.917327878116,303.931544142894,254.159586636735,268.673668231117,331.07256040939,424.321603926482,246.284207190384,325.212974843986,258.016821086002,277.186597099901,316.387281169009,364.911259863209,290.475416266318,352.139973990788
549.620361960062,549.53480103438,432.822151806744,478.471238821578,501.101232241774,516.571391760532,426.515618030413,491.104500309239,527.091038757601,486.016041041131,475.517634189626,440.578504812985,487.740540495831,501.918993045497,463.338093046812,476.138645195821,539.81154641979,499.293226453663,480.992086711944,531.314308991594,488.936997230568,402.199102997633,569.91651035903,490.919979495486,502.525664401646,547.469126323184,503.39407019353,546.957189862904,645.644027424033,539.482695157061,363.994404551235,600.342603389969,470.356316832285,317.871035045369,342.869688405622,524.994106970116,679.263264037299,520.896257176176,363.904531264227,490.701453535535,700.860215309094,793.057097819573,746.683662025473,1037.0254179436,525.7032484809,286.904294927099,471.942939899437,430.769805241978,460.112705806947,539.018971587798,368.74020915163,462.212399638485,388.647992668056,412.361322993641,488.928411625884,599.872271050375,394.161331345529,495.167816680102,401.309890714801,432.051706829416,471.394666416032,536.105855107035,446.876276681036,513.97076328284
697.747805208054,704.681115449256,585.165587885903,630.952730695167,668.861546711764,653.093375255504,585.11575655112,673.302609975106,684.717202314761,643.224033393041,652.577599613008,589.838729367887,659.246213705608,689.590237764645,660.580880349199,680.616348494298,756.536980087456,745.084978354508,713.718200520513,833.457081552329,770.132737431348,753.78717202697,924.397302634282,780.541226709861,1029.08138477949,818.131590602821,860.704982714194,963.549749177632,856.163430056523,784.914797615901,615.324284695497,803.20687754997,682.980874684369,445.683523894669,485.218044281334,826.604221475633,879.560788547263,665.537970895466,487.56998551185,652.231219437125,909.134260330267,967.608214489989,902.460196213286,1235.57342666229,677.037501986588,416.89857586354,598.722566288813,559.503444266537,582.539078982,671.170729521596,484.282249585554,588.386692494725,493.163379841431,533.206006201699,614.576100238234,729.433256304265,515.333578191529,629.685309922474,517.383726857988,549.97709493593,594.349141056553,665.731197572264,574.584164539115,644.030751059691
786.897111135652,791.6599435505,663.624982372907,715.805655693135,771.166663134478,730.674980684188,663.910446190773,776.64702946105,771.034286502154,733.234705359602,752.916930845721,670.093349087138,757.644291522323,801.12286751682,769.075206492159,803.258163609571,884.960242852567,901.543225025252,859.197658096897,1033.66797652999,980.266172829197,966.589095185242,1181.47891775824,1007.22237289129,1384.94850765268,1071.41093120591,1006.79714394424,1283.32730082517,1069.98361443486,901.735594549462,820.36507019943,936.66940076286,745.250077347038,599.238236287525,523.844358884605,1010.65990951732,940.671440078194,696.593492875881,531.712829426671,726.583678533994,976.07916803833,1009.07331001489,973.171010990054,1269.00344794118,713.598696643632,485.240789638417,660.926873306691,630.634991670198,652.245733269957,735.006835919211,549.590377953718,650.362078452467,546.757464832841,607.359743098403,680.109290867499,787.158964014967,583.942255448716,696.826064362547,579.929478989964,609.686391108759,662.183282548185,730.040900406195,640.127474952209,708.558771421248
825.656393011766,833.66997272755,690.526542719599,753.652127719746,818.107854240556,756.997415282222,690.693987294677,806.99352248272,797.866640904647,771.405186666814,800.097502119747,690.507845432897,786.169627899406,849.199908055417,787.047053729367,850.082480817134,881.849929628505,944.551342157721,913.480059756573,1052.16268460053,1080.77448941353,949.937429628075,1227.68002956039,1153.57759277805,1342.70510406668,1263.86308360672,851.872407276228,1342.64260772331,1294.08394097592,834.692874681051,973.409586474539,1004.16460005689,699.044012663987,676.542300252593,500.285036242961,1075.09322814026,897.666669691856,657.592239486252,516.925047527733,759.94939974108,930.876503825399,940.874844543789,971.988253209958,1173.02467479859,668.196910795576,497.642576948966,675.225887544745,652.478321534483,682.669568381571,748.893502738558,575.713582120816,674.500025811898,572.886733803771,646.998785908979,712.25139114525,810.345425998853,617.083502072385,724.176376021011,611.412732711308,644.13944092132,697.542632482711,759.218729529381,669.518059426547,737.616846469981
853.579181800994,876.114072051367,718.262994666119,785.087760947025,851.059778567431,770.744767639935,715.620312673658,823.64478064745,811.242618173465,792.644555763959,836.631676225608,695.503424234817,792.106037121431,878.823644880856,768.375523141081,860.794698031473,806.293113779782,916.222106720255,912.443348742321,947.424966982098,1086.17077890964,787.747163495045,1089.95153099714,1224.39954399887,968.807572280297,1336.45774805329,537.8538180567,1160.59170540519,1477.49044476812,665.073272557793,1100.66046681806,1035.27225452627,625.254751827417,642.989921215024,530.952865336194,1054.63685513023,838.53688989293,581.428370486732,529.157848940171,805.295546501759,849.837680885527,823.772714947498,931.130430994235,1035.35144140947,579.842131367694,500.128674421211,682.241733113582,666.514919240315,703.897048073283,758.433495121822,606.946992619419,708.252678319377,614.358369940251,683.521260266828,749.274068854529,845.388439442983,652.392800997946,757.013200276797,652.664959395799,692.274430120143,736.202885906845,793.423024322813,707.971500970529,780.150369482684
880.407570418349,915.660015079881,750.770262056469,810.363672827837,876.349152503841,784.090519781668,736.932000493565,840.528494064346,821.456323570526,798.970360239812,856.637925837477,697.667964409401,792.639297894188,892.230014148521,746.059634013388,840.051916644161,738.546663103998,850.415224211632,864.785466826841,831.067557519671,1005.6840284344,631.713766859283,889.367442170897,1168.80189221543,557.076520791564,1210.24092663816,316.333601182453,863.986042805236,1468.27864095383,496.66528583787,1133.6404511422,999.240863380885,550.074812451575,597.183891881839,625.858454306237,943.548717768729,793.723367179837,471.904222141085,606.123567116967,822.386466381457,761.906221783484,690.306658827835,846.545740319719,891.029026123507,465.111715605775,533.450490930404,704.569282108925,700.680769326597,736.655156581134,784.482493736733,667.057872692431,759.249205299911,680.420552229518,733.676485959663,800.687457576416,894.233999706807,704.924140910774,804.030140677207,712.069067641051,752.625650409321,785.618376933748,837.567882803014,760.933577899593,833.632155315909
884.741252607716,922.653663172682,756.838072474879,806.747518963816,867.638261693149,777.498210441997,727.681261348368,825.865917847592,806.135065933036,778.590948219656,838.049392213676,679.709235187753,768.096814522808,866.520955960834,719.8525422456,781.508908369202,694.935841789739,764.970250451257,791.733504980137,748.904242149687,875.596845078453,549.10611171908,735.335608976683,995.457032759825,342.41567619623,941.405874983704,321.133688147252,579.861966250788,1220.34722260494,385.341660575656,1010.54959345918,855.875890449118,473.205469371503,629.291616475294,677.030142286226,772.073219131589,733.783277414256,365.418479852466,690.190674058455,785.00716077738,669.053235187918,560.325241621339,739.258796567676,739.072223498995,361.3872376078,620.187517346024,754.62191695382,763.289848230644,792.830214121784,827.79642812701,748.420393580796,809.764031474566,752.189584532056,796.46652717789,858.564024799226,933.467457428298,764.73151442288,849.42604675969,770.293463791638,804.037626592825,830.464095636923,875.502952909155,804.800165878787,865.750243018077
855.249592013615,888.485429730947,725.505932057407,769.504344770734,816.375344838934,740.448307196596,689.488963348335,775.056371895517,756.55485680606,733.288433146573,786.166154008357,639.448955016542,711.746044378152,802.847121216665,687.364154606608,707.106783899476,660.647218640637,690.341529370708,730.06420855603,695.493034441195,769.072483286614,524.725993406597,670.72627816579,824.240932776447,353.619762113199,717.961869608217,479.244932956081,438.391387263569,885.890250734638,384.246466214991,806.378559854641,634.556541169527,385.289303971639,699.653001176399,636.665466102719,626.845355530199,633.191725435833,301.539732301318,703.073048171639,742.369841280983,604.593995623378,457.505485253649,690.659648438393,611.128319528357,304.580765546452,754.942005724246,826.701704188925,844.353073262639,861.285777645875,872.614394847053,830.652516240154,847.920562108586,812.591097768366,853.06464613477,904.639413811761,946.157397626253,813.154826055071,877.451326219059,806.470810364328,832.892745885569,851.847370058044,888.624133492047,823.128050890254,863.597203406317
795.758877788952,821.442676029474,666.034861510956,707.749360918717,736.471875450738,685.573719930636,636.992921900067,712.55922519976,690.552613903094,669.744758191374,716.562748177738,593.440527862014,642.401085910218,722.2487535631,653.262979743437,642.921873633228,642.685272359325,649.320757439741,678.675948544061,682.12632840961,718.987314465212,556.164758295813,689.979294820709,731.824608895425,511.967979398353,651.267966883085,652.878612764696,542.568514607729,640.455639138492,514.124201110646,680.627912553236,439.122425648033,264.843743525885,717.215012485852,592.699020002365,554.898301074338,518.494508323918,255.330800553126,640.742062707386,723.048205135859,608.984385955522,378.329167663725,745.780569224138,555.639895422711,265.74459942227,882.916948852991,875.592526206032,903.031518812583,897.304478096576,881.57687349464,879.256672293182,849.847849376829,839.919553916278,866.798440378268,907.282764726802,922.071420861397,826.158622841654,866.944204539075,802.113706248307,824.959885931497,833.659069518453,855.954228895854,807.898474921347,828.146113340511
703.191389466456,723.184409312515,577.697079853319,616.505777704173,627.347312633694,617.973317830645,558.15949933412,633.427509909633,616.190199757841,582.135308336616,621.637605449492,534.855848601129,563.908334853349,626.207192948114,607.162546254453,575.450798494919,625.543594205898,612.646442940255,602.288293589233,688.110583572427,673.095602777103,615.885485438293,724.358406270269,665.82664320414,678.530580145835,661.600131461069,749.132948048296,785.926277481253,545.371287153543,665.730771426591,691.380128546574,370.890307486878,127.562417672177,665.888290685599,606.795154241511,523.529662371702,437.642583236196,181.139284148325,572.545021026498,680.824051156297,665.784577913407,292.663250765021,847.552090183685,564.203011983617,194.52377246358,920.236248497782,842.840393457355,883.350556799271,851.988663171559,817.003137066738,848.585862517846,779.487430508134,799.971363234252,805.182389410596,835.059831195016,843.92278562453,774.719488756888,789.483910019689,738.430459233716,759.826362831207,757.530624531445,761.89103790149,740.995746790895,747.831589983138
568.910355013034,584.917556289489,454.298191498686,481.281143641486,477.046666455726,519.630323249683,434.986698618357,508.569471485796,512.314001843084,456.604414139163,481.25324542923,432.959226852956,452.544725838374,493.96108915269,519.63883204929,465.89196658991,551.187988292561,524.405089084406,478.485636367587,631.053193901044,566.673412064329,594.375282419402,664.249385284819,562.2403872527,680.024686692705,608.929603795641,694.015282607958,879.721682077621,582.865803995505,690.122900171892,732.4392363425,427.563760426872,34.910921514942,569.461800924041,620.887707032949,481.318586421066,387.009278423453,91.8876020019293,541.270271211586,577.404045930873,708.262830231673,195.036803276187,912.249065695572,569.251270471046,104.476338917961,819.026372842945,708.942099046288,756.224232307727,710.018336563577,668.464087636492,715.359152077435,630.111671330003,670.155809887161,661.830073782212,679.810421749499,692.065075665968,641.03213403112,634.579225676913,605.289956586818,628.097563949294,608.686173142812,608.001943296161,606.939038148385,604.981591733814
411.629210906552,422.148825543236,316.344932492091,323.045483540938,312.120261088555,393.035926906773,294.786973024396,356.425825826433,379.007782838119,311.647821635987,319.082856074457,302.532369986664,315.470503018812,339.206234549906,395.568566750355,323.076745240212,418.128292467375,390.807170181621,341.111845917588,491.032228632911,423.861133197082,447.747195613193,500.600274450947,453.230786249286,499.947071125367,481.570626632331,499.707273483538,712.808330677753,695.83081291332,598.121105340248,703.194641045984,511.125650553235,28.1499656674698,406.473524578645,591.612498537343,428.745309806941,331.184144373193,53.738468550299,510.90424983379,455.00206842008,694.602345298679,129.111101999201,914.300673996436,527.221787996142,59.9611249417259,606.372593628011,511.067620643594,544.722162766637,505.431209846824,469.434315254476,508.2622921887,438.449209267739,471.889394415215,463.366810310584,476.071354015128,484.456621212037,449.984081283811,436.303683151387,425.113237563413,450.030387013363,411.322862816679,420.809676716597,430.236933154346,415.033232752287
277.164982531302,283.807305796118,204.56286061175,195.607856393995,185.158218688919,282.76554540672,187.643903312071,236.258020252883,262.731829151098,204.731049621666,197.434278934284,205.865293173873,204.835381437688,217.983125993296,290.11040937876,210.023688281736,307.603622930783,280.133901014473,251.477154966626,355.939320140896,319.680301469348,291.43674641211,346.038598321857,389.964343821382,316.273493000955,361.951592444003,316.700771945589,467.585038558905,757.779217500167,512.406814213746,595.679647733645,519.796944127627,87.2362133978942,172.427047614935,538.908174837002,384.427831326383,260.503135989462,107.070656111503,431.255730067594,362.649652830759,619.590964890181,129.486523983555,849.310483030479,439.387056438066,100.258731324502,351.188041211083,304.915840045312,305.501625326497,296.360175663627,278.111136616846,285.823570200173,247.793268053253,263.580513694946,255.252754752072,280.842000958669,280.134313873273,259.368984408332,251.376730385991,249.845808164675,262.97129489148,226.269924966361,240.665908062836,262.59297836261,230.998079001994
180.738976192754,189.969181456139,129.22887579923,114.6826281885,100.454423845262,213.535388415164,119.453484487919,160.256872150722,188.210146807176,160.531142814041,129.707619705212,159.285029913039,139.228251108191,146.320665645527,230.141102563003,151.090637133231,259.443440119433,220.026411912222,207.497915775917,285.672527845268,262.846773290654,224.247450816258,267.12701771391,337.631060057824,245.286134498637,275.57513313182,256.708404870127,323.935396917795,636.731942250377,477.916828739437,421.522046868711,410.313003256421,157.259913374003,-38.8543607863835,460.047052799252,326.428650927079,164.157041572812,223.792841879945,323.377559601007,283.180521041227,464.822342548578,159.811751947739,694.044788100186,298.541067431679,209.012765060572,108.981885167822,116.066775220045,84.1670792167628,111.019009964918,119.803090974009,87.3850107698635,73.2332154850028,88.1160946824126,69.4537379631387,117.295856101084,113.053303736104,98.5637924388051,102.462588841716,109.29795329876,90.6265600418264,84.435295704404,86.7667292277985,128.661291120413,86.548509907422
102.577042664576,119.725844404827,72.4185943291363,52.8561381346296,28.7248699547287,163.139904260593,69.5007866109168,95.8492069137967,133.084296754468,139.935315286947,78.3189520920425,125.747669222135,91.2084275279577,90.2776291458802,190.145917261099,111.349678507726,230.196949756186,179.196566842107,159.655200143448,248.425433325853,210.582507925669,208.632498374044,225.707474508618,249.324814741453,225.462340100187,196.732502110739,258.422367501592,275.937518642874,372.292070879531,461.868548771365,218.665730295421,232.46620913652,221.229746080809,-142.071020287763,359.759091098826,258.455633884074,31.7025456959252,357.545725360701,259.392995313682,202.747921776085,220.402617796786,174.397431986536,478.328143643242,107.761984979374,346.230180902095,-72.8883294664704,-45.003899966482,-84.137376075304,-42.5441883889152,-10.0390909762973,-63.5889168112459,-72.5681999827989,-40.7989100221874,-72.5576904605278,-17.0700302317398,-15.446354552089,-30.8182672561234,-14.6901188461855,1.79427002287914,-45.3056780989982,-21.5064838907526,-37.1050976666073,29.8914983441698,-18.3202248161347
50.652607521817,73.911202847446,40.0729117662457,9.30310546069546,-18.1078995853949,123.966399995477,45.3005451528013,47.9297004760386,95.2332107251777,108.588455527025,38.1163433066935,97.0830389967692,56.91035937513,48.3945183416316,161.759695825627,77.631553286164,195.193217427242,144.362053750498,107.691788130463,209.583426336199,159.064834546239,184.625812609228,182.159542373149,163.983184137916,173.096776549597,124.350702528228,220.51469898692,234.645062425135,176.994180880472,423.697627223609,63.6416912928414,106.29815937467,311.789787494583,-170.652400032716,277.957273078366,251.756216698302,-79.0994823983543,469.995021130626,245.420426665443,154.163326486806,-64.2395415906191,202.834215636365,292.984707707194,-80.9968706452162,464.172768166965,-147.459681503003,-151.775382889551,-156.848454306694,-131.391982370093,-91.8664393139101,-136.839661382778,-152.250657548666,-106.310075212479,-142.642252149932,-98.1013339328923,-87.3630762993906,-106.08005416166,-82.9094822679282,-62.9525048430486,-112.523911382051,-81.4658080705721,-105.833976528789,-23.0505197475879,-74.9436372603724
50.3565742420166,70.7494209313161,45.9875243240604,6.60778588752351,-13.828542902529,116.225642721315,53.7738231889998,45.2526012476971,96.2085895216645,76.1454732373082,30.6770027869897,94.0793072105806,52.0941623719211,44.3434237381864,158.521708330736,68.6547746321726,180.275077125664,129.383071931159,84.4940586059031,177.666040348758,129.188500692655,154.448431511995,137.967632382061,130.645989306253,85.8864016509832,69.7801455789683,149.411551193809,143.391049710258,177.390485808298,307.521320405516,-1.13119665244959,96.58552754577,418.926245693493,-163.127700172891,188.540009085988,312.07978748978,-84.4907672179376,507.150175268708,205.499478032512,140.922835253229,-312.744993439953,279.375917767811,158.637179132794,-225.56220248564,503.828542137419,-130.23796760223,-193.395032778111,-140.376491956349,-143.402115467703,-111.106183608782,-136.152741674106,-155.991154430681,-108.318382465039,-145.991000820008,-108.737767644391,-98.2282375756145,-114.949408135636,-91.3270233783971,-75.1435516780949,-112.90765121389,-84.17711281019,-107.4407822455,-32.9148995244988,-79.6455565092821
74.5587567500864,85.1461845086803,62.6733525050857,28.0746479856372,10.8551276026965,127.777110803828,63.5576355333973,64.6539928713076,112.142891143933,51.1681281600932,39.5097039737809,102.403359295388,58.5869360259588,55.2637359228368,159.328215206086,70.5668472313108,181.051252904966,119.061959254285,74.8355905159453,149.529375438552,101.183820769606,121.433540427765,85.5598432467959,110.7335354495,-14.1133647844435,11.0684777578778,89.4223219891443,-5.54279036669223,235.718209763163,83.0484610850548,-14.8715315251304,108.38117643484,472.18111723089,-108.809020472731,7.60477127474638,287.330723877714,14.8364260882282,452.464745438799,86.4278570065255,104.433434471159,-475.705375621488,352.824509168207,16.0563926780408,-321.93866475825,453.184999449979,-108.169761203292,-203.592700906208,-119.742837030356,-136.436901322878,-112.545385120904,-126.235572311794,-140.286437990099,-99.5167773388093,-142.221198027734,-95.8898620601122,-95.6829516892157,-103.062836560044,-82.8845691468557,-67.0401301371292,-98.8356938251201,-68.2388496879792,-91.6109586823942,-35.0360690138689,-72.4938887988825
52.6909558972407,54.1802993227993,45.1669814682469,19.2157416896123,-6.33896188746516,106.071894418703,41.0302661369647,47.0335038574391,82.2199066046231,11.5818736388929,17.6452050024415,74.7898975720903,31.1691090815725,26.4107483331632,120.348255795004,36.032625446071,139.759285571877,67.9917181141144,25.7171569338759,86.1582668133762,25.0224615826624,56.6581101583185,-7.95429545736513,20.5953513486269,-127.517040859061,-113.222922609929,15.0470184734773,-202.700315553733,106.093019128686,-200.411553659294,-86.9791037735508,-35.9173184650808,427.319026976655,-83.5594323860566,-256.537057642619,21.7993579248628,136.55099687029,373.815401962617,-124.876829005697,-2.39269455636339,-528.053319029255,354.691081207025,-125.736699682197,-340.622252001678,381.605052096237,-143.367841264085,-236.124052757447,-167.773211442366,-178.281774430683,-159.767635658397,-165.872535648786,-170.73666907519,-138.666981567455,-179.151766652763,-128.466141888803,-133.684817618485,-129.640371461725,-116.145708578498,-90.6977174469335,-121.312263416389,-89.4850232389599,-121.76741278989,-65.4271694313228,-104.84751761435
-55.6716434682243,-61.5889746838269,-28.46829483409,-61.5727680906444,-95.3825353675398,10.8106090459514,-30.353250414395,-35.8033277627781,-23.1969355747163,-74.196654880296,-65.2740626007657,-17.6482673554423,-61.023566014153,-71.6833281820761,23.6779072318451,-63.4537747401685,16.7500998867463,-47.4111083518095,-88.6119272620371,-39.237923259871,-122.390954896414,-50.8858817478235,-157.391087076537,-174.480878127735,-251.639673189488,-339.534532139936,-114.09117285573,-440.854611031398,-270.31374336754,-464.435563521529,-291.127437805733,-405.919071734114,273.949181848731,-202.59237916095,-496.375135626888,-432.725006428036,171.356146847324,317.566398200742,-437.520764851473,-162.938763273567,-476.631466935825,276.148472527263,-193.859576628201,-259.899918448644,334.10209799979,-235.394076298028,-330.617037128236,-286.609808303797,-291.040627309641,-277.413338174928,-259.505649058239,-267.541636626194,-232.87913787998,-258.087538772744,-231.970064309113,-238.877385830485,-214.571564881568,-212.076551869831,-169.5243525684,-197.496375117794,-170.606592852385,-217.723760204607,-142.981690160903,-196.165973751848
-213.173778952949,-227.694795726963,-143.829841257167,-196.625388834271,-229.428150830772,-136.03416312431,-159.230898850875,-153.669876570233,-170.967734498641,-201.979701297706,-192.632982551357,-151.622329084013,-196.742410817679,-211.628838530634,-107.054362826877,-201.742452300737,-149.210686789714,-193.215111874543,-232.920996009552,-191.490464745037,-299.28015946736,-170.498275114278,-319.043714682545,-406.751750739496,-357.966429497883,-589.692666211554,-271.353590989536,-676.987444504748,-668.144620990745,-660.670883937394,-522.017198677128,-850.447464868902,34.3970322057702,-419.592745230739,-623.412033137268,-828.80321122337,55.3606153547596,255.92890718583,-783.346777872059,-306.060696969385,-372.917264787499,158.981773162547,-185.325450544291,-148.352979823976,281.995825466717,-355.691943975144,-466.541458910345,-428.185273084752,-441.393575059717,-429.499418611848,-373.575207035027,-396.83930490835,-344.320995683644,-358.457437073923,-369.465524956447,-391.82616047088,-330.733594123099,-339.063134211463,-281.550811539678,-306.305062629109,-289.219880863772,-346.23224373255,-258.565619572755,-322.073484056071
-310.884530259602,-327.876750668813,-228.911668699873,-284.489602080882,-314.444842470267,-235.357718087512,-296.824900288743,-218.312028816904,-267.756817049502,-290.768134165639,-278.494069906945,-245.498137417033,-285.011847202776,-296.448459529301,-199.604764602082,-285.902801777206,-252.588566541296,-278.903965021531,-310.983429047607,-274.405252815635,-394.876779291294,-245.005254945932,-394.724810480972,-514.932654571443,-392.947641610622,-690.519323884581,-375.288247508568,-796.235918851951,-780.218122721933,-725.981809112808,-562.761456235076,-1049.0352714097,-132.670065662365,-541.943965393937,-564.727246637319,-925.231648557422,-92.9469639521877,239.127385287144,-960.119330260672,-323.997616584781,-213.943015151233,115.4572812345,-124.445414514241,-47.7781991419867,268.363924567613,-424.210048335208,-522.332429076559,-485.294207779815,-512.382402191624,-498.685656434018,-424.597650267981,-456.653819697018,-399.17692016639,-411.861894825952,-436.04223966,-479.228549526025,-391.89607790594,-398.879535404361,-350.124032594128,-370.453810758518,-354.090365785209,-406.30085977257,-336.346492987553,-391.299021364493
-264.746681586633,-265.068354705302,-206.291373582092,-227.289618914579,-255.244435220059,-202.564937665901,-333.522976470188,-151.019400730756,-234.241994166777,-251.306005933925,-226.948777572921,-228.820736432413,-241.949507770012,-236.483695661407,-180.917918882866,-229.967274147945,-220.675824307677,-229.669319131179,-237.059281268707,-217.717864095265,-312.684450611517,-229.100384742411,-311.181267226512,-373.32590056933,-310.121995545012,-536.600032023547,-354.701611944333,-676.822388866492,-519.567155399049,-568.143190777128,-338.024386855865,-759.078279539304,1.26746698178535,-439.368830758589,-264.659311935101,-654.005730913089,-30.858760285557,410.516675208175,-805.907474467761,-157.45253878493,101.989380927673,282.595033437991,31.5401336481635,136.647990127124,430.930893956152,-332.260187053374,-372.031483259324,-354.773348089027,-381.283586806843,-369.077901896354,-321.543208280127,-342.869737411381,-326.670524127006,-325.995447519466,-331.584848521288,-374.948442688833,-311.552888279681,-296.385771664647,-294.198018059311,-306.345242825824,-265.779071773983,-299.962924325955,-287.133263087998,-308.359302521861
-122.566918883632,-91.7381039644341,-100.910614146221,-68.0445170107468,-82.7934065937871,-84.5821691718491,-223.543767003119,8.71065330252711,-109.669565339913,-113.087814454333,-60.0388728113495,-134.297442762545,-100.269742325235,-68.6853271332653,-73.8962549622332,-68.0649893929192,-105.687866675366,-80.101206781402,-41.8667503711447,-70.7520228400631,-89.4003725288761,-143.363504197777,-112.120512419018,-42.7401162490685,-126.286203665302,-208.869244450465,-219.117772522633,-328.8741873985,-69.446312259852,-207.207868034313,20.8857958754093,-80.4286981933292,442.395318572048,-177.314877281989,184.439565710941,-118.325503416436,299.707503082919,769.268354800803,-419.090396030489,124.436399544795,582.954694411032,650.981073145943,290.189639917,463.220532165655,780.009783818873,-82.1969129619404,-62.6786509815578,-83.6750025100401,-94.5314681593649,-89.201332255349,-93.6884313667257,-89.976995340807,-149.870758633919,-120.122813839809,-95.2662090046794,-122.277073163401,-123.620351383622,-72.6959379674874,-136.728532427779,-135.115962680172,-59.2674750305815,-71.9721050372095,-135.165029149288,-110.440151195318
13.1622142296801,69.668248950236,9.90886965629554,79.8292126944338,91.4049098750565,22.2808510808378,-27.0673209230033,157.367733164979,13.3378197066414,30.5933989053842,115.323390738421,-36.122731576442,47.3702229228032,103.173528806647,42.4894242511031,105.630315550771,2.70922154418292,84.0272291462674,174.883114769975,72.8404518151196,159.563324355432,-39.3122527161237,104.031582064777,309.008681567417,104.514495946869,140.338033870809,-37.1346939705443,99.277344329252,366.490591599065,202.213151632787,375.190789920364,665.092601738211,969.491979801884,77.7429823269844,601.284752788517,543.638231900309,743.780579256369,1162.63690522379,-21.038195910809,437.073176093394,1081.41377636076,1103.70011699564,573.154171308181,851.613589435459,1177.60814298037,200.806862726537,238.67284641209,178.453558002258,182.243675614647,180.201936026343,138.070824087732,165.215748019085,38.9279382441588,87.4289706264178,135.105183376585,119.536738853552,65.2882394264122,146.619716363411,26.2044255899725,46.4407488752335,142.218467385291,146.601539421441,22.4749591142463,83.8975936506662
144.74406990536,213.94906878543,133.829517686398,219.438459344389,251.448183468677,134.777356857498,200.554975816768,292.328517605085,141.535074700077,179.630770701744,280.415665716307,80.8438689855737,197.043129531295,273.171128669515,172.073970439148,286.565895343193,124.304688111778,262.361377606895,395.110097167814,218.090093933594,398.158744681049,92.254597030986,326.207221554229,623.754294858265,368.197991684372,471.436135787218,137.137003554472,500.999942905219,750.950715122739,581.841759532917,715.214369693234,1316.08324173554,1461.09536990794,235.50280278979,951.956562704205,1245.61080590473,1227.01833785506,1542.64081448156,361.537729268789,790.537166650148,1509.62190955459,1631.57243204967,843.654317647716,1260.15818374921,1573.24963193148,422.381119402624,467.161766258231,371.414395431061,386.927240328335,383.232197163751,322.509420216878,368.951665701182,200.789856036225,252.054964264533,309.297169551248,303.933528880269,231.760210311887,329.063310500143,170.35227558954,207.269032448257,311.243680879636,327.268541645728,166.297390622707,251.072359287048
317.495374234881,394.728057144958,303.967944410935,406.194755642962,437.091981233288,305.280289734261,428.900810998607,459.841811300536,320.920325613233,369.262036197918,475.491089670557,261.107347026255,386.940435930685,480.62450409917,354.043663315406,499.532928971518,307.56102334478,476.298086578877,636.320210106991,400.629507995279,622.844652222238,274.787619475942,569.043659934802,915.192848139195,623.158087852048,787.329512404174,239.381941055427,828.183367677459,1095.6870340166,897.603356003591,1043.03735285191,1859.71657152173,1905.52448734442,281.070057753222,1259.20102847756,1835.7777318791,1724.95553363914,1913.90212941031,789.108992836637,1132.34039367107,1819.04730859148,2197.73150948293,1053.42040420787,1678.80798052825,1955.47061666675,552.842276147179,639.267492724785,509.35286601557,539.16374831366,547.158705481657,464.583674051057,535.923955525742,335.374386789367,396.090840569367,455.510667766441,467.411213861579,393.81345267175,496.200973934184,317.830183162463,361.532682409,476.491548753889,500.017269234501,319.279036341247,418.616423949485
455.257635571471,541.502605117316,442.460566444278,558.798891377086,573.671690872005,454.745180629891,575.211086423358,582.287842142899,478.485115014052,515.043981168195,624.336556715359,430.313244064355,540.373631877625,644.156377143497,507.450957064504,652.445976532842,465.238979907427,622.856594650852,796.529120999179,532.438501891273,737.343797542659,424.046131088134,712.71348906266,1076.79889683716,705.272362894194,959.379117502027,189.38117291825,929.961212025607,1275.21804307595,946.042455989516,1211.22994906217,2112.25037433292,2134.19901154901,205.461625450073,1348.84206539579,2021.04864102978,2019.92795947397,2103.91403647142,1078.79224970951,1236.64305715827,1812.26649113067,2515.04144503776,1000.62394718303,1926.73186649377,2139.21499501064,553.308827601015,689.270086169701,543.142590959058,578.792965330704,610.427294684254,510.797896928018,602.425266618681,390.898930983785,468.180813474247,525.1170796171,543.567291477721,481.910241998769,573.324956310097,409.629314399583,445.963102068718,565.04503595773,588.837959022625,416.193927448717,514.379431361627
444.005327533508,534.576719729473,444.782913691789,549.285872373277,549.904506244781,464.354286900063,564.176428760371,542.993539328688,493.430478267215,501.163643999074,603.809902141563,464.061962051736,536.569379132456,639.457986906766,504.595768955245,626.690224877279,466.409194886848,577.369424050884,745.955013650621,484.527562815209,662.639866480426,400.011518578548,603.722188976828,972.339684832623,482.499561285178,839.314086011778,-25.399377850784,675.113169805442,1127.48815814323,569.930192827087,1035.70877673435,1822.83498391461,1949.08217149503,35.3430588407421,1033.02157710436,1632.40377730933,1895.93778198351,1939.33210098895,968.519312228578,944.909143501675,1360.48602059745,2355.7119095451,554.27785119726,1810.26763277677,1956.30614731259,420.205034227911,552.432553638315,421.19114219975,450.048708006087,498.272134671874,416.214548017083,500.557088414875,322.686513247603,398.835469604171,444.646363137076,447.256230294037,420.84267646457,480.445461703759,369.687567407393,388.082912690746,492.099907566481,506.545565213292,374.308855017534,451.582571836931
314.033038923885,395.292384484679,331.586733090616,404.087880150885,398.569373984498,353.552606633766,435.865330717709,375.596912283075,372.455679831054,355.801668421077,441.753572174137,364.34688601551,394.759228041458,479.65647427596,358.335294210637,449.672089825322,327.938003974489,375.501918722978,519.566737518271,272.354788507604,456.703315296469,183.211408067951,277.576610608021,646.935098590037,39.695277746743,472.408313654512,-340.486794592652,180.571200814858,677.073225955674,-55.5910640075775,544.402801143641,1062.34193192731,1449.31990201571,-174.923405239464,415.196250729665,849.121357779986,1450.07963499494,1516.17440736034,502.73965859304,368.818923194658,679.393135067983,1866.5003441102,-89.2167716136638,1422.28477291323,1518.24158621191,244.585858332987,316.994193041657,217.134640801846,246.051183757168,287.551910000039,254.485198252713,302.852302798168,186.430174373899,238.731626191904,269.009167374941,251.787367625351,267.263970286398,288.075538324237,236.913712846076,243.445378067819,319.06488027849,322.764769271439,236.473239105798,286.466078849836
175.174544205218,237.063175905659,193.3617719469,239.065746671959,231.159659533371,221.86105302865,280.990568939753,196.360738028723,216.745904484253,188.248782546849,260.724653689895,226.981765693762,224.807498271033,275.703499275698,180.486614001214,237.760873558504,163.667758897751,141.731169758072,253.28044886877,23.0260371433362,206.309797249947,-95.7310867824594,-84.2063434242354,256.97896555455,-414.996809320299,25.6565971718239,-636.080304656264,-328.076564384426,86.7158384041031,-630.532464290013,-57.3170188018977,184.68421340729,916.216399114059,-371.1664313501,-237.939838383072,-3.25283423349668,917.148766870991,1053.78031217795,-37.4075024251832,-261.005852128746,89.0280222281148,1298.53456425529,-639.083750978937,997.43266695121,1044.95847640012,120.15320482111,127.756625205564,52.6293224631793,96.4601841515907,116.17342466269,126.538983758216,132.844122736428,69.4988678727232,94.5175059507096,115.839566158346,91.2403173763262,131.637403965026,120.047301996736,105.837234586758,118.705678015296,161.026411367823,163.794300829361,107.898596408555,137.138928255274
59.0959585702077,105.098784707864,65.8435793775335,95.0660291293305,85.9517120080237,102.718509988568,131.81313896372,45.2752263896709,75.6525729316418,39.3492514682659,103.012354859477,93.3241096683992,67.6780239994938,92.8667810955154,18.5254427940958,41.2709138711431,19.1464192724756,-73.3639666913327,9.86098592885618,-186.273768025019,-59.2800420024287,-311.760653313765,-369.49424406432,-118.275279722043,-736.277625511241,-404.228336708848,-764.819416522177,-736.350943079047,-533.12042796991,-988.474633787226,-617.316845171177,-554.4374486982,467.553214695051,-472.540934630854,-756.304327819955,-710.360056371148,375.882998320668,642.63425405379,-453.722569401624,-800.982150622686,-305.953939245956,721.879368081422,-1002.06470011165,623.699372451837,619.295132646065,52.9219176774543,21.8326223100157,-43.5792039350211,12.7078756607019,14.251684391584,39.9788363568589,22.0105304874986,-10.5574573276563,-4.03038382069474,14.7438086021952,-10.8299299399951,38.11343539581,2.10147337789225,7.400283817319,32.6200394016336,45.0212059802632,53.3390485127917,18.9848422166015,31.727050480163
-50.9641041096684,-13.1561034085495,-50.3208133074883,-37.7451517534468,-46.3322277922476,-17.2667573250114,-8.49541331479977,-88.6436321081325,-55.9529713075595,-97.5624313635846,-48.6577396387002,-41.7963904671256,-84.1484636172969,-64.8487188234574,-139.217274846598,-146.189965100189,-121.138424263034,-272.423951060353,-213.748674647021,-357.070182300694,-312.249143881399,-445.383036360296,-586.976338471502,-475.066330684895,-896.615990694304,-792.326540894331,-691.887707422737,-1006.86305921349,-1117.1751484421,-1089.40246053141,-1061.24384649368,-1116.31659114626,51.0783291604988,-428.465214448124,-1088.20091229517,-1172.52397769161,-175.486514400265,250.064140051287,-725.953875090445,-1195.26511266467,-539.780788488071,138.249721986797,-1178.61893299854,283.1346803766,218.955930181773,8.10825945144146,-50.8760443583007,-110.295641073597,-54.7024374614333,-64.4846020513443,-35.6955549164085,-58.3677469162986,-72.2161821018512,-79.7456336700292,-68.104505249183,-96.6085365750304,-39.5919169781485,-92.3284033873682,-69.1859384048113,-43.5815492935384,-47.5000417978089,-41.5107637475806,-53.0971113115059,-56.4344179558536
-142.005919086593,-110.052436647865,-138.120305846726,-143.981731260759,-154.603803853405,-119.731002310971,-116.943243052567,-196.362839589161,-164.568371771686,-210.022414634862,-178.852129981898,-154.522400763198,-208.189080293553,-196.899894388262,-273.948128518135,-306.512636662067,-237.945318867122,-431.46624494804,-402.888573407735,-486.635779782136,-511.960901859405,-514.361604167012,-753.849747127437,-788.441241405358,-940.410747945151,-1091.6206472407,-546.736051501123,-1118.9499732828,-1554.82236160346,-999.583931478313,-1310.70608718417,-1498.4410577444,-337.281958170679,-310.887003051112,-1238.1045141785,-1367.50796628597,-660.306512726689,-156.151029091308,-904.443808568264,-1419.0951102359,-639.372798666838,-407.042311735853,-1156.35228463203,-18.2533370762034,-174.094880962652,-33.8102959500054,-124.626074804842,-169.810548784099,-120.318967439199,-141.902127991284,-97.2770969573944,-124.965730571252,-115.217155740699,-139.801486564143,-142.529499932238,-173.873988654623,-97.2315188461642,-163.381507823374,-122.397431469946,-107.911996884821,-115.464099610456,-124.284987608604,-112.214332906616,-127.608246585314
-206.68368616627,-178.52494963423,-196.831158885162,-215.101534211224,-233.787833211188,-181.065114107929,-186.772987180143,-273.024034194954,-233.938142361613,-289.30194741567,-269.945938011201,-222.717461392194,-288.739559432065,-299.308119494467,-352.553688909499,-414.039465449666,-288.285818956553,-523.837375949097,-537.222796864921,-535.160555494139,-642.504983046259,-493.965191845026,-835.957858593607,-1007.93553432654,-888.878361064982,-1242.30647287616,-421.988821687003,-1077.58355460861,-1745.08018663595,-846.502471487639,-1337.23998662143,-1650.85345512287,-652.046388496651,-234.123372263938,-1242.12108966107,-1345.80977778455,-991.518159712056,-562.59223358316,-1004.09594307964,-1481.70674002094,-650.072106885437,-873.741990635336,-1003.83204094321,-285.993901620067,-551.451261854256,-82.8809694567542,-196.623933654996,-226.694143704315,-182.109295778201,-215.110379452903,-142.872481658702,-189.207470838319,-143.993599013517,-190.426506979213,-203.187442465632,-236.446916356196,-131.05862749857,-215.375928438028,-158.349615115376,-158.945343785931,-165.261199401286,-190.953721674677,-156.920523911821,-182.205760681597
-255.955584750872,-226.646688014233,-242.327372053096,-262.845831665792,-289.335032101859,-209.313619109788,-232.311737432386,-324.803046278221,-270.009026870488,-335.69654310332,-328.300142384013,-256.152847721543,-334.809474512227,-367.437464124521,-369.181920217515,-461.691733400375,-263.786372721755,-539.700406891744,-605.407998286558,-466.621298617612,-683.81294978095,-343.748451619987,-780.26750538627,-1089.42622994476,-687.570970180889,-1213.09367854577,-230.036251376058,-879.199422368682,-1667.75764824046,-675.717217356757,-1181.01819364545,-1550.38977281881,-903.499072714436,-196.149725076506,-1125.89785320365,-1154.50692985395,-1155.97551412876,-930.952772909224,-988.182712319319,-1390.32528367158,-626.771257835994,-1251.12483093089,-832.478694768273,-556.074262372358,-895.75361293479,-122.581518496438,-245.153288397935,-266.55562024998,-232.048147505279,-269.61055811352,-176.637657641017,-247.926927609861,-164.592663687472,-232.541398376655,-245.933554417794,-283.121753915866,-151.702338513819,-259.829692363361,-183.537343221057,-205.150470332398,-207.647047157928,-241.117444182631,-189.580353194551,-228.560620721904
-281.758976983583,-251.475486265165,-267.188464538673,-283.343686538958,-311.751434492159,-218.160611750663,-253.738995139264,-344.618339431705,-276.951586196138,-342.701784395867,-352.281855424553,-263.736657503575,-343.047075832619,-390.223637935122,-336.829055753914,-445.462854564541,-192.769351373577,-476.248455474399,-587.406448559736,-300.823510701418,-604.085283029659,-92.8049815226959,-574.004678543712,-1011.15193673042,-312.062687524136,-1010.07800379861,113.347500704672,-542.91168404821,-1383.19843087684,-451.542091832327,-913.770497118439,-1283.84848290276,-1109.89383240589,-126.076971263413,-926.617749467397,-855.482862032224,-1196.80476447816,-1217.84761116504,-860.112940639594,-1158.93917709715,-603.729563667178,-1555.69715491926,-711.708437806285,-827.792478255809,-1187.10909128812,-115.873072763983,-251.020696380015,-260.700648164734,-244.982081073564,-283.180006412596,-181.103597888662,-270.246624957956,-161.593159959458,-242.227887238545,-258.337556780946,-300.692557865495,-150.647962604948,-281.094137081234,-182.948519919331,-229.264479492177,-229.021878235295,-262.097629590836,-202.660286165829,-253.141602428423
-278.191759795355,-254.750000345926,-263.190123751531,-274.233551840391,-302.187530781623,-213.936793327564,-251.580216478651,-333.211017963347,-260.935962901239,-320.783528891592,-347.472867262951,-246.438497749762,-315.644563753026,-377.086818279334,-280.582853756406,-381.584401502034,-109.968812619477,-364.023644421322,-489.133983687817,-110.853634936888,-429.854925868972,149.1166728396,-282.622516361951,-806.495875398421,126.874910168224,-700.648152484296,489.706046010343,-169.583287338322,-1024.54617359931,-185.551452200746,-644.382969470129,-1032.48911525774,-1245.46079333614,-32.057135504807,-727.70013817479,-609.648327233505,-1199.99419519815,-1379.01442892595,-714.081674211751,-886.706437543106,-638.776552501051,-1787.01684014588,-706.272172171264,-1060.71167413344,-1377.21525451991,-68.1741462587826,-228.413784687124,-219.101402164745,-216.385218304804,-263.261898059343,-153.361729567274,-249.250687896152,-133.365826122126,-214.657115575357,-241.205823091606,-290.403711112314,-124.489703963325,-268.325973727988,-157.284993384636,-215.97247709073,-222.075803558345,-255.654944113766,-195.898455574815,-248.625921626012
-256.454968028737,-244.693062468398,-240.802184659049,-246.721780329012,-275.479709974778,-194.06339004078,-232.012402499943,-301.221507616924,-229.097303420047,-285.753418791404,-329.785880238478,-202.798402957953,-269.204397926374,-347.665950151674,-214.544253921016,-298.734984762552,-24.8134308909525,-240.685783281408,-353.59766500025,53.0056446280179,-226.321002045465,302.848670353631,4.55243541182335,-538.844704618062,488.160534394501,-364.614342582697,724.929941500016,161.558725911934,-707.171234072894,86.6088550879962,-426.590489946226,-898.093184624157,-1267.51773182117,55.1776968310765,-543.622380718157,-523.283122886099,-1229.12110083723,-1376.10587533222,-598.394552046844,-662.844169260971,-766.399951527431,-1859.68305525986,-803.345757872619,-1224.41308832043,-1394.6102309957,-15.4374324929487,-198.754753564628,-171.24748894806,-168.677478526141,-233.349915831061,-116.006436972857,-212.535494401587,-99.3407285645587,-174.712994148575,-209.518440177664,-269.627040908093,-91.4553904916426,-236.89620588035,-128.219071312571,-181.998386815289,-200.911679015712,-239.060421373899,-177.435382430794,-228.630938126633
-210.354688636118,-204.680563719952,-194.920768315035,-190.834940795065,-219.407008664872,-141.287193281788,-178.495310300363,-234.532339291499,-164.110392552348,-221.01978334242,-279.116863680347,-123.16546882216,-196.069203762465,-285.125261271486,-120.257601014646,-190.755657400385,77.0358223547991,-98.5286190538722,-200.961860102795,199.718931234955,-10.9610114278607,388.988672418107,243.145656181656,-234.553920151982,714.542319529505,-18.7019155743203,800.149399962771,448.882461181634,-426.104712953968,360.384138271129,-198.874729605713,-790.99027763695,-1127.42326473074,172.458067855405,-285.217341434752,-487.440932515358,-1226.04853504915,-1201.65488736514,-428.358660603224,-433.359827660583,-904.808731236594,-1680.77337835233,-856.843093490602,-1289.13457769217,-1220.03603301868,40.0413530440702,-147.241443326025,-106.380444365146,-107.146273389222,-183.046418022141,-67.355736084534,-163.859688497617,-54.0277255544629,-124.208350420066,-159.268736021862,-230.782222132409,-53.3972874069537,-190.38070651473,-91.2728621218716,-140.379892324144,-163.161998019836,-204.398601566867,-140.850717914181,-189.281117931602
-114.686156538272,-106.602979812644,-98.8867622056782,-81.9340799612786,-103.462293603761,-45.8687634313891,-65.5543877075115,-109.296219739744,-45.6480592678301,-99.7732697159512,-156.840066907113,-4.6717115508728,-72.9323087385547,-159.149634788479,14.4777225008568,-37.3808092042853,197.68970900047,71.7179770880206,-19.3783678098115,339.130526318117,216.450007471488,455.095589662227,408.778730014742,91.5582517179297,786.948942938049,312.459065679018,780.233612351943,646.013351134636,-126.764676180665,586.582592796144,69.8392275092892,-564.155512899964,-794.837741143636,321.644573198267,59.5016038935585,-355.299748852675,-1061.11153236403,-886.131449979714,-152.101667426335,-127.387732491695,-940.006167135924,-1278.44207559871,-779.309394703176,-1206.71782259215,-903.510477685938,119.498485387279,-51.5954151602952,-2.71914746942725,-13.2367838223673,-85.0469120632051,18.2093324384312,-73.4717045757927,27.335396336531,-36.327896130818,-67.6959042567147,-144.008102498673,14.8880159295377,-106.995663917176,-17.3963887678568,-70.72361642855,-83.3647174492426,-118.347642652734,-65.4711104389595,-102.279489732639
29.1365073925701,41.6217684385431,46.451259037522,69.0158653361735,67.1953244790054,71.9140535636821,91.9352709041708,58.3376314142567,105.994421716917,62.9766922305042,22.8668051023872,131.135612226563,86.0777290499056,13.4663789772124,158.749108354074,138.57198818205,312.989870141849,234.538472378598,177.401694816694,450.73757249103,413.81022017039,508.040571346365,491.420132062549,383.838133545536,730.768601345543,544.128608836728,701.34410531648,687.001772516425,177.022299797368,694.214797181864,310.23410568182,-185.900087105289,-325.128533559575,425.850273768802,372.968346064084,-143.332535517729,-687.326083235666,-491.093037037376,135.79282319021,186.743924620119,-849.046125824667,-767.993545863353,-628.900724244193,-968.138174421552,-515.982094859234,221.26480918571,77.7400445287244,126.104344585824,119.170616650371,56.9291735671273,136.948443965621,67.8509036263937,139.994933477744,91.6867819387876,67.7986036337599,-2.51814843189986,123.849435741884,23.1923537829982,96.2638161936129,45.6154816583431,43.740193130827,24.8823803731912,51.0253785879654,37.9452698493051
171.897134734229,188.952086376177,187.66402403192,210.235428949563,238.493541881038,174.371637035012,234.969898943149,213.455946804699,235.541583937914,210.869919275336,192.662735883854,247.487933856351,226.152410010293,174.375581446258,267.106194736463,285.745355759108,392.52979824792,355.856224989945,345.502167365942,525.440614259195,550.083218484985,547.174848456851,549.892335398843,597.964442141213,687.919826755058,664.032741077728,632.991190787317,670.979239124359,437.055096283152,731.987311167484,490.27099719065,258.97848797164,137.435580194782,477.977617685839,588.121468983516,65.5812245265301,-191.035533719022,-99.5752848525562,376.036668262722,421.88146005088,-660.984035259553,-250.274815818669,-430.352417098278,-650.378311902833,-129.991386486018,322.811914788574,216.303944214358,250.390662013374,265.078021063984,209.592028714039,252.106035275953,220.837750045541,250.539684277279,222.275941379907,213.28982276505,154.994246368598,241.603328981471,170.775722992587,213.259880921242,178.900272593971,184.063201179128,176.525596938446,173.297260266962,188.064261799445
271.259629066219,297.9540190284,280.115344270854,308.397081875253,365.395032318067,244.930457802234,329.431391857551,324.515780976446,314.123658666986,311.84743108518,312.076743778391,328.71584472773,318.967478661956,291.701243134078,333.777435791903,389.068953863434,435.888039841399,448.291782944269,471.737352144435,592.079219670488,659.908730093439,598.15200087751,678.416288024523,764.421824151542,811.69834927971,798.65644894498,676.878371344013,806.069477767142,669.168388746513,831.425102545598,673.667284654903,673.453701918085,470.075534880566,574.49748509043,769.756830239559,278.432279254132,276.289166304574,227.541371030912,664.746739510347,627.13693389908,-399.548705452262,195.030126640286,-130.915297058587,-360.468185219819,201.234982773169,416.069728412886,356.755091170433,360.108439224548,397.353813919718,349.328568038067,345.850578809999,346.061732493191,341.74437315884,327.965839844928,336.527900564549,288.016112471862,334.505763639774,301.875326300461,303.568745454673,282.529103066588,303.20048032786,293.219143905202,268.760351479049,306.66929238084
337.172254685843,377.384533375452,341.19711755915,378.314344922904,453.129055188899,300.87752156843,399.126589537657,408.090418103144,370.202290412883,386.867444969701,401.417681563048,394.031550342888,389.150923749809,382.692876644369,394.462674861084,475.438341421017,475.329378120944,540.27232069087,578.952992681702,680.78004925339,781.093117547403,682.766738107645,884.005973406668,928.130329725198,1079.58273820319,1037.01340826796,821.07948700598,1127.15335388817,930.726131546515,1012.26685058752,888.194784113099,1009.77023316509,649.480215857761,730.359926692744,963.741347502725,533.861445157879,594.449723085331,454.658551351973,1017.38439572244,861.973505169523,-103.967458113117,483.770430074305,234.904103034083,-149.383431579089,436.773877275707,492.823400079452,483.922446908693,450.286980656605,501.803922478549,464.19245067356,420.334057968978,440.691569271969,412.333375735533,409.619966835269,429.248144423559,392.571009631713,402.110267769242,410.577990789461,367.667037434414,350.666982331828,392.802231890218,383.539900901087,339.926997691352,396.384435439284
380.714691906058,430.168083669057,391.70150553139,428.432891497857,510.016862489832,347.683748055558,455.128207187413,464.479157910729,421.994661349572,440.648612987833,471.044516048753,446.187337725314,443.946261490045,450.048186522407,453.962252029508,543.685239826651,506.84762893837,614.045444229664,655.640628451761,754.792303956775,877.331888674905,760.601240895288,1052.15435416302,1057.56555537323,1304.84533907513,1281.44473448661,910.97081109439,1426.36324294806,1201.73430755093,1133.90845191002,1048.36870475682,1250.76698657558,708.666334441839,815.369589484549,1078.96703942378,774.733037414264,743.155876980059,542.734010410203,1217.94963851992,1037.2215405749,168.908261256077,581.191334341069,536.266030919052,-15.9688200340444,527.569017359491,497.287122627002,538.752219350028,478.530916384871,542.013970473341,518.385629362693,445.0420135128,489.648548742959,436.8221891507,448.508061727555,472.691006492474,457.463654872011,438.12776189195,478.718013771874,400.042508349842,390.954210740876,443.404075541212,449.228029744058,383.976105237008,456.542841869221
375.629836583398,425.550169916062,400.648130841947,426.133010531982,509.497059331903,351.020702620885,456.705616378195,445.436258473226,427.858323749076,427.163470264933,478.786868376915,442.044452428646,439.910965866629,454.640723607657,449.337830213143,541.548871831345,455.928057406615,601.334881465018,647.013715267813,702.837419713368,871.21173068575,703.482902435806,1049.49603424298,1085.62937668285,1293.31268951497,1366.53673408363,789.885088449673,1482.13848330727,1366.08435959373,1046.41107665043,1054.89686948334,1375.82990846763,678.871349017606,734.468723931372,986.990910228572,894.373688850509,791.151808838481,497.753208300287,1095.96864455579,1030.47566598886,371.129288271226,561.61783120939,703.245994712714,57.124614127974,478.320912754845,378.754174041621,475.273113314647,398.599458570454,477.584354398486,476.034789787408,377.890836458294,455.260004973066,383.773206666684,408.954666179976,437.695428123566,445.064471886315,411.5567284717,465.078721359581,374.05780996196,383.842292353043,433.541987631699,452.259861195275,372.076016892874,455.894172282547
309.586908278386,352.221148705939,339.367386682885,352.729239609525,436.501440420204,282.993393624471,378.914496553182,332.572927428019,351.644734610608,329.924703245431,401.145424725411,355.023402861785,353.392466196744,378.132727011908,334.297801005952,440.635181896776,277.935656674687,463.210818934982,537.742110144452,460.218615130157,731.90311574468,417.338743513831,827.865098425864,1005.55235894687,968.039519657994,1237.79859149695,437.57723335915,1235.0010948404,1332.36848454298,717.312315920335,884.618104076714,1363.12692133742,589.937051064429,531.065114250974,668.644233361755,854.651665942424,820.624910405291,397.625325287582,748.653134990648,844.206904479279,485.548835136836,544.176808113576,754.642540881669,137.307864355068,374.255509540605,191.16881931172,342.460694803701,242.86868708685,340.680326307381,364.469845887366,243.371252518123,351.504938222929,270.488954580746,300.448418704951,338.619107131767,355.278807939834,313.494883886079,371.032877048048,284.299913970492,316.577439734016,358.19167370463,379.458959983844,295.415035607823,384.362368840686
201.449727079657,231.233934637794,221.9827464467,232.400552932017,308.011535428415,155.418288550644,246.647558924006,172.234646577058,214.158640135456,194.50339777688,271.016425661649,215.143672144017,213.685214089038,247.588359043468,149.456116250243,274.030034812588,41.0792383550567,242.327184951454,369.755338632804,114.448896439766,494.855105620468,13.541585541103,443.81999580153,842.635618683496,429.02618998152,938.234898707344,-3.88860474875258,746.353851661268,1110.10818281933,216.538675640768,570.321208253615,1199.55816341761,470.734459061325,283.663529099181,214.849783174896,654.948938495887,837.003850722278,307.596146389073,357.822330866578,543.974412207023,507.650662906804,560.238957744084,693.657027249269,282.29928355378,282.795159211718,30.3134401219966,221.280804704958,84.5060136108568,200.27482695296,239.599445717116,101.915401355788,227.030711767954,137.017189580523,163.745053133062,215.433643358289,229.848615913275,166.836937232424,237.480807575744,151.320508599635,197.448568783746,226.54623682813,254.666402366923,170.682585361946,257.969436888707
69.5595317234888,87.1068341272036,79.9812300853121,97.3111482348032,147.450611718195,9.21215254606616,98.448918705409,8.84179797202277,64.3252430233036,65.584994663706,129.013840344377,74.9085919416521,64.9820148001318,103.539349125462,-20.5651775707449,98.6027784026955,-141.1850184409,28.6491421595026,189.586512100705,-160.140276939486,240.166276377242,-263.319367866936,54.1863582451512,607.705823929937,-71.6704291736723,558.260480936608,-325.731913557213,168.011598268115,791.861270178876,-283.522997510825,205.221757655011,905.848850673155,336.837768227588,54.7240132073873,-214.376001275649,294.769935368825,774.168942800433,229.567036355812,24.744892155541,189.163272786486,424.703525443134,550.072183424752,507.685290180411,422.88275877534,202.106143683247,-96.7773601264897,113.624013564521,-61.0189708786499,65.9184932587625,110.408415275866,-35.149532808486,87.3802343142577,-5.27203715972723,17.1092790328549,75.3545731616815,93.2964403904825,2.10427349047942,86.531074789581,-4.86695068288924,40.585838680319,57.0445273162117,99.0318000986638,16.7395284400023,93.93418121527
-35.3140686950864,-20.8797943458802,-25.9119384584125,-2.03770255218556,17.3480234104227,-80.7385787274789,-9.72888424652996,-111.472562241379,-30.161515528644,-12.9196432396532,25.1327895298096,-0.932588224493145,-29.2260717074089,8.31610078337446,-93.1376855338262,-8.46322663385798,-191.001809988101,-76.7059910250063,60.905677146621,-227.164254822202,84.6338303601472,-263.594146639873,-123.724478928625,371.849872328316,-261.577405214679,271.950567969921,-355.139072996504,-213.074586161133,528.308717759443,-476.449587621816,-38.3755373469158,570.160434681619,201.389541856489,-44.9654366589762,-385.504286706755,-117.887080217309,623.222186575394,149.636482228883,-133.755762551062,-97.3402703149408,284.1977082793,489.452944701522,281.109580527239,477.47271169116,118.849490161789,-213.799912079624,-1.62909218054571,-189.140559105709,-61.2283514214776,-14.9094099157847,-155.414518502469,-49.7163755501217,-125.492188319412,-105.227866716904,-56.3634057999031,-25.1789106112598,-121.829564732662,-42.9988959205907,-129.433876935503,-92.9240231234584,-81.188373704869,-33.5497822912438,-107.769321452724,-44.3271864469027
-54.0711826075568,-37.235161879533,-40.271931200127,-20.4524871144944,-14.8077445256938,-71.3259828938634,-33.9321278326399,-139.08954739378,-29.5849654248443,-9.17053483761838,2.82703667788801,19.7339478964853,-26.2392569781848,4.88724044882083,-47.7764723874623,-3.97742575919453,-119.339127055649,-40.4594215189102,30.8202939485869,-101.417740491418,73.8773769940948,-47.6597973410489,-24.9679306318475,224.538831181562,-90.4409218705345,203.881072951935,-74.015200126051,-191.549096468195,407.944010845698,-204.626385497975,-67.6015222596015,259.113026074153,46.0992438684975,45.908935905124,-201.700538742821,-397.709523016711,409.102225362417,45.6685424233289,-52.0256210957709,-218.464583187823,188.746504201788,387.816754359025,144.508511519025,462.702066087921,16.3153098178033,-279.091201901683,-92.0632935987034,-250.024564159654,-134.016178353638,-91.2994139685947,-202.256229152097,-120.017724153469,-162.985032087198,-147.833022558466,-115.575921331063,-82.2677864284622,-149.014318951216,-92.4654251552372,-157.71400984035,-127.988002282857,-121.109582460997,-78.8754713550599,-136.923870430682,-85.9612050693184
-51.4111259052708,-40.7939227595868,-30.8808911748401,-27.1431191487144,-16.2955710905383,-61.8805651836223,-42.2007347519035,-135.310733527598,-23.5905052555908,-0.842582215072314,0.446779098364521,41.044310917857,-13.8496825446829,11.2840376633116,-3.12297379373462,12.0134396863716,-67.3282130731351,6.56578898899351,17.1912411681001,7.53056642121761,66.5532950283372,153.454597968162,111.51147695357,99.8422570852067,151.801536916621,204.163648206574,268.313145006813,24.9435640029861,292.506176038535,190.323136197525,-48.4113872968314,-78.0208007489777,-181.746884047846,173.237245244871,10.4332836981569,-502.106813689853,67.7271559533093,-131.07750043415,49.0124438032555,-317.533590402274,149.399213839421,192.652829216821,80.5360398414957,364.729233648466,-148.817627804391,-269.12881994867,-148.682426900454,-245.230600047757,-158.394310347963,-130.692283549879,-184.542003188629,-134.432622637374,-142.264428464042,-140.305745821543,-123.366939628791,-107.797406890485,-128.027167000106,-97.5834364604495,-138.221135140109,-108.812856940331,-122.640602066457,-86.0011881182338,-123.360780223289,-87.7941688048087
-157.524378793891,-163.85255248151,-124.099219300921,-145.097245763247,-120.592441505388,-184.455784895782,-158.186469275494,-227.44003846043,-142.958860431712,-107.133336395838,-98.0535970007448,-69.1650305506939,-122.77082239867,-100.585546949017,-99.2976044472539,-97.4935963689031,-171.410867078104,-95.1425479288255,-106.229495296678,-90.0634998979752,-97.5838141964052,144.056494925796,29.5287734207078,-131.773110893635,161.545973167339,20.2884547435408,368.161972459374,44.4497576582652,-41.6453735631631,231.651053023978,-218.626613192973,-464.596957126543,-424.207673552676,141.147838249379,-170.891875917479,-529.588000581753,-370.15477902555,-365.046893318745,-127.58490462801,-608.82319687127,112.516413516253,-99.1092033735578,-18.2658666852341,154.078394704031,-362.00561436761,-234.85632965768,-207.627197152989,-246.440698404475,-201.991710580585,-199.18520117093,-188.252907992207,-178.126063893046,-162.309106482866,-173.977520888964,-179.232769238481,-178.559825556404,-164.714037023918,-157.961096513681,-186.561680727608,-153.284390063401,-195.331383601619,-163.971099581579,-183.682509843544,-165.118175539734
-354.411476783449,-375.780942629136,-303.667334283912,-351.397992110058,-309.824556418664,-391.340912458011,-376.661787338723,-401.403846589429,-355.594949453674,-299.045001702325,-284.841465013262,-276.864217045971,-322.501728888598,-309.131468192141,-299.199135225771,-301.918318843226,-379.874227652197,-307.986238877983,-314.362329648298,-327.92374091639,-363.633151457447,-43.5902489593503,-218.904969864434,-430.548428825442,-24.6827037240188,-330.314232887239,221.545953283284,-180.030662044485,-559.641864847215,-60.8980894045365,-545.529544870185,-769.001089783046,-517.405674084728,-21.6580111852331,-647.533734835428,-524.973845301468,-649.613911294579,-536.700435620073,-508.400232143761,-991.45022947137,91.5860787054526,-331.64292909077,-134.383485650439,-71.9967763040307,-517.098288511936,-219.765500428268,-267.397485206778,-279.820010961261,-272.375670487369,-293.471329615878,-242.497949876459,-263.058573325179,-244.21553147814,-256.78682997094,-291.870183421795,-289.431244455707,-269.704730462719,-276.676924647968,-308.26120064177,-272.900683744162,-327.615459654909,-307.186242128311,-315.810991758694,-307.172694841058
-510.250969870342,-541.041898377806,-450.758495954756,-517.677129285212,-463.888760358167,-534.796345660879,-576.422903183259,-538.43595447293,-519.59718148075,-452.245829052193,-454.964948588316,-435.899298038707,-480.03046337415,-486.686294508579,-460.530572692595,-471.103058040666,-542.447923809278,-481.260290599148,-486.860210932125,-520.635954081988,-565.489568561854,-248.562067326332,-435.933634076446,-649.446976120774,-222.004080474304,-618.398768780431,31.5650896026772,-405.474767880325,-972.129070383043,-334.023439382308,-794.435426079481,-888.307143770186,-488.565622239173,-175.510373900326,-974.671429319438,-476.532306260628,-673.477868560765,-606.363567358822,-777.610311304066,-1153.5441787779,49.5411368917412,-435.633286258359,-202.5045629745,-254.234514962388,-588.749171732398,-249.371993245937,-327.934643704152,-337.122450972295,-345.508867910227,-379.42860451587,-324.130329382952,-355.000310856316,-338.834511917538,-343.690160280337,-397.734386473783,-394.607473972197,-382.968873922509,-395.303945924372,-423.195952205269,-394.793188830127,-448.598683220407,-439.606421807989,-433.088394795601,-434.062290295294
-589.642169407212,-637.083883223635,-537.846657424092,-614.316342128206,-565.740918057045,-593.801712300319,-693.045197839139,-620.648365026967,-594.22001711225,-540.315030282822,-579.730268532156,-502.140928256895,-563.375747833145,-597.644931288903,-540.87565235854,-569.568906104185,-611.958806854406,-576.187736752181,-592.116190839482,-615.770129974463,-658.961252702595,-389.182260576317,-566.332458154213,-738.241515998196,-404.54518805919,-742.695527246092,-114.410414262855,-540.455566889101,-1104.50752449904,-461.393313472661,-869.513960415198,-919.968866471511,-587.838237104877,-286.800895534275,-1014.09757816076,-434.311399606064,-701.944940540184,-710.672975891393,-833.929140231538,-1023.59420888832,-170.01364361643,-594.378882845903,-285.376635046178,-514.043505102525,-709.965661803243,-376.345390454478,-457.748335851178,-457.784584596489,-466.29575887867,-503.718955620412,-450.596898538812,-489.759083441052,-446.467022005462,-455.551766848802,-513.536823966115,-523.707468153126,-500.009487736235,-526.45437611548,-516.630944858962,-507.980355396606,-570.420391648865,-566.401234596509,-526.737729806906,-552.626383705072
-663.093705790392,-738.679425075135,-623.371777258715,-707.397244620066,-682.889873831239,-652.342893268315,-756.442819126342,-719.465220561443,-649.569559301554,-626.48720791753,-707.639786130619,-544.035364483099,-637.091104113254,-704.715821033778,-598.484574480786,-652.621886267032,-645.44598507606,-653.944246920699,-685.732084354547,-679.521529631733,-722.08973704056,-480.27370302042,-673.097773330761,-776.525399733851,-618.60323314398,-817.332604953517,-256.095162163845,-708.302585031136,-1095.39256491749,-579.430533278087,-891.467182728953,-1026.0837097429,-913.685886044265,-388.634598626159,-990.125471781437,-506.581507458128,-936.547390222962,-945.507151005077,-829.211955154266,-851.076150308246,-604.260363583552,-941.794556457434,-487.462595005335,-900.440145727743,-960.941028665399,-611.040004042835,-690.810861015671,-664.012564088915,-673.13734921861,-709.899445727216,-636.082839271015,-700.112052036915,-593.208950069825,-625.519887590185,-692.104601139332,-715.807844437081,-652.869517931329,-704.649330059019,-629.662723026015,-649.878665504574,-734.955164903318,-733.490980062642,-645.380857424257,-710.467977305533
-760.666749099694,-861.359851112044,-723.836252736405,-818.27637571294,-819.546155677843,-738.461115859541,-805.290699815994,-845.558501848573,-727.420620430439,-734.405993241562,-843.662190754528,-603.405944056523,-729.202182381584,-829.306677202248,-667.887509511219,-749.883949345412,-689.707782121652,-744.264484286648,-798.431403605689,-757.068094662703,-811.403639013724,-550.04275245619,-794.56710644579,-868.022828508899,-825.654335998865,-980.218314382952,-395.491624664047,-974.827870027064,-1164.95981989262,-766.968309969733,-995.481121291042,-1232.2698397129,-1285.3023784038,-471.483725549507,-1054.98643000783,-754.633405528969,-1270.08019493127,-1213.65173898659,-894.852505953245,-857.037081966865,-1082.90196880643,-1348.04896395362,-799.134178916339,-1259.52493703902,-1236.40502333188,-860.122157251019,-938.021988118121,-882.008393934346,-896.846875442638,-927.679462077975,-826.063918945598,-913.305270439731,-750.32143750907,-807.323798746013,-891.748127374368,-915.367617782895,-822.245848892919,-891.223795706996,-760.318302044442,-805.421982136692,-909.852686229816,-913.223753416198,-779.115790985915,-881.795299675132
