-11.9619122566835,23.4163494479319,-9.06205473991172,6.08970078522068,52.8499032431652,-13.4843374529886,14.7167768976166,41.5404589277553,23.4163494479319,52.6324139294073,38.7855942868222,32.6958935016015,41.0329838623203,56.6197180149684,34.4358080116645,24.2863067029634,43.0628841240605,22.6913850687389,23.7063351996091,23.6338387616898,16.3116985318411,26.9686749059773,22.1839100033039,19.0665631727743,22.5463921929004,20.0090168657251,40.6705016727238,27.1861642197352,15.2242519630517,36.1757225217276,25.66373902343,14.4267911459395,-2.89985751677175,42.3379197448676,32.333411312005,15.296748400971,5.00225421643127,-8.1196010469609,43.425366313657,24.1413138271248,15.8767199043253,-2.68236820301387,13.9193160805044,4.49477915099621,-8.69957255031525,-31.3909576190542,-63.2893903035434,-57.1996895183228,-91.2005189024716,-97.725198315208,-53.2123854327616,-115.776811357112,-46.397720268348,-76.4837420048549,-120.996554887301,-109.107139068537,-68.8716160233291,-114.036896847049,-54.9522999428247,-57.7796610216771,-64.66682262401,-78.5861387045144,-17.9066201660656,-38.2056227834678
-37.9824233527113,129.596635608451,-20.7428365692377,49.8469618617056,270.563112788975,-45.4962819301459,93.5371058485976,219.727418590772,128.6541819155,275.693328179864,207.308116656866,162.245919697834,210.069817190257,294.178016476951,167.60191683907,131.18718761028,205.637338668257,117.529620055218,134.959915470347,115.694351229327,95.8852290882496,125.06588968236,113.164258622811,111.711863604363,107.6345845513,107.121730137539,185.58596596318,133.202522430702,89.7103697961241,168.680624143069,129.965953690505,88.3913153004595,14.6588459010157,190.597969160334,153.85627768884,84.0371593929064,44.9770384521275,-11.3411575176378,198.440246524603,118.102308837913,89.3989827106705,8.51368037925666,74.2389347489481,35.1744441757737,-15.1805556390967,-134.377593766459,-291.027169131389,-253.214615964287,-412.08289685028,-453.40934244027,-235.019913418877,-529.566801149681,-209.934126466939,-342.32462263921,-551.434507606935,-500.601726496996,-309.032619589276,-519.136053354094,-247.408065038285,-255.676581765279,-284.513695243506,-350.415539631736,-74.3820242524538,-157.723466208333
8.00841131599925,328.28094731093,54.0258688988524,188.250750737224,610.724699681587,-5.77154645601063,281.712922271318,524.415541167704,325.113961920389,642.334841096135,506.937284450962,349.292245756464,476.481114643908,678.222347478699,350.930550227384,329.52241610492,408.354146507201,277.341235023687,360.786416504976,247.725398432407,267.326682125862,239.33699801375,259.013145568997,309.237248137337,217.32782140395,263.214805526589,332.690061834248,278.57986009972,249.642762415384,315.816520589688,287.9229061075,257.561575139371,150.36016576185,327.071480418606,301.006908144077,213.413884731627,179.441090223267,96.7231603753985,352.377275091331,243.861285447203,233.902708084754,110.236790796247,179.527455094153,130.16620787003,84.5456564168188,-207.522104485207,-515.003966469487,-420.756897351076,-710.345509045966,-823.40532543262,-387.332813313637,-934.12783446211,-363.561775556407,-577.928308707502,-966.924745591162,-887.974698037682,-523.886929704441,-903.4076996889,-421.613565981481,-418.858886828459,-456.412499600919,-574.559223311742,-100.183379272938,-202.013320587833
206.688089632346,525.980250809578,279.852087496528,419.942910872753,850.895794204137,196.87757469814,532.977068610172,790.121757014453,523.885897087962,924.754175103933,793.96243351118,459.40551118861,672.129227381571,966.6521457417,451.558626891311,546.079576703484,468.650710112195,432.659477527938,630.848069582684,347.413082769526,492.908456511364,276.283771877159,392.345502534387,564.654197733867,274.605207670716,431.047967077422,305.674995867263,360.575171015668,460.65045672037,321.62747451411,405.278205156855,494.700300719989,466.179415353695,258.177823058124,337.833434865426,363.300119017306,426.931748118894,404.966278257714,305.103135153685,303.899199844,405.038217196307,360.104169958976,285.265419762634,303.073924159058,380.792071235645,-113.44047681838,-413.15964306495,-295.800632295451,-541.508219476084,-718.006364859035,-258.511567694122,-748.327024978714,-275.391084673518,-411.936809036141,-765.001346409755,-717.947285388248,-375.717594925707,-680.821391776767,-307.374306229302,-270.650028319701,-254.752152463311,-326.390422229473,-15.5686413793111,50.6387717398768
408.259244402765,607.780014695763,482.489748127573,588.086232828517,880.735709335904,407.186642077487,681.602703157301,878.5776658945,611.551990513247,971.14526955664,917.214360919705,461.757670685745,709.844242894065,1014.2838648667,473.038501923849,699.911215259016,422.042684238388,554.804397367771,830.304539544728,443.493356020112,695.037972770524,309.872878838558,516.216066733866,785.360620118862,333.673340407892,585.789656212132,225.398333677019,416.708241821667,658.679272076853,278.809401926699,493.219841774648,720.313547859171,807.724903410495,129.612332754884,331.126960190485,512.320181939633,688.209482662279,759.16306156133,185.011001805296,335.524273263085,560.361699737513,648.672041459159,378.889456815739,497.939719427664,727.608897589291,14.2541525142032,-137.797104501446,-66.0250531947884,-146.165182476399,-323.704600090166,-17.2503932141812,-224.767360420434,-49.0436580354084,-64.0454775428566,-217.830410872953,-213.580866941781,-55.3086379118081,-99.7265958914347,-54.1631883878874,-13.2387498525679,100.254496180285,190.573799568353,52.2892614341676,424.406859580312
373.73637739957,501.587969729556,415.238926779434,496.545656219458,702.947710569222,365.857120628297,565.206440336769,720.686463339528,506.699111030187,765.517467682755,765.622159934072,389.427405276879,585.69429928081,816.711411580943,463.692562590985,711.490487421676,374.613271335943,619.202869781756,847.729520587899,540.991358494231,781.592604256368,409.101594867005,628.244063912813,858.609769578821,451.379917867311,691.717111174763,300.260533135849,515.872236854299,757.020134791728,357.685596406846,591.557685221075,824.852989952135,922.99036494612,196.757633933424,415.037115213217,623.738134322103,803.691533364552,886.703954240536,244.663958305978,421.438091913719,654.103213773827,773.368154218776,454.925340913695,607.382418980869,862.813871805068,-27.9695867788952,-98.9074585207764,-78.1935626445235,-77.3687525852037,-199.354830046204,4.7156798533051,-59.1507205100001,28.3378644010561,-10.349543465509,-49.8771123204574,-28.6014555131427,2.22056928020593,112.290602339147,-13.673191132301,-31.8042595128552,143.626625376852,411.016919516883,-69.3732711690969,544.564354603171
143.785669684555,240.487185828525,141.315225601626,182.930714692386,341.492374771975,113.656358358254,230.839055521886,336.706020994151,241.399564827747,351.740977001212,351.985465995234,247.56989927038,316.225439017849,404.963519228895,369.730804636047,544.708440473767,248.649271103438,556.819792688565,639.609861659436,493.874232393122,677.931233012112,422.70756694183,604.859081729178,703.26973197969,486.142708393646,633.335476140309,391.062296541115,532.888475385865,661.220823192735,426.673195379264,584.514485908147,714.751162857013,742.511370552056,322.20936840839,470.530313888877,592.374533142698,693.702849458556,722.326747273079,361.909507713006,461.190118343263,604.518275060619,659.736838499344,445.356849070822,554.902805518306,720.956492286678,-157.356312227906,-235.847326700387,-219.130801182922,-224.856323235238,-260.03288971999,-109.667969873174,-169.123516876422,-32.9493285279647,-147.981930414728,-178.417907514653,-90.9305848802291,-129.037734623833,-26.8221623990231,-140.252615673686,-202.170560950427,-34.8366546053007,338.535173596595,-270.211337329105,428.08568521562
-15.626689583397,3.05293787803998,-42.6790934667647,-86.3108637748963,-21.2166988055901,-65.6243124012947,-74.2624199710052,-64.199908342661,2.20408078560568,-94.9276463006736,-89.9190277254653,115.388671842641,26.6188732062057,-77.4735157085104,203.516544808005,287.419574632363,54.98714296685,357.177341280045,299.092903642402,260.840745538476,399.088593156398,261.827317173842,378.641891071025,377.866138358836,320.039033639228,375.281762294789,290.703783729436,354.816880277486,385.776602752343,301.092190177378,379.308918529598,421.070075756382,409.730846515962,260.842544937991,336.559130098178,383.632396284892,421.647041139693,421.501935161023,294.90149041589,331.37072553264,396.922678826933,407.858076873698,310.30646529378,367.966104546412,442.67890902773,-189.066304133535,-197.272218976598,-197.517701745671,-167.251838104759,-90.3897355863811,-95.0914780119575,-61.5498713294832,-26.6296041244448,-109.296753706945,-106.312508600561,64.9248674754004,-111.600992057569,-27.5106558430254,-151.999733735711,-164.727053485571,-47.635996546698,363.477005600039,-289.560050708997,385.207588773583
22.549172244821,-54.0307237543893,-14.0446346079536,-139.54921468999,-169.157312036631,-55.1039278742447,-183.032456938105,-264.78568010949,-78.6488643968996,-382.757526561845,-352.983103554993,71.4545753659429,-163.174313458207,-472.95922893648,52.4279368976446,42.7185026354541,-43.7884676236528,85.739761176142,-39.1294272864338,13.5484857262198,52.3526468807775,72.6308110277317,75.400201611238,39.3402632775215,69.9934232489508,58.2484333726112,92.874125314956,101.153746171925,79.5459128502433,77.3228279293266,97.6823547324206,100.812723323796,102.186273576383,85.2414530251481,104.641086754516,121.482153038633,129.841203526078,150.926961003042,107.949266639595,114.745899158855,148.729390762237,162.867639355115,129.211364072324,158.293482142161,182.102891443085,-54.9831106160542,169.268354268809,54.246235868803,193.082589589099,367.200707950222,115.88296924165,350.369700830451,140.008782308554,167.502396370024,246.70865631373,487.436768484731,126.737174810151,257.684790826968,37.676376255155,129.802017687246,183.691409046638,601.973748438457,-63.8392033805872,551.896390100878
157.303450704634,32.0947259704889,100.47219122132,-46.1626100518603,-126.442944965833,20.3656483354347,-151.389113478984,-283.804384036074,-74.7335313397461,-506.817305391215,-510.082819091789,53.5237894237395,-292.266638334869,-784.028109323051,-96.580561722099,-183.058799121195,-82.9941503818197,-197.764417354803,-327.732823324227,-155.727792538048,-257.325948372712,-58.9520285593924,-170.184855145892,-228.418898971762,-128.014141841222,-190.73033518011,-55.0229684495688,-89.0628262622981,-147.052489425899,-93.8866820475846,-116.102665428364,-133.654728964334,-107.839005709492,-43.9252783990395,-73.7126240452247,-76.4363722690258,-86.3330890107299,-27.5305372230339,-33.5312296547511,-51.0926487112892,-27.5993156580555,-4.35863674226661,-1.26934126379031,14.3633767547056,3.36013701165086,260.716390867695,809.2783874359,491.033079879054,765.188345938381,981.487501325197,470.283280405793,917.66444755726,420.999951837197,566.364858835943,733.389082991212,998.221136487214,458.481808344204,710.357660634609,309.552528907106,501.891348844398,528.76448024328,913.404501254696,250.571157023094,814.802943931265
251.416431943619,111.60847595065,171.958845689967,41.7967405197397,-82.5351159591617,56.269149506168,-109.173488806881,-282.889396733969,-90.2733151189465,-574.72735315735,-736.897981929017,2.80667991145952,-411.307533206034,-1052.10475317653,-251.321101057203,-376.150067874324,-203.443842421898,-422.450918161542,-550.994665334316,-299.149948106137,-475.940414682464,-200.191252965719,-343.96282493627,-429.180461983874,-279.478298926701,-368.613757788475,-181.440225095538,-231.018972903481,-310.126932391964,-227.540208810079,-267.606104200468,-299.093607213384,-249.691627919189,-141.046198775988,-201.187709775565,-217.38735013092,-230.912554792969,-142.37767671536,-136.42732184899,-162.66660589515,-143.361757401606,-115.897766160166,-84.1646403893852,-72.6084558275335,-115.906874460314,655.46713521159,1473.24267638272,963.398998722353,1351.16148854146,1609.44152972894,834.828345591703,1471.64396348386,683.191158390583,930.477431196414,1211.28396721923,1492.99558429559,730.459012863016,1179.65382026257,515.196181743136,777.347177450402,872.170079129176,1147.83097709687,483.834010421309,979.526536653971
246.747977050294,82.5081792069287,170.394364895076,30.6122232119177,-161.690461856028,58.6866279694678,-118.95627443055,-352.903297775794,-118.283525210615,-632.611722116404,-1009.79681522951,-32.6835738242283,-465.270816969037,-1190.08824169608,-296.773597597936,-455.61914586065,-307.888299007024,-495.07040660632,-636.344338482877,-386.599722143171,-555.893663653912,-330.497396570401,-432.478175497183,-530.360767594342,-378.897424953121,-467.356484030805,-295.918589881412,-337.693425548577,-422.341598298421,-333.749135079133,-376.541515304781,-417.508052134449,-349.08041594069,-232.392355603327,-299.199512041536,-321.205207662801,-326.382189456716,-230.875755594559,-231.969161531992,-249.242461839468,-239.921541957002,-205.694473141995,-155.619868929984,-144.473780735352,-210.534361793517,884.544149791745,1810.00647487952,1208.81966125366,1644.45445474525,2003.79540720272,1002.23490917942,1759.51879702732,786.834699422616,1058.5368968545,1462.07837537262,1797.86546514862,810.271605758567,1443.6593779547,580.977274084489,844.361885468998,1054.03309519017,1193.81436605119,571.247707097425,903.342048543634
176.697226689349,-27.3433592586777,119.592100835149,-59.4919961759169,-318.129983470721,48.1351321980694,-159.231236438047,-440.64630631257,-123.026356850322,-634.924458597863,-1099.4793065451,-45.9584561256308,-414.724120031954,-1072.97888311908,-209.00865842458,-405.738162082593,-242.508994700856,-423.058065192197,-540.816587200054,-356.011794998543,-481.724529027574,-354.183928249918,-403.573985170617,-480.894118751311,-365.845914628035,-443.489643686384,-308.124519061592,-346.227992228708,-427.778922842511,-333.944918306765,-383.110060846766,-435.295330333685,-367.659630634265,-246.343161422168,-307.14761211321,-337.128255200363,-344.303924631826,-270.460117506816,-250.636910003541,-263.683658837317,-276.837903050539,-244.276095359351,-183.725768220913,-178.28039586994,-255.325389343916,810.059016311808,1706.91280608353,1121.79142432569,1538.85568487583,1990.26206716837,894.424863062348,1659.37396655096,707.929582248132,912.360015933873,1381.50735070086,1739.49413260392,696.141660186827,1362.19669339118,535.659007470935,718.811619213204,963.438480045545,1052.69400123174,543.542695870435,634.561175600264
148.894797096088,-77.9757668397116,92.3878729058874,-94.7784854913969,-382.072259990676,46.1787585916431,-149.929794211879,-413.881053303526,-105.343339285443,-519.816549842949,-842.35200941943,-114.846788334568,-313.08736438774,-720.927069402174,-163.44638315007,-343.912139967542,-97.82538313057,-362.229238717896,-371.85171011552,-289.633542041563,-365.86973553098,-297.703989145313,-325.419577044066,-346.480049367003,-264.869531677843,-339.755964939992,-217.125844340613,-260.2186072745,-323.145471125661,-226.661370423834,-277.249713058171,-332.344960524101,-277.067425978712,-166.29360835513,-214.907147615653,-245.423513824576,-268.048472424055,-221.963571021513,-169.282203008625,-182.476461223886,-213.028060691297,-192.155338027825,-129.473490072181,-133.533604248686,-210.474332779363,497.444170573105,1295.16442003278,815.134345483449,1183.75683661377,1610.2609832952,619.357281631521,1308.08817456157,523.2616817212,671.631686395001,1117.86827788571,1375.02682218042,524.899146031056,1042.73206822683,457.497933861273,532.814187362691,696.210623132153,807.555195984926,462.241967256299,360.68127984304
182.111682487835,-31.7067600347104,105.455987238453,-33.8219666542341,-311.582112294278,41.1061483249276,-87.0370534403177,-274.114545837433,-117.417440417774,-340.961564305427,-392.167759016716,-281.371251177711,-276.836248320012,-347.344379284144,-295.14262168246,-418.568522671005,-40.4447860684269,-446.520806661891,-322.750039591016,-293.999165574604,-371.492078278265,-249.333422306563,-312.134340704775,-287.002753996,-177.414134524393,-274.346304810369,-125.665725092734,-179.679837379845,-216.397709215259,-118.951353586951,-163.579373332814,-207.083288587252,-154.322649934928,-75.5220799846691,-112.88070025796,-132.51731681163,-166.883851818764,-130.365175487341,-74.4323263102683,-82.6697017358757,-113.56744262779,-99.2241314560349,-41.6793875102869,-52.2662957818398,-122.141998974076,102.032117066085,685.727968995703,420.482000863461,702.247218717587,991.24372515102,314.250658894249,866.434654041954,322.942613417142,475.255266188753,826.290439421781,887.219472564928,403.98986638037,675.855113708672,396.833004652556,384.637532774045,427.122251848511,450.499289118056,350.396300031523,121.959501203552
105.003499623667,-90.6683133958511,18.223920816176,-75.7280209661152,-346.616625026451,-70.3183705726789,-135.010550946718,-261.79277320567,-262.014333741036,-297.785299176433,-129.171289458389,-528.30617945364,-425.962585486972,-218.577747873292,-549.931735828336,-681.523046812418,-97.9934210247243,-645.90259688675,-487.350456571798,-365.608718042246,-525.901747974937,-238.243206851743,-396.208250954186,-389.793820115975,-167.882722687231,-318.317403247025,-91.9183316154922,-187.041852964675,-226.603956767151,-92.0747196077847,-152.593669271264,-195.325172126134,-145.574001175151,-36.9359634702587,-85.1392842051262,-116.138070139946,-158.017513494459,-123.962957099613,-44.4731443996203,-61.1819423970393,-98.872686777652,-89.3050634513341,-22.7336329327664,-39.1682388804921,-117.366535540715,-210.926852097008,-27.5714200604344,10.7722496385323,123.237050822816,285.071310653907,31.0117505823475,375.321716810906,143.644840333466,264.963377739113,483.833027579089,361.404432803444,282.348518652474,309.78621477308,310.75246238634,227.063834901943,193.657585204232,-34.9816653432055,153.670580312631,-215.672754938057
-188.187222763023,-400.279657333259,-258.880128746131,-369.565088357052,-683.114262213251,-332.62963814331,-403.491374127553,-549.320893648993,-559.534411706769,-505.421454494928,-253.930891255918,-795.46484208751,-740.462697045785,-400.868545858783,-798.610036547251,-1019.87852283223,-229.15578681127,-841.086248398495,-772.28317370862,-475.714599648684,-727.161061603719,-284.613235601562,-553.234429140642,-607.668084731856,-249.75379330307,-461.957947497436,-125.959389500715,-297.924710270942,-381.799167333957,-160.481935355592,-270.53664141486,-346.704294779394,-319.727251169788,-67.0086150706031,-161.254392728153,-241.971786399545,-301.262560902566,-287.264906538472,-100.238614578471,-153.707133909598,-229.7140625692,-240.687678385375,-133.411686953785,-164.606763897871,-280.085095762196,-364.462573265471,-659.378420508005,-369.883485834523,-478.661394897056,-343.548342875014,-257.410948318856,-163.637659001417,-61.8137120121735,-75.8142857645098,12.1125260125086,-192.379083351283,27.412680896929,-132.126189769028,92.0344267571332,-66.3065206130717,-121.990180841646,-517.841284579035,-193.18266562544,-687.644922548466
-549.640297779879,-795.424455440364,-585.974393678673,-752.4330762563,-1145.83179435761,-608.479609444766,-746.640556402551,-961.455865149888,-859.840032136561,-818.074458232753,-578.598182932887,-970.856357125755,-1017.66508797336,-681.065622817221,-950.551224679579,-1231.13587603419,-389.094285166466,-951.098281774,-992.80293889691,-606.166593877798,-884.01117678167,-401.863223260965,-743.461197834172,-833.824264158783,-398.231810494819,-645.589970329624,-231.026172210104,-469.4297552018,-599.745170856383,-299.909676888682,-457.485454631647,-578.26590710794,-580.951541260593,-167.988066602119,-318.733506857839,-444.641115816733,-529.812641239451,-550.792143097258,-227.154406612329,-322.491772323175,-449.166576120621,-491.397164371356,-333.6297832986,-391.926115732123,-543.517399642043,-398.394194762089,-1037.39184927434,-643.001329267265,-942.228151541571,-818.956122592885,-514.094160633195,-708.539040411819,-299.44695431183,-480.059368977531,-530.934688123781,-715.445262687625,-338.842206349916,-650.631417725545,-248.297877660393,-489.925835841175,-587.429508250423,-883.183428106878,-624.618543893171,-1169.32864460924
-809.786759416611,-1038.92094187513,-796.852011831073,-982.767900837148,-1404.33169637388,-756.059245291956,-949.467915704537,-1193.38479380291,-1001.21502466635,-994.761693997942,-765.917455276464,-985.260886489808,-1080.83086351367,-782.806314685828,-980.96032214324,-1215.90842899427,-531.958407483144,-959.186407968558,-1035.6183551064,-715.022151255715,-960.130435508564,-550.947208855468,-903.524505940436,-981.900610746805,-553.865735467289,-794.147990805375,-369.2847127299,-623.170219089729,-761.514695138076,-450.790495096516,-617.636525304252,-750.822834515661,-771.425284276059,-302.184862605438,-481.587355645157,-611.079505754828,-711.329622938806,-757.117660532209,-371.717348978035,-484.158026268404,-636.201668874137,-695.388209567144,-513.429669612204,-600.950795386065,-752.87131312435,-342.277161166157,-1136.81844829416,-672.620454523686,-1117.35435378429,-1123.91204810682,-575.544397185964,-1141.27224540497,-435.507315975981,-689.678438053314,-920.027705473142,-1087.41577313388,-589.096372177615,-1050.1412391829,-532.334880737445,-819.956893783001,-1003.46366491932,-1129.55277717303,-946.883851074876,-1497.5407549999
-967.431007120972,-1094.09924339409,-884.084171155296,-1021.17186238464,-1353.18339876874,-785.506758764442,-963.35314249057,-1155.50238178666,-972.259361204876,-946.80991251974,-677.365372648767,-895.348653553082,-952.821480443144,-616.021480273505,-942.079207417536,-1056.48163354556,-673.580183595309,-909.54997313741,-946.163596245272,-820.66846094833,-977.205580740174,-707.918623151574,-1019.02473090429,-1044.79897630924,-694.587628294141,-889.822402351292,-491.775059088909,-725.660478545604,-835.538673109958,-563.2926939362,-711.232616276796,-820.798827878427,-845.608917525587,-413.796725936789,-590.393326652701,-700.847876941724,-793.529853663384,-841.213795727853,-482.320339409176,-585.684295469836,-732.975160638226,-786.288321073633,-608.738488022102,-710.668007305823,-841.559625220371,-179.500643549616,-999.681035656315,-405.2431642665,-938.804579512887,-1147.23738520649,-358.513493501035,-1238.5873029051,-360.52436486903,-536.636111113113,-909.967965542267,-1154.92913732135,-550.76846304466,-1073.84016017497,-615.121262071284,-828.60734929936,-1047.46660118209,-1171.46090762278,-1010.23673886031,-1514.83670578826
-1054.31032295259,-1051.56939825691,-894.699863570657,-957.229025961162,-1146.08429341895,-757.301028568824,-864.497894799434,-982.299732348549,-855.628183765692,-776.058309292561,-464.556543450871,-799.141559470692,-768.667732766758,-337.214602059688,-924.453469965957,-894.529981051194,-858.437932791473,-887.580699700552,-868.575062587506,-999.888173231908,-1011.26538727261,-884.57428175313,-1149.36106186257,-1091.39134433774,-846.965437779403,-981.528579096864,-592.763393003174,-812.671559421928,-883.476775860575,-639.553344025383,-772.292700081223,-851.482307292466,-857.376932022947,-489.806711825055,-654.563777032314,-749.914793106878,-819.275925306422,-852.623868571603,-553.933233218058,-639.238308826655,-768.365328304194,-805.937067543901,-644.065714692095,-738.057411761008,-853.972734721624,29.8155271823242,-691.145568513418,-19.6213529715676,-503.604009583233,-837.723356703817,-17.0738540886899,-869.720956271981,-142.506906812443,-159.439037654299,-499.522124630136,-858.617488952423,-300.882318606427,-700.590350951651,-514.816237905255,-571.42130916479,-721.385154469102,-900.353328733997,-856.016501838802,-1191.93848838601
-1012.68803370932,-948.752117436256,-813.890473520396,-824.954178454217,-949.685743976168,-666.716211891191,-702.41707606706,-801.032830737476,-699.237310283138,-620.351265004731,-346.384725997362,-718.198806820255,-596.90775103422,-184.247716225291,-937.631297656904,-770.291432762595,-1030.46207644171,-908.6086672582,-856.901477976595,-1193.882397863,-1078.43275922884,-1035.52512036282,-1273.36730535954,-1141.55510590486,-975.653671457728,-1064.16025388898,-662.99175835797,-884.571895527288,-921.45715762605,-682.764403187646,-806.718575333757,-858.92521360359,-817.744434077484,-534.001240949074,-683.151688636541,-762.867313334651,-801.956428601698,-811.528784435517,-585.744017182438,-654.731635987436,-759.194706932528,-776.01906471778,-644.863408041024,-717.104482526434,-811.874178813471,151.904493333342,-409.782609414963,200.078187236187,-121.492436984452,-454.278659012356,238.812839992894,-302.357188230057,81.8667547913947,153.255888659798,-22.3598654382422,-408.817652613096,-36.1424861101991,-228.167571994652,-340.56486256308,-323.158518545685,-385.353438021396,-479.012672577408,-667.750982171648,-733.250672538704
-788.457622240044,-751.628107096674,-610.139422986748,-601.236152682553,-770.558701849249,-492.503860339423,-483.426704425225,-616.081560675323,-508.102472845133,-511.096630025773,-373.927135044594,-597.585135865348,-419.039023030746,-237.000931895161,-857.474187740704,-608.605399021335,-1061.92851087751,-858.041469752657,-807.451609813193,-1213.62585044455,-1074.68504742498,-1075.950879494,-1251.78228733664,-1104.70252004615,-986.196124687819,-1044.63629805391,-668.741303259451,-871.521727543974,-882.730436973419,-663.968135131413,-765.165088984391,-786.60137243543,-699.701342432319,-527.320227580553,-646.906199930277,-702.245587639257,-708.618220735934,-691.497837556939,-558.55235853438,-609.316958215781,-685.466268734082,-674.23401361383,-593.805541530647,-643.463018031918,-696.585710685386,169.037025674456,-334.056334927906,216.379967252176,-4.91365498321063,-276.389216760259,406.189940282047,67.4970573865239,274.388022527795,344.192368881509,252.580352991464,-81.4084526120555,184.297507923689,87.1306956679198,-165.705895067987,-168.068318397608,-200.785622505675,-173.725825785879,-527.504790838158,-355.336777191162
-447.333874702122,-461.126959390153,-329.482537741521,-322.46087759859,-533.965822825867,-277.645773553173,-259.348262800983,-418.020675918101,-315.868310458283,-417.006581968858,-459.74463245375,-394.593681999097,-238.630778518006,-386.327837729173,-561.444584750487,-353.098475474337,-912.255872318277,-617.08504519797,-647.820478407481,-994.933454924336,-916.319158566238,-996.93530350693,-1018.52866789878,-921.986044237058,-862.097682558649,-872.543649575767,-614.219035157988,-742.511311817006,-737.986395541205,-576.031341967783,-637.284154155213,-631.294134566623,-531.159940224107,-463.269968150234,-542.138092503231,-571.116930263666,-552.887958881018,-521.147723736004,-475.48295242924,-502.448400874115,-555.431732679977,-520.567398767898,-488.43828134989,-518.757645736635,-532.568075313497,215.009737062355,-389.060427357493,283.603902263902,20.8895925278677,-263.278281500894,629.191013890864,239.951982341885,491.028512561702,611.247596111998,454.198448008468,128.42297474886,458.869171065397,325.341589006976,32.3111676221456,91.8787399115831,63.2157885555697,30.4370471781231,-326.932062671925,-43.932988938222
-130.127550884237,-153.379422531113,-86.3390669350919,-77.0372205363303,-239.756746792672,-95.5601442542363,-105.943270513882,-237.858059923475,-165.364823198782,-322.257714193338,-497.119476292381,-129.957682415477,-75.2554841167328,-473.731506678536,-74.5429679736847,-28.3810187914025,-675.251300689547,-191.692257927954,-431.121321157397,-659.777778917616,-632.909303772243,-860.20196999028,-660.792240702877,-660.634828833887,-680.52975682267,-604.498928377939,-545.252233642317,-557.09935937178,-540.205688309069,-458.590365889559,-475.687405238534,-456.645341991996,-367.290892006964,-376.42897945697,-412.216830483613,-418.875221434341,-392.199236609741,-364.904310439315,-370.408344271061,-374.370377249816,-414.339755314763,-372.130096191263,-369.719404884917,-381.479471402814,-375.753380499773,334.068259349206,-465.121088710046,488.821999640525,131.646471559982,-330.023802263751,884.050826098618,379.413170856534,735.955735080422,951.069220457908,717.32643533615,317.860955818048,787.405529466418,607.722535059705,292.539530458645,495.775224389405,497.818769382678,263.644590074785,-20.3999002014395,278.647794859834
87.4875519984536,88.732349907925,62.330045288566,117.946022248908,28.4877646423808,45.9361651249855,6.25357269209379,-50.0097411615416,-12.2128609690396,-166.011028188985,-387.920694017089,157.080198922838,143.572496592342,-358.892121244226,457.110256400547,348.25798437092,-451.90034277178,315.335920861092,-174.598981275196,-322.866351397667,-280.944731010931,-680.887373556137,-289.026495883979,-395.342154118334,-483.058854464599,-315.887075190713,-471.606708414081,-370.970724218483,-335.487999528441,-338.570575374744,-312.385490605722,-288.851393246346,-209.856200192265,-295.802006489629,-285.481878645584,-269.025726281671,-242.323874214299,-227.817194315256,-269.597908398649,-252.593694150875,-283.923774194295,-244.247782687551,-264.684859530791,-262.389201688048,-238.75224388559,385.766498710906,-589.292227996337,569.511630069265,171.119398618263,-503.23639750294,942.354900682567,407.004394143389,894.738361624856,1049.25122536977,849.566398731924,410.531478842981,989.308784563209,818.008617278381,561.391677911383,779.609879195411,841.414139870793,451.600999489463,254.78795060636,543.815409088852
202.39150019035,202.769578190718,136.062791777716,275.105205094683,167.115746258843,171.429068941969,152.44283901952,157.798237673012,197.448947213121,98.881244428189,-140.583258046754,406.269566759266,458.174901137906,-23.4068717917954,844.574685028953,734.211457012163,-228.663344908743,759.221121806063,138.325319540208,7.38111719533114,94.2169629745535,-394.261046625437,63.0268986719652,-125.022742006592,-225.574898859921,-29.0850614668844,-342.882443014722,-167.441025396491,-119.127355434641,-195.375861260434,-131.246320623863,-102.694661277362,-38.0151441367035,-201.951745505707,-148.291371606391,-108.024298991691,-83.9272345046467,-83.8410902295474,-166.778188423214,-127.615958929243,-151.936180212981,-113.677298303985,-158.751777846376,-152.469803533574,-101.643364501356,275.187242380505,-703.701211188264,358.510478910528,20.9933427246715,-642.908634042649,706.107856013107,259.102443828561,856.217433078541,759.866664438087,699.854853976101,360.378935503726,944.15036428068,844.329568152584,717.709105541634,783.295809202719,924.663920542749,456.777875424603,386.227730378527,653.593471551715
176.970915883366,135.075794397921,112.319978343689,305.405834061226,93.281286153778,222.913347169277,257.710665520944,243.229088315927,346.310340875047,312.4425701546,50.6692404696797,487.409279704396,658.369379380307,307.606418522038,936.017802790882,927.097436755811,41.6246639364087,970.06936436604,362.868836940136,336.425608617075,395.853828156502,11.0574381332925,395.080348289162,140.044046241973,96.8257319346796,243.860553865592,-152.60054459884,59.056525625536,96.2446816516523,-31.7794096309871,51.4199508167444,80.1201238215085,101.054827839332,-85.9997428438116,-8.20859961406822,40.3992796642624,50.1420662026067,28.7235417365416,-61.3984083189835,-12.1143637799904,-38.0751276772369,-3.08063250299019,-66.2103996706342,-59.750160299946,7.71639420549231,79.1448951212763,-716.194205116255,13.2351417681889,-197.143255455672,-613.305302988533,346.423087458951,33.7569422243095,641.632636491341,288.703981038688,352.12130065628,187.779489177923,709.80490075036,656.934735587457,661.148201192045,572.950706849749,771.218277475974,182.777852669785,360.726314709483,530.480552980316
4.11453451152775,-75.6656842948652,-15.1399335614287,153.811143222185,-146.207976025991,160.631734916823,206.554335109498,117.021853540925,302.438537457986,279.629076259532,66.1901909248608,360.331984954887,540.745409109355,407.10943816908,786.164330126516,766.385411182748,313.627139965696,890.842780612141,334.504690737063,635.718160696121,550.12955140237,411.598923891411,687.215330533029,363.514590621086,372.000232921932,471.829137178033,3.60828050619024,242.517088269087,262.882695573636,87.1310961236227,174.022905587177,193.651090013451,146.586348658997,-0.623037208749616,82.4442217035145,121.238363466806,108.474330932432,58.913443746318,8.31173773901205,48.5109715485792,14.533856959708,36.276592357956,-32.4546783759407,-24.2928354213524,42.9120451869138,-96.0675735728563,-733.122168116768,-274.522791162584,-392.400384171735,-607.099632448193,61.6779211040774,-246.80957909282,379.734794836409,-116.917627663559,-101.91787605074,-198.294119283692,408.229541083698,150.344021552973,412.480558979371,207.668459937589,315.485878612292,-477.415746555919,191.008692908971,66.8178926442915
-179.697696701941,-262.472966270101,-112.342581456676,-23.589791986782,-331.004853650172,114.032658867779,97.068996787624,-33.2660685909143,197.33152966388,126.69371285276,98.152578085012,224.031666802024,299.992792194068,383.428294231749,646.668918890172,441.29393331262,514.288887890173,697.246682282506,192.798294737171,904.46381553449,639.945092339484,694.798223618869,930.752756848202,575.083412257017,519.062292534698,643.872978452484,63.0587893494499,340.143352589707,374.083040893272,130.490707148873,228.723184799533,241.3462626618,141.91266068295,20.7645806812051,107.985954467913,143.698242890161,120.509335740559,46.443211430715,23.5532496289127,57.0172519493422,22.1969085060716,27.1687529678626,-40.4848416957807,-36.0816651970935,34.5984664277646,-254.566410830976,-865.693081841537,-495.623635682836,-558.7365522316,-783.143386070968,-156.93498926944,-539.762596910958,157.330807791293,-371.732766952288,-522.530968549971,-715.112847579157,133.537808101817,-560.756463473838,141.621473025689,-216.204087871438,-397.410932432527,-1305.44216499723,-33.4708907483915,-616.992193567426
-247.070249836435,-288.51147457001,-67.3826575504779,-44.1601540980455,-280.045439886422,205.233814080217,111.052500065,8.76410320700715,236.08326375762,143.400281488201,365.02565639897,260.618639947268,261.516303554436,501.215718145053,636.24116264962,281.991634738373,626.366079357421,600.609963746519,238.383658273078,1154.24510492443,794.085676958107,892.118054147767,1145.47414824904,813.252951187456,619.66426340551,771.387526232242,103.580248427113,405.506812139931,466.481848333551,165.544430301889,277.854391998905,288.472939750338,165.373347630683,34.3415188947347,127.809393834932,173.128826243533,149.471274099209,57.6965464403751,34.1103974283875,74.6590720042978,45.762191157556,38.1670343001276,-23.7427686818487,-30.5118453719812,46.7253246301164,-471.792152722841,-1000.97641453981,-750.162757094182,-661.024296062061,-938.184115969507,-466.975545391428,-641.82335612633,-71.6930108487639,-550.889457826925,-687.214711453901,-931.451952622993,-92.9423222134407,-959.331281401678,-12.5349119451632,-475.147348269515,-936.26064189183,-1661.15802434009,-159.735844932521,-1068.54613023617
-229.209279702639,-175.135699219026,45.4521327662193,56.4622459450044,-53.8763314897752,351.767448282798,232.932355819506,186.73829579935,376.442208605536,355.783257269773,769.974957118535,381.957806449644,407.959500186491,780.652339794783,625.790869301714,353.106163734668,655.45484659767,622.964387189726,518.689965721239,1352.71310739345,1007.9042920381,1091.24525638857,1354.82084471936,1023.5579690051,798.22168262988,884.042847859307,233.143361089296,527.356221036158,566.879030741879,274.498791979909,373.290627496622,368.633090621704,220.318288381519,114.927181947617,207.576468682404,248.854204606949,213.772011866354,104.377229855159,104.118624849771,150.162727180844,118.786357578683,95.0118220480809,52.0366737914446,36.0511240151832,97.6980441092656,-695.568494100815,-924.44966484692,-1019.58594440116,-645.056457786521,-834.948684162237,-855.086007932833,-470.53400344985,-336.208981249042,-745.058179097075,-587.881748183038,-671.297000936564,-290.832828080949,-770.70957147416,-93.3829058739615,-450.186878500148,-941.882497538022,-1272.72168296212,-134.224182848622,-1032.08040709063
-179.393094075535,-30.6056908137525,130.98854618087,125.226247274045,155.466036182866,435.73089421899,316.848111186174,306.497225522938,457.245968159001,545.429861607354,1062.30352551178,427.500524093503,508.271848713161,1009.10945288094,535.539902420691,488.875661653199,615.014499011808,698.164787568734,810.100763680978,1460.44338304337,1189.93913801163,1292.28887714677,1544.07918168534,1140.19207167851,1038.47466515339,1019.30363159948,435.611760306627,719.013945549525,682.32292414611,444.186462070021,507.531229481431,470.752688358334,282.558795055842,248.954646901218,340.858910282077,361.258971046018,306.855331188091,184.841763289658,227.237372903513,274.25834562454,231.047384199028,189.106981469844,175.030758526173,156.616184974471,184.499265152735,-721.767122673073,-521.685261804208,-1079.83898027175,-461.539814939852,-509.042517057631,-1020.79232955754,-232.797106252761,-493.97277427027,-837.694743707748,-468.359226028289,-417.698049025918,-398.069082969858,-415.097181945476,-174.670411555362,-245.42637166846,-647.562131904657,-670.795009497904,-34.8098739034818,-765.557399420046
-51.0113743883568,82.0356355691104,230.385696861947,129.559569993755,267.285023809111,504.424975971881,322.024122848716,332.349693674016,458.410680530335,590.824303028914,1168.26490447082,411.674779913624,496.601838805413,1055.24684008215,462.428293235374,596.392087133508,551.80154682622,803.065051811643,961.727355001222,1462.25929286642,1275.27185358903,1409.55343384521,1613.05521699349,1165.14498983486,1204.3491508501,1130.34958605197,596.748144186411,876.084048012138,779.334085003616,573.09650395191,614.293751597966,556.868808509792,347.441256492251,344.327201208904,447.323353026212,462.082801432453,404.078999611932,292.627483307137,320.828964296833,382.941049464142,336.280202440423,296.625900241168,300.463113659261,281.717582922743,291.74942980895,-517.54191543102,79.2791189515724,-833.158621415538,-159.261295922847,-150.66452775278,-830.609057315946,-180.021489250557,-449.196651167507,-673.980410233232,-506.548576077367,-690.461551401987,-336.797570486028,-422.095375315848,-181.410941834969,-30.8951586052697,-558.292646170183,-454.396516218471,74.9127591425664,-613.282150244923
185.280924253097,166.444282144515,380.057873521405,157.880734123859,346.860598056715,632.757671170318,309.87749040437,379.203369291203,437.269636288626,554.758676707804,1182.90321738575,418.903805890372,462.223686640157,975.933470548248,452.365638447298,709.205134146499,535.672465182079,876.00530725926,1033.04442018848,1342.98221378094,1243.98738285634,1394.21772723272,1458.9668402022,1109.03997776972,1217.2133205094,1098.38430731979,662.15705064295,890.646401514728,789.559522107515,599.570476946675,628.656029056178,575.293953184426,390.029470554797,357.869100297761,466.91197624128,499.777921873067,453.851366459717,372.672602037836,329.997610805503,420.610532444361,382.224978743107,371.413193699856,377.416081164215,355.917625590027,369.268748100532,-347.653395093879,575.005730483912,-562.485942811351,71.8978559541834,151.110517105395,-679.401871044134,-319.532661155899,-436.418263456721,-461.014840384163,-652.883814111729,-1271.99206485826,-247.229593060468,-758.174103997687,-44.6323248405185,70.3102606806161,-777.730134790908,-665.942971925103,219.297143559098,-663.980625186303
414.275676033744,198.441643162274,477.206726099914,216.23157347333,434.179834377571,730.602528736395,282.367277019348,459.298414835994,363.930363477641,495.8077329477,1146.21004813893,416.246031078089,417.237737086286,844.836184632697,383.119225161,769.584650101656,560.496536960699,767.794134095455,1061.74989612897,1050.39353686611,1096.43857148842,1245.27301551218,1106.1235111707,964.199880563646,1095.45822538186,898.378113142933,671.892927892191,772.043261021237,681.44049510621,564.710850200958,552.848998374364,497.217139033139,352.003201240297,351.975471234723,427.64435954607,463.150235951489,413.744858326154,350.070088323328,303.386536349179,398.737954632603,354.743951485792,364.163187993846,390.651643736612,359.121890367195,356.968017357485,-449.31750963657,795.332616324952,-622.118621950739,72.0094270615061,460.96113140391,-1055.75130861576,-449.828569162317,-834.414166707565,-622.945995156181,-794.628682274803,-1488.99080719791,-450.78377471729,-1066.95588028065,43.8055143675988,6.15971402209345,-999.121399583969,-1061.4577761394,394.147597687317,-871.868957594349
474.442380640761,130.394566536015,420.591570961647,169.740195169917,494.409160380003,672.983421902864,179.282715935356,445.299475788851,190.101364144756,395.937794211825,1017.47132501073,320.975743780654,295.891375667491,660.963119107559,134.106350445986,597.742120473948,485.588240448824,376.864601148738,911.307258315668,484.793389098978,814.245897613193,862.88100190104,620.361994756306,742.13839990189,807.609370886431,605.596714223261,622.030861663734,566.536961794388,477.828055972422,498.06812890766,414.464683869837,325.848612807359,190.382460413576,371.68813242123,365.648340785662,356.142702443388,272.051259129676,196.665736917919,298.829991123009,347.417440261533,264.355840251238,246.069142203408,348.581883414015,289.951737462845,220.442307569739,-738.777401002313,809.50429317813,-975.946545949803,-156.728847591479,750.034630196537,-1840.21660304467,-522.72108104973,-1646.74504553367,-1238.45888951755,-995.178325821864,-1226.21600074045,-1056.13184426972,-1284.29340168544,-194.942631427352,-215.652355531816,-1078.03740169819,-1469.97513516694,477.776150682614,-1147.95734787003
363.676848085411,48.2595846108258,249.81071546574,-28.5770025857128,572.325449800108,492.582780378272,-7.40049264956441,326.006858970986,-31.7562560455066,260.664587341607,825.970640733176,156.9665687499,104.102268367714,434.164878780104,-238.406412441207,142.255993828771,231.518907131907,-216.848458471403,467.534680970964,-363.191077327843,352.936526736045,111.00059653589,-15.4378053229161,453.904631502891,271.856158020688,237.707393648838,425.724227093395,252.623688381756,200.980777951066,335.29705256641,195.512612268591,72.0869621079474,-75.6867691041082,342.682422310613,236.381025378276,160.177753315078,38.2825646686719,-56.6674905874355,262.160101010127,236.808630302093,101.40841598982,24.2358910666519,236.70429329372,134.31862200721,-28.9194965840033,-850.423201067725,819.272898292435,-1106.42830086132,-345.647446349385,860.730833540151,-2284.77057925935,-652.813164407057,-2323.80977650079,-1815.90637879066,-1263.73936269788,-944.40727289225,-1701.47100382187,-1488.42724389758,-662.753075823779,-523.411404687677,-1119.98384940084,-1689.11579358296,382.996558168093,-1317.15443301455
252.147147753806,132.225355848688,46.0390944884479,-170.698081969602,778.844085574116,265.577430404416,-203.19484909405,283.165711586712,-226.733942210593,155.887555966329,670.691579685329,5.47409935666703,-86.2116541892073,217.002933717896,-543.823291030637,-422.312940219871,-43.049843696573,-790.682612735863,-140.540607359059,-1239.12152189643,-259.946496665984,-846.559822122451,-757.50265894799,94.4226219323959,-411.680949511844,-218.872188412988,83.6449545858352,-153.29919029397,-122.383478340435,48.7891767887252,-105.73411993415,-225.22838812425,-358.015444509976,186.372413224971,3.83968554618058,-108.022500673378,-235.778067058711,-326.77658563026,109.797761299599,32.3360108765284,-127.886192907811,-234.633616534832,50.4506135514712,-88.4755354073884,-306.249025444071,-547.71587624376,1076.96021344037,-577.830692974579,-57.6520648420694,873.133119839854,-1899.69860698218,-651.613410226005,-2383.1919849715,-1783.47274589758,-1211.70283601045,-650.808917256399,-1940.17302964854,-1394.09762892134,-960.279713741487,-767.416084530327,-1052.5644241442,-1375.51738883984,191.334558696999,-1163.96705583752
276.089349318545,402.172416812132,-135.563159759222,-22.1713420399184,1063.89005284896,-0.0821538162757814,-271.251925537116,439.023207524837,-353.066075853162,159.729202771304,591.000936459934,-102.493359262056,-197.035407451349,62.9084165479897,-644.739119012549,-832.963978923363,-142.626653633521,-1123.6628217187,-606.713460200836,-1752.77527202796,-823.791689859255,-1513.33787035238,-1337.20198478652,-282.629800345116,-902.930752747365,-620.845842545015,-215.098455446718,-478.124838152914,-392.775565002265,-216.100334997264,-365.863462203097,-454.286044052696,-526.994951599082,-14.4202947395259,-222.040484059945,-325.706948262795,-429.735215580854,-479.045781551902,-88.8875632342222,-175.750367113464,-317.870652760843,-400.374877126808,-120.068144131747,-259.863537201176,-464.991909588072,-85.6691400675686,1536.53696616481,272.474528655144,632.61976818159,973.485748083127,-1107.10429346332,-275.322730427396,-1990.95513766024,-1186.92926187657,-628.802947002529,-37.430221616791,-1746.62275564239,-780.488463500768,-912.34033310162,-805.142547841324,-709.972122927832,-419.269017618447,76.0010629034138,-594.24927269998
368.862878450763,681.272474923465,-216.071728398316,332.051885544939,1223.05996889585,-241.677086523639,-128.749217596063,679.401364188305,-350.339864470016,288.154938190565,526.935180692045,-159.629512402362,-169.61563332519,-7.62803447374452,-571.113213771648,-918.695695506763,-97.1744422375524,-1137.8185431877,-742.713590844691,-1748.18204528836,-1120.87435313018,-1580.4760494049,-1495.36357559102,-581.879802164783,-972.358544291209,-761.06360593871,-294.316170309409,-560.961507440977,-506.518730714236,-291.124697329173,-441.117956796675,-518.666058323835,-521.575369693482,-101.50775537253,-287.925972490308,-375.471313887116,-453.863865260114,-443.873851420353,-169.471984718887,-244.040223029304,-349.118654857907,-393.250960241949,-164.402723572764,-271.363344290955,-439.216174340406,153.735991398383,1630.63566516598,695.696829749331,927.781449604248,892.358536555419,-569.271404322924,61.903249175598,-1537.41547563907,-583.623929528297,-65.1788731622033,482.484072285599,-1354.39413820999,-95.9348375165466,-669.091078160936,-599.477857521152,-212.708478430195,685.378376972575,159.161020401975,212.274708144342
337.584080839655,797.959355087995,-184.418797586248,555.035594711932,1139.20023339763,-354.702444092711,77.8808571068585,779.655761394975,-231.03078235714,423.910344455315,377.903976446982,-173.699128221255,-59.9337454295733,-48.9534765194051,-459.120987665533,-765.288895989468,-80.8934414122676,-964.847120740219,-675.470306152478,-1454.08729266146,-1183.08304820725,-1287.19802319635,-1337.82628737559,-802.422326004272,-793.862987953124,-689.209055323558,-227.074017933238,-487.19009554257,-515.81012096276,-226.759530125277,-380.799341742692,-479.976119792819,-442.079688072332,-71.7970953118286,-223.726267463857,-320.314966377516,-382.23501719271,-341.080656367254,-121.071706024363,-193.358249287244,-275.00189548086,-310.402284259522,-123.27946836483,-199.061554288855,-351.147565256561,175.118013849667,966.014474611691,478.09075813849,360.695478221046,273.630012224111,-396.974775812954,-206.82218699255,-1179.79821313412,-368.137636991984,-86.9547123332401,305.04387790718,-996.671246330698,136.202852724242,-502.234396210654,-294.320700251593,177.484853362432,1233.36749957079,335.06044561799,849.143855211957
129.453336118199,708.405980549891,-155.191669300317,479.988925314397,862.894721926858,-351.270030119252,124.07347456024,645.145822339084,-131.068235465503,415.869432526659,114.635962606373,-184.573268232945,-12.9504066180124,-138.351620638137,-394.987551084938,-624.819982283092,-149.064472780115,-811.060451636105,-650.79842230294,-1186.07255589498,-1204.18468064077,-1030.58697306463,-1181.91566552318,-1003.20493785134,-679.661613330427,-646.295463514099,-208.534206138785,-456.647049754313,-551.195029392683,-199.50662309201,-350.326327694196,-465.592144222789,-410.560442886884,-59.0758639235159,-188.05840762855,-305.095525817901,-349.271371575736,-319.726154559998,-87.4758144151914,-169.553243269405,-245.852045155215,-293.098973418679,-123.958818782893,-193.863213761037,-336.681987658428,131.719864975836,-19.0110556559827,-10.9801922341955,-528.122738540408,-521.982744107061,-437.052542693444,-823.803482273545,-1047.98466607756,-554.56876658053,-504.28825949782,-235.192191060497,-942.150905794839,25.515536911981,-641.299519390686,-223.788992104548,323.281783425929,1037.49711220601,303.832855718307,995.249497022535
-75.3100157115194,484.035187390315,-170.272801750899,275.400173018961,513.18227109074,-314.801074871567,44.0874810811506,393.647866031376,-104.950582979359,270.822152403026,-166.034032523891,-202.611824293682,-67.6831655706508,-269.782046111542,-355.335327556724,-589.377202860752,-185.999101165027,-729.186554329153,-716.503649538254,-972.113626874931,-1240.18471031563,-837.163451345242,-1097.44021607515,-1151.54874859658,-654.139337791619,-682.113220273838,-268.797029394839,-487.635467636097,-607.972859801312,-239.535014926868,-375.456099184744,-477.202049123341,-402.475027736917,-111.47709779361,-220.56228913139,-332.565799245852,-357.116901747992,-344.727900623456,-124.48372790039,-207.642031031637,-276.399392690499,-322.995517261358,-179.439986103557,-249.735814666708,-356.987835072723,-20.3558099512354,-645.993232006886,-422.879043763149,-1004.75541160809,-876.43554910055,-612.285401972597,-1121.32988407209,-1163.36887573846,-921.781967980318,-836.699779754679,-485.696467814162,-1207.23982502753,-119.717727020715,-986.942536607755,-561.712064008935,203.496322042078,479.573745635526,-20.4532705298885,698.12010336314
-99.3555006717921,268.630835981047,-116.619895710308,167.642386461287,215.525071416337,-255.671942679599,50.9049997043932,207.741101847862,-46.2959741945574,130.001483537249,-351.169990666053,-188.324849299911,-126.971516686941,-387.436870123191,-292.84046756748,-527.641820052298,-96.4510278267203,-604.713529661164,-736.756980117696,-598.448412433791,-1170.77793760934,-463.730935671862,-864.786393497491,-1138.2431930781,-503.125354077999,-609.338235195052,-273.813980133078,-424.687904009012,-560.786578639902,-225.802407122924,-335.049436943501,-417.829346170083,-327.879608219325,-141.951929899568,-214.541717341118,-293.755859728768,-310.88554448222,-296.385259234321,-138.828157541655,-207.75477874038,-255.744268230491,-289.69094748284,-195.848902063302,-244.716078068967,-305.219772371644,-300.540823809256,-810.274246141592,-655.534908325407,-1002.90730523016,-835.926860121677,-755.847248344247,-988.303640662856,-1198.39721087437,-1131.24536369115,-948.573987978115,-493.11136672288,-1350.82122133001,-312.193700218013,-1118.02443911986,-961.527692362027,-60.7820812924234,-28.5040835494377,-344.368065776752,261.273886308945
37.9432656199202,186.757449400286,63.2867682351184,200.392889991588,73.7548841892289,-128.379403720853,200.969877432251,163.737796761028,118.76517294829,98.1496889050288,-421.455977849606,-98.6001456580694,-93.5023163726654,-455.505698427844,-156.331249084654,-311.712977339942,114.116513640761,-305.315100233714,-598.8255341688,80.2038665334925,-857.113902352398,184.137681600665,-302.828715557341,-897.881772670438,-106.958872865345,-281.608863867777,-135.773983610969,-162.644475545234,-330.726259186903,-81.8915196771262,-148.808141258722,-229.240868559927,-156.965991360617,-75.8656839375785,-89.0838744556758,-134.887411006769,-155.03314616853,-140.8922693133,-52.582620797153,-96.8394090454125,-118.155486890108,-145.573629678165,-108.745945072264,-119.045505634898,-151.642172133412,-502.912925580669,-760.295658145572,-703.713264141465,-848.204908789779,-770.88977468811,-662.176652640177,-760.64589253474,-887.298710471084,-966.105898097916,-929.234195334839,-539.63060289204,-1047.38604871815,-558.408273162254,-844.590084323043,-936.530005175494,-224.59109911958,-282.276160653458,-380.936381932285,-66.2612415058741
211.602278380527,225.339966435387,266.758438824972,298.480744422435,94.4760195156777,50.2245206078515,373.938560870031,214.480295789615,325.313826006877,169.512412102494,-427.154963780508,77.4602078603229,51.608880841978,-451.678659109988,128.530765298992,68.09000471017,391.524455693003,223.98360645851,-295.476014895313,990.933671812344,-247.704042667385,961.480518741208,551.01905222302,-465.945922669165,458.881972312266,260.141037667584,102.405832970007,252.353901242431,43.1694588973583,153.695732771444,145.394145459168,62.8698240540274,89.3278148509228,61.5195408595126,127.324796140711,107.938300223967,95.1174809737954,90.9359872644388,105.346988108565,100.832149986808,105.80815038611,83.4375482663886,67.5195737000516,92.8675479810958,79.7894356484254,-410.922751458214,-543.238673156723,-536.305019405686,-629.002503487812,-624.592128880266,-309.361383001902,-541.376329016906,-380.018845985695,-507.099936699579,-753.668721479411,-464.2700951518,-502.623873556262,-578.285193070579,-427.704731541754,-485.547946053625,-145.647234400566,-161.100236714488,-141.095377485177,-155.710260698275
353.286948855733,298.402516657774,387.755885862806,415.501457523693,201.019082784294,196.537835222892,488.90676612953,293.14835558583,478.28492502668,275.657152384032,-404.501236715932,285.99397491576,254.411295737104,-367.331670610126,534.345390569306,535.044414625737,594.618323155185,903.334198503201,103.256235428513,1864.4775642119,556.087303242589,1668.36261790477,1473.92312510972,48.2864142827824,1054.1509453946,855.09513946383,357.333873083352,696.628881585082,457.38134787388,410.050856929169,465.06854664822,390.965117846832,380.68205629392,202.72417894105,361.245424807768,374.633543529551,388.784776565633,368.199903676604,268.967922663305,321.040703222499,356.538194597063,349.789978725619,278.815047445873,333.423853876103,358.828669350931,-32.8186005532417,-86.8999651898928,-134.204581664192,-211.125085949748,-185.494150354559,178.598166003411,-163.555960342154,95.3271254052398,19.9827934001052,-341.178247132167,-55.9466946732431,-20.7988516847141,-211.804126561672,-114.172683064861,-9.89144803719802,69.2394164850525,304.965480022553,173.524433663901,52.4508370492296
498.581121604461,446.334896553314,456.220070823359,587.231615136268,395.414331306448,287.314854345767,596.045450701699,431.360156672356,582.313038643579,399.990430268597,-287.415944429277,441.903659090135,470.938020873775,-175.707749976626,908.509368645278,961.885726043127,583.138769751939,1522.29000212826,502.287368486463,2396.29434573223,1307.86676285547,2144.2674695459,2183.98223319661,546.146829385749,1552.26714464315,1347.80701476982,596.798703680771,1074.92633022936,841.60968941796,655.234878777431,768.909849489253,719.514859623961,706.929000408949,331.075551677557,581.789687209619,642.355701432284,693.56356112814,677.006957876261,422.414164452488,535.304785447354,614.936396308671,632.774448616181,496.895127063186,578.985589510695,666.057546243867,425.840950863114,475.676997377601,397.345355422747,372.334431235303,375.201891593645,663.469923730423,372.514560369059,516.817450883838,475.240556507834,213.472900782301,497.928110599394,364.451560459067,321.631652265406,156.459200647224,223.912420529854,247.354576536192,875.392681682651,384.108218896605,503.345003175867
725.400426792488,780.825812596277,585.121771095639,874.901140889487,763.224384713257,385.125789275237,792.074730460955,723.682722315844,716.443239262437,613.531125367427,48.997447672077,503.416993001109,715.279370868639,175.384711789483,1130.80824606867,1232.8607757503,442.561180187713,1857.88088429062,830.631338073401,2499.80302323301,1783.04325751553,2306.78293983832,2516.52424079221,988.61052231572,1839.58151069654,1658.39882070648,822.113117543861,1344.52359541345,1175.96135573727,878.005754254864,1047.18556281705,1053.60856014,1070.12659934924,477.900744506489,795.636664430317,917.643347390386,1006.69942281308,1012.11013307355,584.188313137859,750.402084079881,889.763445846001,938.42206230058,724.64619594712,834.52856132775,994.838232204799,759.523561554503,894.360863975145,867.847206067293,900.253129071233,741.065393636088,1055.64991285769,860.631090106164,909.459308645394,865.982683000794,733.776279171912,929.366341062472,730.55117628123,810.28735398146,513.345565464499,336.721212678923,449.197688547047,1361.51309070943,515.363283228317,1073.99846291697
1035.43648150777,1228.58340479078,819.151460569555,1242.47099145353,1251.94534369458,517.563477728137,1080.8004911714,1129.33449605786,898.133961448237,924.468424481353,549.517794655357,453.116470057504,955.628559964177,609.231521665346,1107.35208684925,1300.93641063611,402.023705452038,1802.7786287391,1058.14445804491,2328.08906420165,1954.71340953397,2248.37905638634,2503.92667467407,1361.29707436869,1883.36980399637,1773.09201796373,1017.20190624349,1481.17929636358,1418.70069896659,1046.64204179958,1257.67520194336,1354.63506315844,1411.36461104497,635.953637182561,976.866251082799,1162.09751901064,1287.00891828125,1318.57006993148,734.056794982704,937.759925861017,1139.43586762433,1223.2693989228,927.527088718179,1067.59698469404,1297.22679254467,901.781683122367,1074.05964506542,1165.75593182872,1239.05817795923,880.567269139103,1341.259347161,1203.84014390864,1251.27316892382,1255.19992193566,1185.58234426854,1234.21171190218,1123.39373065625,1294.36798043503,943.22543757373,614.603674733733,883.202573478586,1773.66041875374,758.207554812362,1679.94423743897
1337.39103824372,1574.86361840381,1087.18317279222,1552.74937889501,1647.69686711151,646.572413129966,1349.18283000338,1441.09914619591,1052.35652357968,1180.40470873291,899.543006373456,262.584944881168,1053.12510836253,851.843074886368,740.327420852464,1146.45325266274,548.022764231053,1421.08958326464,1219.51808190186,2078.41964624098,1986.52666956473,2185.30021409736,2311.42087497338,1687.33203295238,1793.346664469,1740.41416222003,1170.79675058119,1492.80115452976,1533.56702987271,1141.07800758934,1355.17454161216,1539.83749992045,1616.65943109328,761.360322310797,1083.13991950924,1302.56309613891,1451.61554442099,1493.47894850206,831.84561106071,1042.1480283605,1283.91110090053,1391.751546348,1039.97537338761,1202.5597866517,1475.35610193069,892.500724934776,1087.11517111824,1290.78219878261,1407.40763488164,969.983989878708,1536.3759204922,1473.39012584109,1548.85540773217,1628.13190306212,1595.89625271502,1532.09028187464,1547.60888032893,1785.04987280882,1363.07849146945,1120.63789830032,1504.47291484633,2128.08477951545,1150.7398480214,2205.80167565671
1574.1198832918,1746.84164338355,1303.29578150097,1720.51920612887,1819.28963928126,747.109733904676,1496.3138760907,1516.96443535394,1100.52160876281,1217.55144887702,830.398101053148,-48.7655815114739,906.483084422539,679.135087422353,155.995390418623,811.881529446419,781.645717522625,963.38181526683,1483.2445706547,1933.75735809177,2113.88466020455,2239.14646293315,2138.22877196458,2074.26415636262,1717.45768526702,1667.31890219378,1306.06023366068,1445.4194108023,1580.06295951942,1193.93669248957,1369.00381832445,1593.86518812405,1639.64874691102,856.46663134638,1126.81438978725,1329.52807892679,1474.59234798581,1494.33330258288,888.71737980244,1065.31387310851,1301.06103903411,1401.47587747017,1044.83404878339,1202.06304523839,1479.60221556498,772.967447466492,998.980536702154,1251.18792979988,1425.94683741749,1083.07712443829,1602.27229935893,1690.48649248619,1771.71186633022,1858.98367046052,1870.37677835233,1818.15276517555,1888.38780411748,2104.14982676388,1686.26497302354,1600.38741263469,1972.19737048839,2317.68968625566,1469.23348486768,2449.15280594298
1722.2483632693,1788.88347586002,1413.08533535513,1737.66265392222,1772.15480334827,798.663799174027,1494.02420251058,1372.87617724349,1009.47762606808,1024.75167089964,393.330164176707,-374.367154153191,592.788944468723,179.333398842587,-239.14913109953,578.923161918477,988.375411639165,824.687831084506,2041.83456853045,2038.45536090644,2497.4468516005,2357.63114551015,2121.2053349376,2544.66799575496,1708.64525589192,1614.75068293023,1425.96843806587,1393.65817746961,1607.19815073374,1225.05858494642,1336.62606127078,1545.85935699086,1503.55232597459,930.864980905418,1121.36569119803,1267.56863482025,1375.53228999018,1333.83112684532,914.557020700685,1024.46781429421,1200.93842127337,1257.67518159946,942.507825938837,1061.38593163697,1315.98986670763,540.051206077849,758.134032205863,1029.48735365933,1243.45638018496,1070.54311291735,1458.20628155888,1705.12096913585,1776.62279740038,1817.7699153002,1856.94395002813,1909.89981382091,1948.30849215866,2098.41356310466,1798.38557824629,1771.35145858992,2050.32381573865,2235.59712888715,1526.13401506035,2317.70403641816
1652.93309171803,1616.97758660222,1330.89364061225,1536.21740258218,1469.83841577068,732.272231172296,1310.27258422428,1024.68298883545,787.510699959118,694.571953415411,-174.589467782889,-605.512635666443,263.316631819014,-355.236821622099,-184.808392695201,763.1307092764,1141.26198973116,1232.21388445296,2721.29132532582,2309.07104550207,3002.58058965067,2414.69848638039,2214.66394323161,2840.5104362637,1720.34762505152,1511.97108525466,1470.67935673346,1303.11071687919,1515.91236116533,1177.29338522853,1202.1119093404,1350.44035129499,1186.0553174754,919.170229757306,1004.78524794467,1073.68375951069,1117.49702469533,978.506072952532,843.572756685811,862.373960672112,938.849520668453,925.723640456957,684.163912863142,743.727516299887,955.991830396158,218.381888166972,269.648790255177,678.435302529272,837.240070563656,735.163984347546,1114.03838158048,1356.97252411967,1485.74195610662,1504.83432441298,1534.96467717572,1617.82451247603,1671.88159305764,1786.16038976309,1625.27715736898,1589.54974761531,1802.89900112316,1886.46534670837,1341.16565419346,1938.65737902345
1220.86626930762,1101.60577786984,983.217165045426,1030.0785409896,865.866947452709,500.826417789972,912.328884418239,474.494697110258,480.370022139511,303.161743789775,-704.134494097835,-721.462611058038,-36.4330004028979,-737.536969034568,112.20241712606,1199.90718096681,1228.47322173063,1846.33781345543,2974.91818601804,2417.87023820022,3190.06956059909,2290.52088567795,2158.36590205709,2686.19161675308,1637.88132868233,1262.9372231652,1375.07869819683,1098.7138546782,1209.38944322355,989.206669190162,904.254733242244,955.362080349114,659.854693986279,761.283580492937,729.331319755429,703.874642177136,663.642975233332,414.347710604498,622.35330133787,531.973729363385,490.670201995067,395.886839216601,253.795007986111,245.434334389144,392.999317666316,-78.977037581284,-410.538814680522,336.375219374746,314.24096428528,114.693548769643,704.161782654474,718.101008196902,1040.21319118156,1042.14587202877,1033.0990350746,978.936107495383,1206.5077410848,1266.64883622319,1233.34997100534,1189.74766341856,1370.86439247389,1341.17961085648,991.830666230848,1448.94503066433
500.681063109041,347.700484203119,446.165056649286,315.255575106223,123.275743116231,175.664520656218,380.895587089434,-124.557412448298,162.626477772639,-70.7656498905495,-1080.26221711923,-738.827094611662,-324.923735986412,-909.662779112148,272.040490969354,1401.69369942106,1179.24644906487,2035.16682246872,2567.7910406529,2132.92529643971,2802.55706297607,1918.5733821055,1747.49516385608,2191.95073222887,1342.36103802541,913.608001097188,1131.78469735782,771.438219938049,782.304496351593,684.943947494241,508.094499022674,450.637875051158,32.2260837753594,503.533771953325,362.732182304131,238.727183207486,111.011961939224,-223.518089502892,309.928981842989,116.793478507645,-33.3337324633793,-206.777053088301,-238.40643615156,-315.715535228488,-237.631791752781,-277.595100084811,-1075.33461864446,34.865102737542,-205.563874782498,-533.929412840389,309.9323110115,24.9761988629401,610.306139140313,516.88411052688,457.303152036245,230.031372277152,691.126403867229,632.029221649349,753.557046594497,681.958912205435,804.3697192851,689.571115172582,520.921171669503,875.179667287867
-276.835180306263,-378.49729520589,-104.55681533281,-373.80673422947,-466.905907890638,-129.219070136291,-124.972756161887,-545.646090400328,-122.862532904762,-329.76735943947,-1159.73493094934,-642.581781198392,-578.60116887015,-805.043930998011,213.93553817359,1224.65491867884,993.095433226795,1648.73821582818,1907.02623521148,1563.25450704959,2132.05682802022,1363.5716967219,1137.19115642634,1733.53457766667,858.901266156191,629.372286632147,795.576699197421,410.163976663077,430.495616224802,361.305262933853,163.137405711879,34.6745600049271,-466.619107911926,250.841576314527,35.8997035297126,-150.236431663831,-335.727938515303,-701.383415157726,30.4236931556325,-220.814675192939,-441.229515753406,-670.429632230606,-614.180270542074,-749.241821514495,-709.860771092729,-458.747606548337,-1613.12410300635,-355.889454875323,-738.955088607212,-1046.14170359047,-116.65285412696,-593.990018352148,192.11239900813,-53.221005983573,-166.750097099394,-444.957436436009,153.103638741723,-11.6906643033621,242.635150836791,121.116399357087,173.230876720861,46.0704154629754,-9.18576686179989,260.382770783551
-999.848172857563,-978.443531548011,-608.858699054656,-946.016459461776,-844.261045753769,-416.270098519537,-588.522726369395,-766.791198857618,-448.257910695066,-506.635535600763,-921.349682525987,-448.080825502719,-791.762080075145,-471.415831035269,179.266475724146,929.310616240866,839.262105319171,1111.03596504192,1456.27319825918,988.762926883664,1604.7812151444,795.609422659087,610.719520072795,1503.48680643631,347.367629607575,459.816241161221,437.544432673817,101.815138832502,236.727913731639,97.7823052973781,-51.9568409830771,-173.199346881344,-682.232684071282,62.859811932658,-176.377185772384,-356.861353483248,-542.500163775431,-886.764826319073,-143.493770278498,-396.147380330839,-625.835895080596,-868.886089568096,-776.355107402625,-936.735838057931,-898.469524269617,-752.975155213434,-2109.79858924016,-903.835815029589,-1355.30821027511,-1504.90555142617,-612.274477590543,-1179.60120221776,-294.424048197407,-621.070984185301,-800.466171881775,-1055.75115899755,-397.823879173568,-595.462440803345,-316.695136443371,-433.746168671696,-424.011515836675,-542.060506906964,-546.501262961571,-355.576131858419
-1686.51867643764,-1564.74662015863,-1130.51898945282,-1507.04285683919,-1230.42644309761,-753.481090330515,-1138.66402177993,-972.5184380723,-884.658887087978,-761.354146251723,-581.653463084967,-176.628132291926,-968.198059595783,-129.181129014821,429.693274760035,756.737441295335,851.32135406369,799.758965812755,1222.809020834,554.65837648765,1229.13762945149,287.898090358664,157.380818106576,1333.77384434076,-119.953273219805,214.353453335693,70.5067485502399,-195.709412661415,77.8418638212728,-139.144207989958,-224.576995992114,-276.202183376357,-730.156086539662,-99.7414032175284,-332.780163905859,-462.784631538388,-603.752335400554,-905.08213009048,-264.534222945722,-494.160047257678,-686.391610166885,-908.975820314883,-819.133661290015,-968.690843102102,-924.093987182025,-1209.21423220957,-2704.83775694957,-1558.18866443844,-2085.48719794804,-2107.82295766457,-1176.3153931994,-1855.77821993636,-884.222881449089,-1190.19002811077,-1464.83128089095,-1762.75169700269,-988.048891350934,-1243.71535933995,-959.123915339687,-1008.79852846606,-1072.46957536352,-1216.61267070436,-1136.66344695949,-1094.22669325347
-2254.54302950454,-2171.58503650762,-1614.80672629348,-2066.88542888407,-1748.29966710417,-1041.99654033335,-1708.71189930722,-1270.1696918653,-1217.78389804331,-1075.36887616466,-381.447610748476,323.640955814687,-929.98700542506,128.155549976124,1037.41900883223,799.421239428474,908.38208166471,755.678762889636,1002.00178820506,199.630185713354,791.243185775268,-247.444365853558,-361.973139573784,945.486154487705,-577.151011345756,-257.718322540958,-326.798886912436,-563.27348542885,-222.547652495245,-433.605399700727,-486.802214935477,-475.46679362865,-860.683292737622,-315.956093681105,-548.04094377466,-637.271978705788,-732.835024099515,-994.25289622651,-438.388235845279,-653.63017492336,-809.230203815466,-1006.71979638943,-914.273634913041,-1045.74183481596,-1010.92568285546,-1736.85368127707,-3391.95488799196,-2247.57577370478,-2915.70747003435,-2903.76082508798,-1799.41987586171,-2721.10264269521,-1536.12743427741,-1856.98347396528,-2273.47660256015,-2674.49921526202,-1668.14809720484,-2142.2497698927,-1641.21824568516,-1683.82389061707,-1932.20316724022,-2122.82447566651,-1800.47517187887,-2063.84811553444
-2544.81577575896,-2641.3141668335,-1872.06423088088,-2435.71409111715,-2228.18796989135,-1064.58663907139,-1980.21424680056,-1582.73140784286,-1067.97416705662,-1205.99554897285,-363.538458614338,1185.98580471421,-419.947389623076,407.573398947649,1770.83586081124,1014.60544575977,769.627354688375,832.744052514596,730.295677163515,-192.807648220942,291.006447825396,-829.477329768061,-853.097200139886,298.317948150139,-959.369154132329,-766.195377650054,-683.435242674731,-909.143109099984,-622.386218653856,-735.984162930484,-791.588980940755,-773.036130985026,-1095.76988951044,-565.967642591026,-799.6681078801,-880.498345858264,-952.724050390446,-1167.27947181656,-653.046532913394,-854.897155835868,-992.268647942002,-1172.21495104901,-1053.39578013181,-1179.18889781484,-1167.78953129887,-2031.36184159101,-3896.36389391153,-2736.33931052315,-3638.64205225045,-3617.08929809118,-2275.53450750209,-3639.50407270515,-2016.27935980469,-2495.49147839778,-3113.81829888224,-3569.08947958975,-2251.82615942644,-3113.01862756737,-2123.19990612125,-2280.17425877638,-2785.6454932477,-3054.71679860209,-2323.69497672737,-3003.37892251135
-2562.30087473469,-2833.50808776536,-1869.66401438967,-2508.53959210943,-2463.2837678314,-859.567148256792,-1855.69574093515,-1789.69780835235,-495.110803082469,-1070.32568336038,-416.877090168842,2021.54594971623,392.880904137496,698.604042831768,2121.45527656975,1124.44917811614,367.641812476729,770.771997155501,381.743649318623,-669.037117143812,-192.19891247878,-1308.49995479957,-1178.10305683489,-407.107515799402,-1149.21074141742,-1038.20897437093,-866.698754329993,-1058.98447765768,-901.103063616274,-894.979350020658,-961.504971882407,-972.560693087367,-1222.0572818994,-724.786355490602,-931.491461516713,-1016.04008820053,-1073.69931339522,-1214.44347869912,-773.7311869942,-941.642541685996,-1051.45027688849,-1208.51620802086,-1061.263398472,-1178.10228623223,-1197.38258537949,-1720.13147540892,-3840.72252739204,-2597.27948009438,-3818.18906301064,-3857.96059186465,-2190.27370395668,-4187.33356473838,-1956.78339581575,-2645.89021894997,-3526.79366459837,-3988.16509024463,-2304.95984116385,-3619.8097653187,-2097.8758914687,-2356.55823142727,-3082.43086517066,-3570.26697154159,-2376.85594557194,-3414.57064025738
-2370.56297237313,-2686.3335106325,-1720.41666822719,-2308.26407183528,-2349.31908209408,-702.921190720614,-1557.62976840595,-1729.56398629962,-31.9830618837366,-786.029129965834,-318.547858390141,2202.55499205414,958.895607272281,907.763771908233,1768.03841730386,868.843037702399,-141.858063090243,362.906743936513,-101.081590229561,-1181.39272589123,-717.585119706336,-1588.86024636689,-1426.87661876844,-995.020663459999,-1203.02985800938,-1117.48583773569,-877.556793158568,-1027.46261737934,-977.822561808349,-881.163411811717,-945.837020580542,-970.858131115926,-1121.04589734862,-726.679339288598,-875.668827758166,-948.653484233557,-982.357505453198,-1021.17662188143,-726.94655231862,-839.418332125823,-897.702793724132,-1010.17230525012,-856.271201927054,-942.981492881415,-996.149408350615,-793.275583597519,-3083.16837104463,-1648.54631101098,-3136.07345458384,-3487.90006814898,-1361.48641450255,-3958.6781789265,-1234.90938882738,-1981.76026175025,-3138.57873293172,-3736.90147271489,-1613.70811767546,-3340.68348120072,-1500.9945022278,-1710.32183445536,-2585.01450299592,-3537.53113627293,-1857.19816510298,-3126.15928275549
-1838.91418205883,-2097.1064903911,-1364.90197898689,-1731.17091679792,-1774.78592043828,-619.909177579893,-1124.44217802609,-1178.73200496091,115.273034820637,-302.922345669559,210.982442881773,1793.60139216174,1137.30222114507,1207.00964318919,1069.2521767815,463.582547063185,-562.570632970183,-206.298972458494,-562.963289022458,-1606.90365039974,-1231.25580046454,-1748.06837436271,-1681.47611609909,-1383.02831098801,-1277.65028702426,-1181.31792264856,-850.42313673676,-960.999414895162,-940.316731089557,-796.97723637433,-829.884659394838,-817.243118935007,-834.395422046691,-628.232591934413,-706.668537328516,-734.602833503812,-722.534290648964,-638.861427184331,-563.587949186535,-603.806648064684,-591.734626504596,-629.323271134156,-503.562655463493,-539.297788316742,-611.180015927897,281.942710871197,-1745.32894873027,-221.228216781731,-1688.21413171973,-2556.40042781055,-91.0549085695737,-2867.53054206633,-116.905813569098,-660.95082447084,-1990.89880619421,-2951.21107823395,-418.206523255213,-2430.24806988577,-529.607190320308,-603.501733749042,-1591.11663413613,-3180.70820151984,-932.513316819122,-2430.02055666681
-853.60406421936,-1043.1990702688,-658.170302540118,-694.637490269394,-743.014648348891,-346.410409597029,-385.748172354458,-150.789459105733,286.484039892026,484.705867248488,1178.83144542004,1485.23132729794,1303.51732405521,1831.87343037511,676.081269254014,327.801425853717,-797.501362382818,-532.942874817902,-715.876009034552,-1858.05978460058,-1494.49202983747,-1888.15606401528,-1839.48020448361,-1509.16446054803,-1400.47461857951,-1218.39063186058,-861.835788911629,-903.305914259965,-826.187271422848,-703.616792182567,-657.103197200361,-544.09255012432,-377.458940598259,-499.786361508845,-491.665398398652,-429.580449434545,-332.421731917109,-104.530141756457,-354.030169366239,-297.026435704012,-177.476130512659,-111.372914611036,-66.4218117684921,-31.0548917681385,-73.7944825029264,956.878621489852,-48.4678452470056,1072.87964323832,67.2077017737038,-1083.15792712947,1087.56850310494,-1136.83564071917,978.792325469477,828.028029242426,-398.33273824364,-1624.47537588298,863.211490026725,-1106.37532463167,577.578064200541,614.906257856124,-390.891507164026,-2422.43685523507,204.671032543674,-1493.14974897245
331.512163258153,201.61389039708,250.064753755956,508.924718063144,414.676686969967,180.296975270298,528.772862268313,927.778516202338,680.528422902629,1313.95606937154,2146.01275807245,1594.41260624793,1593.54585450716,2572.59096063642,683.973366605492,430.085299031287,-866.430838272743,-581.902917150184,-562.460731240075,-1978.44997012327,-1475.79289055232,-2034.33561756873,-1859.67471365607,-1398.87357612075,-1503.073737385,-1167.89457491437,-912.022427451968,-830.662350992301,-626.528707030483,-614.021776770262,-437.173408616788,-167.031534055337,244.829279926337,-390.725573829158,-264.413103643595,-64.3552918970236,166.492051608658,562.305077765513,-163.63299231514,23.3489263441441,309.741325682365,506.792335577039,398.081441751581,535.620943445343,592.534163647662,997.395893723609,1594.69323806089,1678.27592154498,1498.00771917698,675.512091974639,1719.81689163644,777.848849918571,1647.3511755019,1908.45585148497,1187.42151260645,249.743898597573,1824.67664694782,524.323108425447,1519.35584596679,1706.05988775948,959.099296095715,-884.867909168227,1326.74766106803,-146.587793807638
1196.7169349251,1151.36366749174,929.572549552576,1350.18988374418,1203.47531234803,655.092248294579,1178.38291161251,1563.9496255364,1058.61329443041,1724.27345351247,2623.74966351332,1772.52060328018,1749.76086716575,2934.14108687859,656.401572529905,426.136733956966,-882.787151866559,-663.53283230786,-383.242415816979,-2053.32022556257,-1412.83939913661,-2187.9952589734,-1853.17216356288,-1183.50955798628,-1576.00158791374,-1093.43596008268,-1024.30807601163,-781.929505604556,-395.312165384953,-583.402499312889,-240.186812086607,220.007379341288,897.989246447509,-374.004809494673,-101.1416956796,270.783888308101,663.214879852231,1230.13633243609,-81.4309364266869,256.207907651324,739.872728958565,1094.93453741415,767.004801115317,1041.87935956223,1253.34160669482,728.634121784777,2647.39989314991,1564.90760536261,2179.10541950992,2048.35863020612,1753.45498813018,2239.75728108828,1716.79484131125,2224.69485792208,2216.89180526735,2005.24943277952,2143.47247512882,2015.70903708821,1882.7020741986,2312.93731231963,2154.23233874349,1068.01969581753,1959.33644808483,1395.16620949404
1413.52507883407,1482.13351303013,1088.02390803501,1556.77618172049,1384.21988103353,765.861547545139,1312.25949682096,1624.29522221557,1151.24935415326,1597.64021037085,2533.45781397803,1611.67453335491,1640.91945918498,2740.67573797131,354.885875627146,220.818250737637,-971.068638632371,-883.200081305685,-356.201976268806,-2093.34073085984,-1435.2297464831,-2338.58533202466,-1869.40373810135,-982.171419790216,-1648.94946299404,-1065.75399419877,-1190.29482726933,-791.596725888151,-211.53985759164,-645.306681060273,-136.750562481603,497.626568120038,1383.13315918925,-470.888844264336,-60.341230338446,475.984673596909,1011.5525301957,1711.60103677367,-129.669866464952,343.447282110591,987.227040188977,1497.5499448618,950.662597797776,1362.91884584359,1725.14234191246,894.326690671792,3056.4449216929,1489.86667912541,2380.65117740935,2639.25079889442,1736.71640809225,2916.0745947761,1589.65098111276,2059.61028505811,2501.6670397273,2813.13583597752,1935.64860447691,2753.69176557449,1585.71834731479,2179.18351950268,2704.42924911135,2408.14178767849,1742.5602254319,2450.01866761831
1170.65240714115,1328.06996037466,873.333626190419,1353.00697461627,1141.8298817798,555.085252082955,1108.36800593045,1353.14530873091,988.055238907449,1233.5418891457,2122.66606919468,1109.84352316098,1409.61892986911,2226.85007601682,-58.4334858621728,-30.3710023165935,-1126.26615690687,-1062.92371035114,-462.04509723905,-2034.17981646666,-1476.79895683538,-2375.14308501815,-1820.45237406473,-884.473207813902,-1675.3710009996,-1071.43625329563,-1295.10843658465,-808.144443069194,-138.871269785998,-723.947411194825,-123.487672445001,590.4590704157,1571.31148888327,-578.759033357419,-98.0579868618577,527.516588693218,1128.77463902807,1886.59660095953,-206.817878500355,328.465281433134,1040.82966398708,1636.03120223819,977.389278902391,1462.3678466772,1895.33995754467,1783.6935661421,3369.85739338922,2139.93896392906,2788.05770771014,2895.91425542217,2237.99855487529,3257.85584767555,1924.51154719581,2127.92625441217,2610.31805634375,2967.6436529803,1848.20544217987,2889.0608610594,1228.12418244302,1703.25318032156,2687.9204288694,3005.35497938538,1113.46169130593,2886.83943123569
935.451188361717,1081.0511344528,680.156100443091,1150.89747479848,797.168057665929,328.452649703023,894.307178433627,1036.91048962427,774.34546558481,919.328160874299,1573.91200254256,530.058372215725,1183.39700628766,1626.10299576741,-447.004105257682,-245.533128634672,-1230.19341626549,-1120.30958047789,-641.090943248608,-1802.13663138509,-1490.83952749644,-2127.61526248503,-1600.05743816615,-955.950827490025,-1532.58359421812,-1042.75619109874,-1225.04828083489,-754.835341701233,-204.313218968794,-713.188014185213,-158.724253156943,473.592613448333,1420.28499759771,-579.197364433299,-127.234658465779,449.982039711539,993.684248582316,1713.12710436985,-206.069273005454,270.990540004371,935.504999325648,1493.903334209,899.731608390845,1356.49587926206,1729.39956254382,2719.04525195481,3827.56805920557,3088.57004102268,3476.21808254221,3388.58417715475,3017.06864782951,3815.98083349795,2701.95927565594,2641.93237271569,3119.64974005867,3431.77652118863,2266.17923618533,3130.54795547475,1396.87410041073,1564.738698465,2642.05016810592,3583.25393315627,899.368223665839,3097.64569797892
917.398704555414,939.621478236056,711.851927565963,1088.85263364948,500.978102465709,295.168217156173,784.583111751259,764.195138258138,612.465590039275,655.002083796402,957.592907934678,61.1989490870509,913.824361340027,1006.46858375833,-855.47310790865,-459.360688780867,-1219.93075537068,-1143.29548615774,-828.890088611362,-1403.4493855415,-1452.62388455981,-1584.361651031,-1179.01792053651,-1088.55225454362,-1157.25481076167,-861.405391458941,-977.786688758201,-574.387546861749,-285.711580565919,-562.91991592394,-153.782587612124,272.22087243502,1066.57748882255,-435.116589949753,-68.2533191994116,340.638015199636,727.858159503527,1328.78713646306,-94.0564667343149,244.097754218235,767.382945394147,1192.99798616464,794.845569833864,1152.23434537177,1362.87483202908,2936.4063782048,4004.52349477237,3378.79979246397,3789.06222333341,3921.9828885688,3301.3820610081,4298.94394853024,3152.41884949077,3011.85865920996,3653.24358192345,4147.74217706139,2718.33725462591,3475.36342649942,1814.34943427477,1779.16622850876,2630.67126748363,3942.64544645198,1166.83132064342,2831.34033311785
1038.27315204452,899.632383709436,921.345320859991,1078.52535937768,325.691818776365,485.578119804119,743.489698022487,566.817802533211,512.507189511612,394.64506710505,484.523790872807,-204.223719230962,563.552376384101,487.043499076972,-1203.51866078977,-643.234807556784,-1112.1522565911,-1142.27275315141,-918.825559532795,-951.820142814266,-1275.54924940787,-953.82124063185,-654.905045985084,-1018.88040665586,-651.552416464506,-462.417426195482,-631.133931691283,-251.053562426149,-166.564397216844,-283.649180793678,12.0808660553254,252.234692596589,857.77104200307,-177.870515610258,130.489680532893,379.031483735512,617.403051728858,1090.2460078795,117.402396856334,353.58585723115,738.227504702421,1032.33770341757,818.390499081195,1079.12466035597,1138.52946129426,2500.91357626318,3760.97262980215,2873.47487775329,3487.82850678326,4068.20854872891,2856.18972761816,4205.31604279717,2864.38637459483,2773.5033764623,3513.62547751765,4216.23207095435,2629.83332784453,3270.29238213361,1854.9799195456,1804.78770635976,2217.48033127665,3169.9778689674,1314.12668118629,1579.34766477921
1265.78608641499,997.218271751697,1226.74863223424,1130.41404862588,379.305303868507,847.680687932013,833.37218916036,564.623765902645,543.113289267205,298.648413498331,409.122355047451,-202.526598153114,299.990423967137,264.505648641787,-1275.55023036369,-689.43673210463,-939.691723728717,-1041.59609280391,-856.600462680899,-594.983474758605,-963.576011447162,-475.650079727168,-227.435850186167,-677.79833923781,-215.775000495768,-6.55132390137568,-292.134421240798,110.573502029963,155.321599383321,33.4503561627915,316.139773126299,494.923958741105,988.767452080944,98.2116119959388,403.558880947722,610.579181988103,794.831973857303,1198.66864470282,356.917982737513,587.790830669019,928.459586018,1169.61057061807,1018.35408361131,1240.71292150196,1245.27362466933,1880.98620985675,3597.45047640901,2205.15869409646,3126.68036435734,4031.00623660183,2185.26846981158,3809.73413402996,2252.62635868135,2189.53839435752,2824.16522797102,3519.28003830509,2113.21516227894,2420.14926595161,1479.94902317388,1342.44809357189,1266.83373828685,1545.47464328722,1073.19775875276,-27.2946025643823
1534.70890646768,1175.53795500808,1479.74268618242,1252.29917239604,589.533599241143,1177.79435589298,1065.81632926258,747.69238813808,693.317330456983,460.543646662602,648.445285393278,-70.233360526421,256.736673971981,333.694044923406,-1095.08913983336,-607.015391085714,-761.246433728005,-869.138662067296,-716.597731561685,-395.948786727071,-670.384062800773,-225.898210827998,-10.141015922445,-291.721733366771,53.5507467387991,273.95954008979,-32.3993865604572,358.013399657454,443.113919770664,276.699987527104,576.960329513241,766.533998688257,1231.15551459764,299.245255476213,610.943975285995,848.638071766714,1040.75109230442,1416.76886272183,527.747796281243,786.568100611489,1145.19882123041,1387.3475280586,1213.92286318648,1444.53912737759,1448.22310381137,1227.67677144499,3638.72456162113,1651.00500340537,2941.26478264576,4071.7567332611,1615.51493917914,3498.15281109851,1661.72344933608,1557.36981510182,2093.04041826685,2694.4429087722,1428.79467766536,1376.11426837732,951.00342886128,426.144692331552,33.6226629236886,295.443566251961,551.988181470742,-908.803473026821
1585.0652588843,1164.15407882042,1447.71710878074,1229.76035616084,663.160933376844,1203.94711850021,1179.5903938858,843.368963536013,732.910203220918,618.111947455377,848.95542326498,-107.863178655122,238.698586450625,450.32503259323,-899.431716258936,-561.876803393971,-623.799155284373,-726.600727558437,-605.016250917703,-298.208772813143,-493.462316490456,-112.716113749406,79.2511747154373,-56.57940725472,220.199203155316,363.981541415451,158.80897438991,466.525940101395,549.670784052551,416.129372136949,678.149210848043,840.354829078111,1256.11797250955,412.29368614281,694.287092209797,913.182137439577,1082.03116033283,1397.23523231314,599.157611014705,837.274198877525,1166.66697391032,1385.30492814956,1219.07036369936,1446.39222249644,1415.41092223954,588.215383165087,3364.89819005547,988.111455438545,2444.38250472455,3817.18695703295,958.151290816037,3010.97201321099,947.755146434835,769.14536070168,1361.52750579366,1996.07340468161,523.23428718099,386.280092387953,281.078414445738,-722.618426472542,-1140.30959687988,-116.746447905513,-190.011723520127,-1013.55356921693
1253.6520213254,809.498924607985,1070.14790423888,858.076964458322,432.221696378321,885.766100201518,902.523737865969,604.616396239283,454.027427013569,440.091429822447,789.239087876433,-411.507867817867,-40.2215135831773,377.649519198349,-800.560746952028,-699.913235717829,-540.095915348581,-687.318755169003,-622.129634967503,-282.177463038866,-450.394264183652,-80.3372858805927,102.097029739496,-18.4155619121096,294.976472504519,335.862458457461,270.15839606829,461.000172969879,482.147256504674,437.461703753251,609.628320570173,685.913431739404,985.617806667599,433.567759529534,645.168146312441,771.77240367023,860.901637852142,1062.84590506157,565.858273308442,729.236362789647,951.632078943632,1094.75755619205,1012.92608348679,1187.7985936667,1079.03277918273,251.464864714401,2590.09243064068,331.683032449253,1489.61944860124,2932.56955648221,279.170838894786,2150.68391265388,243.498934946827,-30.746300955206,604.848677067076,1351.43759199272,-364.044979301925,-318.625453059672,-410.76527052049,-1567.43270250648,-1752.09433344749,60.4910440475172,-949.108644922679,-726.38258989538
699.519080772288,298.451081033309,533.458878335189,243.737836179302,26.9373256451282,412.875446222106,297.414863552504,86.3196213006755,-85.3631474063195,-79.6037577780756,469.791684918658,-795.768708037453,-575.330479372535,7.22575338930338,-776.034506530237,-1046.83206698106,-547.402327656258,-817.78320107591,-884.572693567204,-456.780499714751,-616.833863286477,-221.494135910008,-70.141614767213,-221.381349323172,155.055761279715,119.32594634048,215.557422298383,276.030215637106,228.312033644242,286.675632921485,359.82680876683,343.422402680988,515.527307658293,320.670738822027,429.516135089792,451.686026184344,451.892267136816,540.050731078676,398.750466636992,465.148785619164,563.315599275321,614.187403457447,653.843252685464,741.996592021834,557.019959792024,343.723688685506,1660.85777285389,115.186446594509,619.849729760171,1655.45920206559,56.0582624907394,1212.6842800422,66.9012713009107,-326.068241844347,115.863651244413,814.111997485451,-654.624157630588,-428.06721769687,-728.318829196945,-1702.79583918519,-1533.4291550574,655.600163290874,-1382.88713731473,-29.5945870672112
210.760309531898,-70.5360476707623,61.5014929601819,-284.090673076112,-301.001828425113,-33.9019690036637,-316.864022249977,-426.845727920184,-652.261557890798,-665.506114339516,-8.96197737955755,-1055.84712859647,-1124.13307989059,-594.629822889404,-786.634505323959,-1506.43292887216,-662.44076999662,-1115.27229688321,-1362.99347475617,-874.145286836052,-1020.02329758869,-596.299254217962,-541.621241386243,-650.728150851094,-227.393416977,-334.856573493718,-16.674373058656,-110.615828566218,-198.200255889437,-18.5440087282579,-39.5818441554962,-118.531600629228,-28.5280929515132,90.8996235196784,77.1312781567114,17.3055478069043,-40.8142399646978,-25.3203968215768,121.311864158745,86.1451584192562,91.6258331706859,71.0354243294488,214.176850913527,220.472403227972,-13.9096771164556,547.112328901775,821.948176753061,293.551088663019,167.69159736805,434.605908837967,312.355451369512,433.951045110713,386.823525635582,-91.9091205414055,-9.80017479248849,416.839998886037,-359.225084921779,-124.254063631084,-599.606182908335,-1412.46626540861,-955.973032672874,1263.56086910107,-1482.29116846727,861.069144740668
-69.6300685848216,-204.828542022229,-245.442900157868,-527.21944371848,-444.592320044369,-370.031516652149,-706.957545395021,-728.702877299201,-1062.87527429294,-1073.20627255821,-508.625546829871,-1110.50127488566,-1505.99388827,-1191.57829480486,-770.648136965826,-1900.67188486753,-793.575998829383,-1445.01712733384,-1815.13739717722,-1401.99465627482,-1505.89243063162,-1088.69151416579,-1181.51299877258,-1132.92360447226,-706.67525559468,-876.189927705553,-316.624470246925,-570.421391392361,-670.703080971629,-369.665943250919,-475.609697698978,-582.886684097644,-529.003074224749,-171.484871651609,-302.296020450188,-423.52325326728,-510.211874721849,-532.591956709242,-189.570145599439,-311.712788232648,-368.413802892431,-429.176439500999,-223.82821889865,-273.487898428299,-529.238343840758,545.294436329862,157.409111309554,386.109321324537,-50.8753672462338,-329.743028927272,474.610534241884,-132.178036411722,540.140165555642,92.8572502182347,-68.3238081258193,134.619788435725,-136.796181984023,9.01812424335225,-452.268757147926,-1209.23754215344,-612.982849159662,1218.59193885039,-1525.06581272238,1292.51745722286
-221.16405181234,-259.535112657855,-436.20026669682,-609.148465959204,-534.913462303338,-593.158373341587,-912.737310425266,-888.376707715644,-1285.01292529169,-1287.60337034845,-939.673931274484,-999.433681755474,-1705.68620558727,-1606.61018813061,-711.966342287509,-2073.14967585642,-799.457395094238,-1659.08293550151,-2020.7351994545,-1834.19087929516,-1862.50382643197,-1504.68200518751,-1727.53927125319,-1463.04206161136,-1133.45912803327,-1284.30977271771,-576.518888292862,-947.960301287823,-1042.77723464271,-669.557098775925,-833.036047739859,-946.496359131578,-913.153448847918,-402.770851519919,-620.70140271516,-779.160415072622,-883.958159407878,-931.444483627673,-473.028184772707,-646.859986745571,-749.71996840821,-826.327621682959,-598.532569240479,-682.024165644702,-933.406465140264,336.8116327249,-216.032486976674,180.527843983826,-208.481651979804,-477.331441472528,230.806427544325,-400.228474548186,230.293027006561,-82.9650791537155,-266.72488519421,-54.7072471863296,-300.177189092856,-279.659820044227,-568.5472893817,-1142.30374619502,-507.700942507474,512.070137854737,-1569.42887200836,1058.97472182091
-393.46463761834,-396.108462275957,-607.486136686402,-739.73018438255,-708.64778672741,-742.094875823406,-1073.22236328931,-1068.36082186313,-1362.88551414824,-1413.9673525162,-1294.51016604975,-845.091193670298,-1744.60444947973,-1868.6003973919,-665.843015181376,-1961.7426119733,-620.311545098239,-1691.08151933822,-1923.42515201155,-2004.56937229963,-1961.00630255436,-1701.77416540929,-1977.06313295184,-1527.01575472264,-1410.87792632505,-1429.58313522076,-732.386779689862,-1150.08200785556,-1215.79023831632,-844.003973019885,-1022.45520287968,-1134.105695608,-1135.52873389195,-549.101783825014,-810.580276951997,-980.981690170532,-1101.76937958762,-1178.3339184913,-656.021347057513,-849.880275435251,-986.403976314549,-1073.44992840774,-851.237568881603,-955.373945051437,-1182.50314595139,32.4777157132552,-346.48460478963,-156.549872798651,-322.448453575652,-321.01211579536,-168.250539121359,-439.944771645885,-195.499752994979,-391.917046259873,-508.315844978667,-223.973533230834,-555.226871272211,-672.697894533137,-759.455490466817,-965.447650714293,-390.19350169373,-102.083080957715,-1418.06334602412,643.930717340375
-617.819388870864,-605.703200592028,-761.428548442314,-934.088746210824,-892.322208869173,-808.544977274324,-1182.15394909667,-1264.85237270199,-1322.37869877636,-1468.0180097529,-1557.94419860149,-728.854007250444,-1634.27857475535,-2026.4711296495,-644.443858870482,-1626.51793034743,-335.512179565075,-1543.33513678181,-1575.43248063371,-1859.38521968267,-1792.72796687359,-1642.73044916111,-1896.56280037788,-1330.88669814018,-1465.13777909558,-1332.43453999509,-750.523900353835,-1148.96097502383,-1159.86722056782,-845.066017844197,-1006.19837143748,-1113.47840116168,-1174.58424891752,-558.821191094445,-821.367282150238,-995.805853092958,-1124.78587123435,-1243.04846832171,-671.134943139835,-872.630390086611,-1033.2231078107,-1141.70155123064,-932.453295901525,-1050.40132749121,-1247.32753080364,-294.18029942395,-478.024849939691,-458.346812704262,-454.065828418929,-313.371372592013,-471.455215886392,-507.932117325078,-479.3421155545,-630.135499423436,-671.715810478357,-395.095157941568,-705.331350724653,-787.616300041937,-843.324562803189,-671.349159819015,-256.445973697709,-230.142446998785,-1062.53643419981,407.442272251658
-824.608212506454,-809.523977571675,-833.396951805045,-1111.23388164263,-964.640486566957,-750.262769301179,-1167.71367613915,-1377.76551961131,-1185.66065634903,-1407.30008498616,-1684.06918123919,-607.54557064147,-1442.49809472928,-2030.38300777755,-587.62463155348,-1214.38080704535,-111.00070333325,-1264.29330783977,-1121.46760189327,-1511.23085519943,-1476.17584136889,-1404.35553812206,-1620.66183511339,-1023.67053636686,-1304.52457762084,-1147.7012584721,-664.897463640486,-1008.23912513409,-969.6615641059,-723.893819440755,-867.114456475319,-968.771725760611,-1092.91928225185,-465.52033667287,-707.767564153065,-891.765428384148,-1017.94013071693,-1175.34480881946,-567.865580644591,-772.148454166912,-954.979633087597,-1084.28260319298,-885.341996400196,-1011.23628353533,-1180.14802417935,-581.179123715761,-736.031606616722,-700.250605462198,-650.813123275867,-517.61936544276,-718.814987670319,-677.87505733238,-734.241998748453,-840.061949372224,-777.350407256852,-505.267784945647,-873.123530164092,-684.654759652422,-938.752329381532,-499.800160805302,-241.54121359459,-268.645670676402,-789.836476500951,195.574952363298
-981.260044048363,-978.133502204284,-836.889496040317,-1265.86034743199,-959.298792408035,-613.901678965938,-1085.29351862181,-1383.65262529997,-994.939162575785,-1258.93919887366,-1658.377243253,-418.170208707334,-1218.64755825628,-1871.87131420797,-428.91603848792,-820.868138939131,-69.0784294684537,-905.602417139614,-777.161257129458,-1147.99100803662,-1182.83453892089,-1130.01152364846,-1297.65201653335,-816.145812390772,-1033.18588842548,-992.273337256935,-559.705582137281,-833.500500506187,-803.049195052724,-594.774137496941,-737.825036429712,-844.552729563965,-1002.45142153216,-376.541045350641,-595.662175720327,-788.548869824856,-907.33173929019,-1074.61290220578,-472.682090255808,-670.677682679061,-870.628445715979,-999.897603010333,-820.036640380361,-940.569725281457,-1080.52875315347,-812.563421405583,-1081.32580521088,-928.298480637153,-890.292688459387,-756.99018829419,-979.222265144678,-818.294249298909,-1015.10271432496,-1042.70636063862,-873.662651257053,-580.56088441504,-1078.98520595556,-667.060253879846,-1112.50094299229,-548.313537379658,-351.13927752249,-533.80118889043,-775.326802592925,-120.078266867696
-1112.59377207329,-1077.1351153153,-874.07967396265,-1380.57557765999,-941.256638858298,-544.993921471978,-1047.84659316741,-1297.20519921659,-805.746932532493,-1080.27612477816,-1501.2676472704,-209.795701665789,-940.661983175363,-1633.64131805097,-171.846107172654,-474.940181910065,-183.711768702998,-546.185871337064,-725.288628508245,-887.429024378732,-1039.66754485569,-933.974292747948,-975.634861986982,-824.984912995012,-753.189293881557,-814.639715396336,-480.477626537885,-660.593588651254,-718.054740413889,-501.388339199094,-649.203295003395,-790.165151662982,-953.650199152218,-338.034408230492,-529.48819945951,-724.998666311706,-844.561898309577,-992.947731329527,-427.538721272933,-612.955843712316,-813.442807458715,-931.192534882431,-776.425029979543,-879.730706234026,-997.41487931137,-1002.27377373218,-1460.95240176766,-1176.16629711263,-1161.51611787416,-1023.41635014548,-1201.06405423289,-927.420272885319,-1197.07527163708,-1190.70381998182,-978.917493990309,-741.265124035517,-1194.49053587437,-808.516235550194,-1217.11778980093,-676.82645360474,-488.996971991305,-831.962376777861,-869.001768454138,-380.160404530677
-1224.46843163783,-1037.42954497623,-1001.8555712993,-1376.60899925202,-842.17310323787,-645.472939925845,-1070.25741941541,-1108.90283395997,-688.644710037152,-906.59879867797,-1247.15130985283,-99.4888977911027,-662.250544492505,-1384.18717467426,37.5779993750689,-279.750897461192,-321.808114113846,-367.987512237268,-1001.33710329589,-764.534580623991,-1101.93490902507,-831.703735689405,-700.807538714938,-1008.51007892069,-520.280431104773,-564.893291512632,-421.340793409147,-478.892541373155,-660.882598745121,-417.529197223353,-555.446853407018,-751.087559428466,-914.100150875604,-310.12565213731,-466.204530155477,-660.688874894503,-793.842084756392,-915.161877056586,-385.767854535829,-556.152665551859,-745.621508888435,-857.138324418942,-709.457191761996,-801.018012099138,-916.91290875291,-1097.0039804269,-1722.44772423854,-1370.70861122504,-1385.815657043,-1323.00658285683,-1323.50994862103,-1087.6785756501,-1237.6672092835,-1289.08570112826,-1094.90295712138,-972.837051936933,-1208.17754792877,-962.635623470264,-1177.67796402978,-744.505283588998,-597.492934122059,-1006.36292369593,-877.398444598662,-522.624678238832
-1254.2839244523,-846.655342711603,-1114.391381448,-1235.67950558132,-569.690117879747,-829.635295874045,-1076.9648327951,-828.351216916472,-646.853909292448,-753.899571778326,-932.6450158432,-101.38528546501,-497.896597285472,-1128.54417959221,46.8514413491822,-335.73807479758,-369.951502818242,-493.456487074498,-1398.30704508063,-740.071788981626,-1283.36715856661,-742.912470874812,-536.351307259774,-1185.67070254666,-356.275118618573,-322.833556899542,-369.952707032129,-307.897391320018,-573.615963309813,-331.7902674163,-438.736599405922,-667.722803527057,-817.952412117207,-262.395431369823,-377.863346925583,-559.115161188268,-699.455658790754,-791.566322723178,-319.523624089174,-460.13651661705,-636.595002605464,-736.64476215496,-584.295083179957,-671.43473709608,-792.297032237319,-1024.23088799646,-1628.79058176694,-1376.14338753368,-1374.16351790536,-1416.07973941044,-1331.38696824997,-1178.24535270327,-1194.35835125448,-1319.42888725362,-1138.87150258489,-1060.83727907879,-1166.84911606678,-992.566827556889,-1068.04514363592,-698.181004622053,-623.259949095091,-1113.73477701888,-781.727769924666,-651.990197667376
-1098.71409424657,-570.820220676169,-1016.77262240781,-980.316450106353,-181.604595338064,-873.467441611558,-965.54506252305,-485.880602598113,-558.401829516941,-573.514214315425,-569.749417650949,-96.857475927386,-404.144927194509,-827.670361632958,-67.6842802150457,-513.032665123317,-316.413456588705,-733.498930064018,-1542.41867842341,-680.862952006943,-1326.54857499323,-562.058783989982,-406.157103634379,-1145.88088819844,-216.087753533403,-123.011555086953,-289.913514720124,-147.048486392675,-418.62910820699,-226.316327670657,-288.030030162878,-504.67917514998,-611.580899752335,-185.244937769691,-253.829215470483,-397.853894991203,-514.56981219624,-570.320708562161,-220.855609540079,-309.282452907182,-458.092716247509,-528.337913071238,-398.132686466762,-467.843049368718,-570.039284154431,-839.924758064114,-1192.56580871393,-1199.23636751736,-1081.17478527442,-1136.19003356197,-1251.94393014511,-1023.45485685189,-1108.02425828689,-1225.25094455579,-1003.66583257204,-852.224928306413,-1056.6450590988,-833.44666750802,-936.614417812397,-524.697842431535,-496.361907190684,-1084.25301144996,-627.2750082304,-738.340323434192
-742.503854210209,-265.663494433443,-685.302790723516,-598.240372538714,159.790725872836,-691.210797198157,-676.096549679547,-126.443542522856,-348.900423729466,-303.524933689036,-193.076378603769,-44.743987472707,-237.546154666307,-478.737926247239,-134.860327757782,-561.725205014501,-233.202385817831,-772.36074166636,-1258.76191272073,-484.915157801523,-1063.18644798766,-265.252866059927,-177.693599779823,-867.978136858635,-22.5507682676256,79.8309763581275,-131.315327755593,38.3879180995405,-193.996986248675,-64.6518521721981,-90.5213938504701,-267.423026037231,-317.064275684301,-59.6279133765742,-80.7727015974188,-180.191550261414,-250.849933782871,-270.480457525626,-77.0355901704861,-111.726602814432,-212.023189199438,-247.320166677246,-171.41200153073,-208.667579154261,-269.638084250805,-692.862652057712,-723.997247596749,-1012.15597941785,-733.288907125646,-699.271597207924,-1168.39168645796,-720.94895345703,-1043.12747898961,-1073.50725602703,-777.307039407947,-461.696275253354,-927.495033803726,-540.123841537786,-798.361617539601,-297.077960093831,-272.480260437762,-812.712199962437,-435.451072239265,-677.577689838159
-314.172884968783,39.4137885408905,-311.466773347459,-153.486158015554,342.093142766379,-428.396488486313,-278.778555439267,143.194925348727,-109.45984337981,-19.1734487820557,53.144423047189,-64.7378656663204,-20.1108162773894,-216.032137363405,-180.13398688435,-450.195592186057,-156.656193152961,-582.635048138241,-810.906658215334,-210.747302615995,-663.217873793818,68.2543597561318,102.108574301235,-573.347836012613,225.364876873909,232.382197290996,85.6821678490783,224.60088376078,11.1234841250017,125.550431302835,97.5413896078994,-44.4923122664729,-61.5378586867502,94.3044760683636,100.655203021197,20.6148894031967,-20.8907854916803,-22.467889299924,76.2086857398565,69.3098315877956,8.53071167007977,-8.14715102621239,23.6072827913544,10.0213672639412,-22.5109610977266,-622.969429038951,-408.846860708199,-890.821648684485,-515.336283597242,-367.977463358691,-1117.00349030542,-494.130785644265,-1034.86465906185,-970.978955425374,-656.749793794635,-107.460664664509,-855.05097670951,-270.439359822625,-667.584205499491,-125.232747765936,-104.16033957331,-450.724418406417,-220.108217168096,-526.682532253135
61.0010649457237,288.635879049769,-18.1262792944503,186.306140101781,353.515125952452,-203.479115246679,73.9205050779332,200.579469236695,68.4664008181978,109.877406951593,-10.7133479772716,-240.436576940753,73.313704698443,-242.714327143794,-359.143268129964,-412.76465044232,-78.6719022438458,-425.510630042691,-608.266221438127,7.93422162203499,-429.232450640184,346.418033675477,286.09668851655,-468.055762081077,453.717288963986,249.634999947697,283.147457874719,346.290425161147,86.5737882215461,258.997258078908,188.986985182269,53.7230554642861,29.7436066640869,206.208792331263,204.912635218546,112.208171470976,60.8275369758036,53.3762223217313,165.782366278272,153.103084900228,95.8212139570349,78.6481673742091,105.291919485994,94.5623266348109,57.528945817556,-508.418060555471,-124.089543027643,-692.567889094035,-310.357370936124,-99.174718089775,-967.874678037291,-336.267212410045,-949.938333137902,-815.551056010829,-596.459342869854,145.745122494366,-734.295016185566,-100.755099996042,-483.428913765137,16.3856289003056,-20.7822532148987,-201.570574034402,38.0863133039281,-393.370867296883
362.67487492889,460.181069965937,238.992783180036,352.590200784568,290.208658437012,0.885656847120082,301.699828677298,64.8897255522975,179.825536933541,27.7438028591561,-385.582051201794,-546.064346301953,-62.8329782693211,-612.64984073696,-748.474282075586,-678.400752245421,-81.3662211994938,-525.030627623125,-776.475482761987,86.0131182006976,-455.809792395447,510.718597992262,334.058935720954,-542.923426253345,584.315730263373,182.258483953799,414.954012068367,386.262995601662,31.7658065814877,302.041700429745,175.931331957609,14.9211265932662,-29.9907100452527,241.475750685639,206.95451828333,87.8211488108941,9.56484360624572,-9.59811550477924,176.690295365046,135.22868232972,59.1049120466408,36.5734644456712,81.1171384834973,61.9200231082098,3.84180846801367,-234.425056160543,258.854991770785,-274.685191308738,85.3189771296625,240.730795455602,-566.211876244736,-52.8001200491374,-629.235739034296,-403.249432966816,-326.109410041973,383.15899466515,-397.299617900595,67.7036077737446,-160.066115513689,263.675318384807,89.203269533288,11.3699034397864,376.132047710919,-235.001309790095
597.406925448192,637.38715637531,473.307316425864,452.449293295664,332.11163313488,163.206871647755,419.135156110015,-67.3216749493793,182.983979015139,-151.506578016819,-824.250454945901,-971.592448571895,-396.931692983384,-1147.06675241348,-1305.13814450038,-1211.3726830245,-256.00312712462,-879.064138173841,-1112.66655044761,17.6817344855253,-619.160923330713,534.85846251854,287.747719933335,-662.380031227125,574.005654047297,119.189098741504,475.553214550807,363.609537417597,-64.6625119605361,295.450274510781,122.232843927044,-75.5019812373829,-115.626250664177,238.910669205714,167.630522001673,23.2689157380509,-67.0602915627822,-80.5609758874884,161.143589606495,89.2956017605233,-1.69078297648728,-24.5795973645966,35.9876202252928,4.77262664721302,-67.7436535563354,149.782681863615,657.541414711679,290.446029882418,650.837342547416,598.494875188721,11.3582865774829,435.112953634945,-146.087953106856,250.924053262692,270.332810967088,694.779655636683,113.178562426385,398.094930460293,261.428104935346,666.577320213099,346.893537358243,413.122385133764,761.727711979763,69.4496845927536
754.936439549386,880.688972531113,614.941409673105,590.204846971978,562.96207654539,193.437110648465,448.202208348026,-23.7218511913044,2.19527228530931,-285.627612305114,-1054.57267552452,-1497.06523509603,-829.727557792391,-1590.83435542566,-1865.91517214821,-1703.14422084126,-493.088885998595,-1267.63266405126,-1319.29126596774,-108.535023928698,-740.482602321563,475.916700607729,190.487476732785,-697.928743805697,465.505125697482,65.3778502038365,483.28263622668,307.825202510988,-122.337923310181,291.021376147806,89.4725061183706,-125.094236083612,-130.554965651014,253.204507582421,153.242184668617,-7.22986860203308,-92.3676488614101,-87.8747861686358,165.959515835894,80.8036379189278,-19.2403121499243,-41.1657730030214,25.3709581320357,-18.3891868101969,-90.3449923898381,442.757887891975,932.239359180071,766.715374627527,1179.51854877641,866.990233848436,479.141008173871,1014.1029660667,255.222724761737,889.263828832093,1015.24593817932,1102.47127169245,590.941592452264,968.221117784449,638.961792012738,1121.32138810604,822.71429607848,1046.82344490413,1094.96112058408,547.990652258025
861.732888999048,1108.39182993705,654.092620806792,744.102559709183,836.218163397199,99.8552342149435,413.895239436337,153.931298752553,-306.027889690406,-326.859994242435,-1060.10342564316,-1954.87981486516,-1220.26229995547,-1811.61148264209,-2173.76070896983,-1832.3070040263,-577.692435197231,-1388.88204861578,-1214.73063404494,-151.256633714273,-681.476560440639,455.577106928277,114.18192631254,-574.232680556265,380.156745462201,20.9304344311292,486.07213324255,270.575098616439,-105.296786500698,313.640048317753,104.327692340987,-97.287519002063,-81.2091119341715,298.829008236612,176.98762215472,16.5769802953226,-63.1200214193971,-58.9138769612351,197.666183838251,112.643111167027,-0.484912137955773,-27.437237229311,33.2055937704454,-16.6962337204035,-75.1522498994648,449.409669543079,1048.79024103993,951.515566661024,1478.0885954898,1061.66964685382,625.971854705167,1500.81982506611,412.148381725078,1252.4888339772,1609.9363528906,1505.25008543908,877.263608535812,1635.55136643989,869.542480797521,1451.85331168109,1419.93562351965,1705.58567601773,1290.92903852716,1083.01291819001
938.661508268931,1185.84330054153,645.97895611921,810.197595343629,912.936418707421,13.4622676885535,352.433940102425,255.349469171057,-548.931685977089,-349.612385771676,-1094.87393172991,-2112.47113294103,-1436.54954635961,-1880.18120698526,-2063.0298295005,-1556.36672161198,-441.728945860765,-1114.18395769623,-841.106890323015,-45.3217303786872,-421.197949772204,509.301537675098,134.005311566834,-317.05247697979,385.265617872417,36.8091215150191,510.460679194187,280.188999063639,-30.5836886461045,350.189051993419,147.091746170799,-29.2753522178366,-38.6210628390115,345.726470399055,206.169521132756,57.1151514142003,-25.4440195105272,-55.4948392493295,229.222693140278,139.30623099068,8.88820868364154,-32.118659480322,16.1081000037499,-34.3873141384166,-74.193238557673,129.929999556279,965.538911988249,764.366021514149,1370.00216181734,1151.69125189294,441.139635983787,1612.34372382718,299.029996896245,1198.60500669371,1737.18250333666,1632.1598326413,886.632395276362,1993.24353744455,902.626714540105,1494.05927415397,1795.09215554132,2089.46204482321,1300.66015120409,1470.35334583485
865.10108832587,1003.48461387357,543.058956420183,643.677689456923,651.024604322064,-22.0765448910237,205.263552056155,68.0704991085508,-644.829467454552,-529.723631969627,-1431.39023215749,-1953.59206868791,-1504.904775734,-2022.44023091635,-1663.18451984324,-1175.07497146505,-184.054007602284,-654.917074306008,-463.543133991001,130.291719708187,-106.562596073506,547.39358757118,220.601559753846,-60.9378126964239,416.588730644336,115.169951651219,518.74320197462,288.420830760797,33.7171099106996,353.597014698097,158.668354000664,-5.06839432470677,-74.8195146763116,350.314268957638,192.565040981728,45.320481548342,-47.7288783332207,-135.273169317294,217.848773000636,107.327591536647,-48.7675030140439,-112.960597818253,-67.4536408300064,-128.522209172453,-153.600472553239,-413.561204553724,470.373811181884,188.033950027006,649.273048399111,853.9489642806,-61.3999395737167,959.966131784712,-107.823954916481,640.931175715616,1122.32403424799,1153.37601419572,512.367798803562,1605.98899783001,659.192683856938,1117.06709724665,1572.34433864729,1947.01422063318,1046.07936733768,1502.58192653066
460.939930514219,495.937133673428,199.760847064118,154.805945613585,66.2242411361068,-149.413045795954,-157.88268418535,-452.722104807788,-739.606000891696,-978.889644884892,-2078.55793688402,-1745.71049920776,-1593.93997851388,-2399.89593693278,-1309.9045326366,-1035.29034397238,64.1445752104841,-362.428841880045,-352.775616055835,249.073317184831,64.6501014461261,510.535875701276,252.21975133615,59.8879880278092,382.443484797896,156.64880548007,468.50267106002,219.078003977466,11.5523023435403,282.529608739068,84.2930793078273,-93.5022469957016,-238.944925703533,287.035416419081,97.3047382835901,-73.3865671211699,-189.421049139972,-349.561371274423,131.970155710164,-18.6569244580331,-220.942907931846,-321.576545643528,-254.404165970124,-348.417895206718,-369.662711173288,-989.381266950423,-622.494282717597,-654.354315710224,-638.28056870185,-80.2284699026936,-853.295018716043,-480.231735792523,-804.457666017986,-346.419296919838,-149.705417736475,11.7777345184609,-283.367092534831,439.940284925252,67.9502316815092,270.526159822967,688.470801392023,1190.41665761144,412.103100642587,1042.75467270777
-222.553795962073,-251.9686296693,-369.695843186495,-521.148386109074,-678.674939703277,-468.973604485909,-695.495030310368,-1112.64954106029,-970.513922058499,-1544.92452619827,-2752.67770033706,-1743.07088382736,-1769.63997972948,-2885.46884578621,-1210.61980175274,-1148.45528149509,188.936644800352,-352.130345029195,-499.489065586058,265.375991184328,47.3419716185068,445.075697016938,173.924531957645,21.0706097927397,274.815790456624,77.9897117133178,365.344959137835,57.8670717936746,-125.96294771686,133.622841192642,-88.3008365015977,-307.826331547645,-543.490728519895,154.017786237703,-88.2742049580315,-302.900022661849,-461.829030342355,-709.534347231047,-30.5416721311918,-240.139794385949,-509.552138401828,-664.791461961644,-543.206721675149,-690.561337866146,-727.328755637081,-1298.05962634562,-1995.0444129395,-1317.56006654763,-1868.79797963653,-1304.74082640386,-1569.99675978589,-1920.17677707828,-1496.90983264656,-1293.63191710073,-1378.68718687761,-1256.23732114103,-1184.82350632764,-918.287793791128,-716.699144638774,-793.528542859016,-439.078074569604,84.6547723582174,-520.236317522137,199.615888388701
-880.801516367769,-983.212752523549,-914.826625295087,-1094.61471326108,-1369.10584774163,-853.51213368471,-1168.67244889847,-1660.08844723331,-1267.74886039053,-1953.4306823393,-3179.26465460964,-1924.64411801115,-1941.55673675658,-3209.33006759367,-1291.33272798362,-1279.67930675284,103.556341225578,-462.218147124289,-703.994915891984,210.931225105838,-49.293446980544,387.960645936488,61.6631981884768,-122.35845117333,138.936087036033,-80.8019495589782,229.960431141922,-135.683564690654,-343.425416951396,-63.1956443593337,-327.276693043017,-608.281148530919,-943.43170622283,-23.450410501154,-328.450656300804,-593.26604668048,-812.723305068403,-1148.29473650837,-237.648599996828,-510.515748122567,-857.343747669852,-1076.75848390619,-869.387662729028,-1080.04554511186,-1160.23890898577,-1126.73978589566,-2857.25321401479,-1321.96302080923,-2260.65378012168,-2014.72995989339,-1639.82529842356,-2370.92417666459,-1674.81101414299,-1596.40737887317,-1732.55608153994,-1788.3391385283,-1595.94756962291,-1609.33463931616,-1250.23663748003,-1460.17473168045,-1136.42127837023,-770.094365659535,-1278.22535100861,-577.625352602058
-1275.65430394382,-1456.62453578443,-1221.884267067,-1406.99474711342,-1859.56533028107,-1105.50301021764,-1425.0664573511,-2008.54771651856,-1475.57473801779,-2127.26656729433,-3328.99439593448,-2059.21098856,-2045.95887099012,-3282.07820559309,-1338.25183243184,-1313.04405302461,-147.649493961727,-501.660263179638,-868.645016116256,156.111525726317,-124.273763293269,334.244237243695,27.3191302528036,-304.573197613796,36.2469686644467,-200.968884564357,97.506694741867,-272.808262597038,-554.982168204775,-233.610711506363,-550.441896930611,-902.134079379209,-1332.05079271029,-172.017022236045,-536.724718765162,-852.402852668374,-1139.90090342536,-1541.81666987711,-413.009937710166,-736.500657973169,-1160.7896661632,-1439.97325185293,-1137.22253446949,-1405.51487855127,-1552.46310721043,-716.937621330303,-2833.65602059165,-812.036016349248,-1816.73989002836,-1922.42547065653,-1045.47040223374,-1822.39333027182,-1241.23681633736,-1180.58656956123,-1160.78483231252,-1338.80261011864,-1273.12589933041,-1307.51807933557,-1213.489443139,-1312.98163127355,-1078.64505560803,-977.222730234865,-1393.5812525233,-897.815277970976
-1429.55710737858,-1629.43359423191,-1322.32720610524,-1518.2461786652,-2119.57207740013,-1184.27089794612,-1523.34129558418,-2192.83791145812,-1534.21411479941,-2180.73401805091,-3301.17672159995,-1946.17852013308,-2086.97386241484,-3186.20480240984,-1179.68354164518,-1258.22624273281,-341.390701115381,-372.742419889771,-975.090555001659,224.983193455353,-138.268765268488,363.065955771451,128.620503114765,-448.519996072861,56.4234865680718,-204.491470300367,44.7708624525265,-288.941696247043,-669.802866152656,-283.273764529627,-652.915896542,-1075.96967854007,-1590.32208351198,-209.22619479534,-619.777746289729,-989.395098310746,-1338.74036140441,-1781.4099680556,-471.508514799714,-831.654574973059,-1324.27558891935,-1652.16357560396,-1276.24983461315,-1585.25648126687,-1794.81469200408,-616.323483839788,-2515.91928748344,-528.418657774511,-1405.65653014139,-1690.06700479133,-472.007208843425,-1274.23787211902,-721.122388190514,-597.137261559379,-519.249409990549,-732.779260704535,-648.712348710338,-656.122308601573,-824.911462283001,-692.314984212205,-668.091691376871,-868.269584751574,-1014.2712815358,-933.434338734491
-1480.80862322172,-1632.28840357203,-1350.63546617186,-1528.69354965505,-2209.42281076553,-1171.21984142103,-1537.24174915191,-2216.68975863199,-1459.20711219433,-2152.23469342893,-3123.15292737809,-1568.22044265391,-2016.25376761435,-2938.83424774565,-771.587908367443,-1052.38851035883,-282.387050314916,-56.0063065322797,-924.219311115106,511.330639531149,-60.6627980677706,600.036200242064,334.717368131922,-482.227955282953,237.520048776863,-124.393947167209,108.802428613289,-200.955938980076,-663.51408305807,-204.786116196513,-610.030574369456,-1085.31783327601,-1659.81079289514,-145.552609800702,-572.835777064925,-985.21071161933,-1367.48937407121,-1829.22712483268,-414.87346948371,-796.737453559711,-1331.4378912772,-1683.75510166242,-1280.69821236839,-1610.57071639156,-1842.85022259666,-1000.30930871218,-2657.59643397529,-910.983299459233,-1675.5251259416,-2023.43703985705,-440.741318222578,-1470.50119611701,-548.447355598735,-384.477966500984,-591.23558630824,-937.612434540789,-283.543686641176,-577.747752435352,-544.215579665489,-289.847987831288,-566.643031482555,-1147.51667716983,-707.359986668626,-1148.02276199751
-1481.30877720657,-1596.54737933564,-1310.75328801234,-1445.99917073083,-2185.7446156349,-1078.97749029846,-1396.48714316285,-2044.7394304942,-1225.91787544369,-1915.9595113447,-2723.13075645411,-1041.54498245324,-1713.38940682671,-2434.34334225916,-185.273043321435,-593.980044989423,-25.3237751155741,393.403337179956,-602.471789945174,936.385685952834,142.774795095931,994.863398562093,553.055600095115,-380.129653695379,477.932587693019,-47.8172665586379,205.260388410097,-97.1165401006425,-581.031344777605,-102.691675102866,-505.92785821696,-973.780380448706,-1546.07223564411,-90.476460690337,-490.168632521769,-894.239150813631,-1252.71882674353,-1703.8771832586,-345.47824005933,-713.112795681192,-1232.45440701555,-1565.44882134493,-1198.36613797222,-1517.89215696478,-1716.01572433922,-1466.46636104361,-3208.11685785918,-1604.6121323995,-2350.95896385326,-2765.21137695858,-781.797240206632,-2143.54647745749,-596.753134548749,-584.339537850162,-1260.35415986123,-1903.3545819667,-273.655813106911,-1206.79021326296,-505.859210103787,-319.428940409135,-902.800218304122,-1954.32512931624,-701.748364398171,-1563.70343894554
-1427.86547173901,-1572.6743919955,-1133.0032695231,-1280.83873309923,-2038.49889786909,-858.79326269632,-1051.88348879968,-1706.82468550333,-827.513309943625,-1408.94389866496,-2061.03685441407,-511.140558889517,-1157.76754074119,-1634.94272794536,429.740905416857,55.8361985574704,220.057671141573,846.148555512765,-60.9720153980657,1296.36706616312,451.1673782065,1315.88579925017,708.414993200791,-165.885948497756,626.068901234734,-10.6149548415988,218.955580493521,-49.638665091098,-470.100691250919,-75.649442353714,-430.398857850319,-807.669639754023,-1303.53754932998,-131.238297495218,-459.819726902789,-785.025552792843,-1060.29532188534,-1464.92411401323,-354.01125576196,-656.012761085015,-1092.81208866434,-1364.13004771585,-1097.49154881811,-1367.98363380789,-1483.36855978765,-1588.82180516105,-3632.18274993539,-2019.14241407276,-2824.44536172519,-3296.99769574551,-1083.3726490323,-2656.70590964876,-617.676390374708,-907.65339017469,-1869.25764652237,-2762.90913275,-388.030201346896,-1871.77763676856,-542.841127567403,-471.775292324017,-1237.7212092138,-2645.195087216,-771.579706465811,-1768.63875798752
-1363.37197519322,-1567.84759089085,-886.491362888671,-1137.90367630012,-1751.78223613774,-576.375570973635,-677.30834418275,-1324.79638916396,-415.560568520339,-818.588718911001,-1261.95932579933,-115.245007107358,-553.709786409402,-729.443123400948,882.207320433914,625.381689071497,352.634657329102,1147.97149372766,470.192513197684,1463.22434457229,765.598299165932,1420.40634844343,783.810236946472,110.95744416161,639.153940874135,18.5719117937474,147.766504901845,-52.1354747836245,-347.837944590465,-118.365740091052,-393.079211874869,-635.82776778049,-1038.18094589387,-237.651076242012,-478.926034134182,-697.115087699208,-872.268747736854,-1215.44410236952,-423.900790293645,-637.996260301466,-970.59516866725,-1170.60043149331,-1028.72070659788,-1239.95713136689,-1251.19347927216,-1346.12224073884,-3699.61640234936,-1981.9262852965,-2894.88501018275,-3394.62421973537,-1176.19764975754,-2796.65088498188,-601.617210682618,-1128.07945982259,-2041.04533374174,-2924.56716214422,-466.698272358848,-1987.09031478732,-533.65887984754,-480.852535156908,-1201.75071333905,-2639.73772712208,-730.50082344866,-1587.83211178629
