-12.2518980083606,-16.6741807214376,-13.7743232046658,-5.65472215770491,-11.4544371912484,0.289985751677175,-13.4118410150693,-3.11734683052963,-15.5867341526482,-15.296748400971,-15.5867341526482,-18.994066734855,-15.0067626492938,-12.3968908841992,-14.7167768976166,-13.7743232046658,-17.9791166039849,-10.8744656878941,-15.804223466406,-14.9342662113745,-10.4394870603783,-5.58222571978562,-10.0045084328625,-19.2115560486128,15.5142377147289,-0.289985751677175,28.4911001022824,20.226506179483,-13.4843374529886,36.538204711324,18.7765774210971,-36.7556940250819,-12.5418837600378,6.16219722313997,29.9410288606683,-34.3633115737452,-52.9223996810844,4.78476490267339,16.9641664731147,16.0942092180832,-55.6047678840983,-19.5740382382093,-32.9858792532787,-56.9097037666456,5.29223996810844,4.27728983723833,5.7997150335435,1.81241094798234,5.29223996810844,3.62482189596469,-1.44992875838588,8.77206898823454,-6.23469366105926,-7.10465091609079,0.289985751677175,-0.362482189596469,-5.07475065435056,7.0321544781715,2.60987176509458,1.81241094798234,0.217489313757881,2.46487888925599,-5.65472215770491,0.289985751677175
-54.8726368437749,-74.913813739929,-61.9515167936938,-22.7717271150471,-50.1462497659035,2.68091165888204,-59.5065826940824,-12.0368749546654,-69.1739330753193,-69.392878933209,-69.2464295132386,-87.4440451469121,-67.1469459018428,-54.255688849395,-67.3658917597325,-61.8790203557744,-83.1356049951756,-47.6117875269919,-71.2933614763598,-67.9628949644678,-45.7653131762477,-24.3851369947844,-42.5414065050368,-85.5761694623914,78.6169582503403,5.51118582599816,134.02967701818,104.09391144631,-53.7608758529454,187.944731839956,92.9367427273975,-160.195627818248,-52.9137764758221,26.2671312924224,153.596432535731,-155.730989265819,-239.516149114005,21.6886501786532,90.8615735380418,86.0086818298446,-250.721499848796,-84.0337994764417,-150.13755802118,-249.881236364131,24.1691042251583,23.2679966556286,32.1592875535298,11.7171954326218,29.4613441932668,21.6219799172613,-3.54504273738623,45.9005570713645,-26.9736074261025,-30.1590810621559,5.3632798618959,2.5573201168199,-20.4547541898934,37.7171988512753,16.2985896346546,12.8771384393305,5.2367752315701,15.4656088706486,-23.2792021804822,5.72576205149237
-96.8087294017424,-132.651616756942,-109.829659391798,-33.5711542525782,-85.0075012957508,6.72833443747752,-103.526148398938,-15.8032367342847,-118.481589469352,-125.65800567106,-121.362958740611,-160.261246352551,-118.093777381313,-93.3136908005181,-122.515328942089,-110.718104892342,-153.723249210107,-80.2543277753055,-127.723025437989,-123.807927705776,-79.7204318434471,-42.9242450861231,-70.8382400260165,-151.090490462021,161.433700805889,25.9082875829199,247.889929534911,215.771756591199,-78.770196151942,397.721833210644,172.494894053004,-266.325210785592,-86.6686985101338,33.5620145460827,316.788291316715,-283.251408635891,-423.21445901492,29.227913785307,198.198546000334,182.709789167205,-438.442453693926,-138.039355902762,-268.736656251916,-413.46999274402,34.334870856583,52.1566865709521,74.1399473526959,29.8345617349044,67.7835191354109,53.8241395086498,1.68706701674539,99.8305712940881,-44.9312526044012,-48.3758517622053,20.6885498132019,16.3446245801255,-29.4149839368681,84.0515386247106,42.1802413973566,36.4984078469521,21.9307788645769,39.4478690581809,-35.0366581682132,23.2059803507326
-87.316621203692,-119.697122022404,-98.8532918505242,-22.5499989102627,-71.3294971179704,2.73541404305465,-90.4290977486877,-7.26424377608349,-96.1023681909532,-120.008364844857,-110.976759407369,-150.649575179361,-105.876531619676,-83.4471527323461,-114.173383071225,-104.838939681152,-147.734962865707,-66.0379107983717,-118.902948343289,-120.26008453202,-76.1929987932791,-43.9373529569373,-65.2137475038494,-139.936543154957,166.227980697851,35.2686827830626,215.742781216594,218.3360785447,-54.7247565564156,440.533859558855,107.622755226701,-194.156438751312,-73.4141059853067,-13.5628061362684,310.20439063325,-258.379975463426,-350.514281168229,-13.8551529524616,219.782003051988,179.83092667722,-349.917165788999,-101.965617008329,-225.788518733672,-276.403734465497,-8.59689914210904,61.8460049334787,90.6529425054697,36.5931534235069,81.8761016897079,71.6502332104042,11.325460880488,116.297762896309,-37.330500127667,-37.0633580198412,32.7025966693838,30.9934355215867,-15.7236502754986,99.9057741308841,57.5437331143522,52.2899349137721,39.452372807877,51.3874428022172,-21.391112005981,40.582541050955
-53.9647212450646,-72.617023500459,-57.9934681962383,-13.1253255329496,-40.4517471282006,-13.8401065933884,-50.6932968096025,-3.10411935682002,-41.6560795287366,-81.2403297606981,-74.6405197200111,-90.5720285469729,-66.4024071151746,-55.3105487664417,-69.1678736913945,-73.417701579602,-93.6813255215042,-37.2464803743215,-76.3814316501584,-87.3014592167134,-61.7578643546785,-46.040614301326,-59.1517748263192,-94.1259291283883,77.7989532456826,1.08705943918048,62.0518110000711,88.0442251536483,-34.1910286850884,261.893751743811,-105.144161426257,-21.0615163755914,-47.9111375988712,-86.0562541748321,78.0518663619482,-88.9057140057195,-102.96162944581,-85.531451687611,122.731589340921,47.6820303368899,-73.4485625757487,-24.2399998837803,-57.4820067951464,40.0901136300077,-84.4822159258717,43.7825858736638,64.0633485058504,19.2727291401374,56.8578627992182,56.2928384230845,8.9540967063729,81.6295466794602,-22.6747359104064,-20.7576999755926,21.0809954329756,25.4026745960517,-0.70608903469815,71.683723851955,44.5953102945368,39.7185450176157,37.3356703920028,35.6340554835087,-2.99272433811358,36.3027823718198
-41.8222341843297,-55.9953194642831,-40.7015703389323,-13.9136224772242,-30.9773715754742,-22.9933930296096,-34.5689188315812,-3.6912590222538,-23.9255033049932,-64.9417621332695,-62.0098631835622,-63.7199390574957,-57.6042990254109,-44.8040519159915,-51.379947313965,-62.7231830127751,-67.9277258012143,-32.6259583214868,-57.3709907572489,-80.157296618535,-57.5571146692706,-67.3563359353521,-71.1486549250769,-72.1075462198288,-6.07713928908843,-27.2896033207999,-60.3722839613562,-22.9812395203567,-16.5504426423827,54.7466776232176,-231.781961564391,104.891802668944,-35.0464975723217,-122.486263363888,-164.138247494021,130.596135879341,69.0220082113348,-113.881164729254,27.5906608690762,-49.8648865487908,126.360176389569,6.19276702294426,75.5829055078615,249.157990343313,-119.072580234296,29.6972717883784,38.3108606754221,3.67008975597742,36.7410541237388,37.7690166738938,3.83546845530471,52.198556416609,-17.5283099116318,-17.5297509203489,3.71322304856686,14.8858556011603,1.91919289097073,50.7810337566098,26.3897867952928,22.2186961115698,27.83977711101,20.5543982701468,2.32252905923147,25.2091116956999
-20.9835862125587,-34.7785190355075,-20.5361578754007,8.15866880923285,-7.08161242877503,-1.91517760523399,-12.1128611354389,23.0838147143117,-9.2069080232513,-42.3743263296468,-31.6052948640129,-47.1621840413698,-41.3781944263626,-17.0752209736768,-37.8356456042644,-36.7691738751112,-46.5830528352333,-11.9069454944052,-26.3881685440002,-61.3468522215474,-18.6860132536301,-78.2748343527747,-51.4573103981562,-17.8711292743826,-24.6159371940008,31.220544982134,-115.484313940377,-23.1021508057466,95.3841450193638,-55.8462775976184,-99.7424946171347,225.001011219087,10.4903465952341,-121.837849969709,-223.386646314606,372.928039621952,182.738658654325,-89.2271610429651,15.3056996107857,18.5920015546449,264.210578647102,10.5399248737321,169.279665825703,378.236228249507,-94.4749043060708,43.8910309884042,54.6388828254461,22.6859702536526,58.6394915826372,55.6422203658887,23.9331013688143,69.6080593038481,3.32909475548924,5.53956214030398,19.2175489978175,37.7642336030675,19.1069811794101,74.7674279693656,34.7475425621992,37.406007726727,44.650587336957,43.069014104197,16.68405237486,43.3415526891288
35.4362780072618,26.754659927954,30.9529759079623,58.6795602044052,52.5269898581049,40.6135299226336,47.706024207685,82.3783541133458,44.708226675867,17.9549760723956,42.2304183978273,6.41177813131025,20.0567804639173,45.5568871068523,12.8871014593094,32.0673245779533,13.5698418997473,52.8014214533495,49.7166274188843,11.0538339811665,70.7077875599018,-42.7393994510301,18.5881111364463,100.178918759435,5.48176087306721,152.484577096921,-111.995368091947,28.0369187736267,287.186766851687,-69.0940473685228,179.692402140948,387.253358743025,100.65366531166,-74.9330097035306,-95.7366504789834,575.28240758469,354.154620223367,-58.667178819971,69.9930966389586,199.311615007532,442.191324143876,58.9423659556735,316.222498122941,542.760048920874,-48.3572117389161,76.1690673348724,98.9106307277601,69.7657969319105,102.826204610282,106.158835243197,64.402843251635,115.056899727039,47.8919365240985,56.2951028029198,66.6047954107574,91.1610363296356,61.6960323802205,119.174061025681,64.7801877384467,77.3594037038575,88.4919451169112,94.6863707700132,52.6993802477701,86.7858571559028
82.6981595778197,76.6835939986858,73.9834057150031,91.1415453752663,95.8295713984661,65.8209820834986,99.3037364980138,123.577289975014,92.3199193368078,70.8271704223497,98.4680473428086,58.9083238146985,73.8161510673064,93.0474195747568,65.0806337379474,86.9349370091056,71.3487735285749,105.269260720642,110.441833363357,86.0807802593269,142.194483895452,19.2834222232393,82.4616927592787,190.174472542606,55.0749323092359,226.285816035,-10.3675371966382,66.5664285347845,387.522149613477,9.4211426557176,355.127048260856,472.848368459728,152.019324322304,66.9750390453272,96.1382156691969,590.88191635829,487.375275097067,-60.0269165841853,151.207771721624,341.488955424439,547.955488875403,128.530165207459,457.698221665194,631.509717756386,-26.8602634864025,97.4023163621567,125.592936593167,100.638741881646,123.715292283094,141.51821300836,88.36295420468,139.445175199939,76.8228273583176,85.9250630200379,98.7957942332503,125.63416143806,92.7309610181609,137.259183109364,84.2513529011859,97.1187949620906,118.087918359874,125.355656380344,79.9154050288051,109.253050550612
73.0522175980018,63.8770125552828,67.398631737568,69.1832151339791,78.2545236858357,44.072273421313,88.947984524563,99.8445598572385,82.4821537169541,64.1330850874756,82.1027653891105,58.4615415815769,63.6850729146922,80.1957506164812,65.5747083534071,74.0427162632236,75.5673941148933,90.2668964699669,92.3680232986479,99.6042328743029,132.777907987917,55.4345349867697,91.0227746752462,174.203857111236,102.333182786325,202.650144879462,150.113764055345,106.980446299231,305.832867732628,130.402972066088,311.066510556426,355.203295796478,70.7835154096984,269.262255240886,204.364073828092,345.525203249693,404.667977455959,-122.957616303246,184.497462223414,334.998517561847,425.871294468828,101.916151584834,424.149774303923,488.193198818388,-85.2553482335192,82.5349863496454,100.683886071241,78.0356384502961,94.1110115817128,114.303146114127,70.291497649938,108.423736100427,60.8944925494716,61.3253765796998,74.8015807611207,101.535247546265,77.3114765725451,104.213049196468,68.6300000800519,67.6756352178479,96.29819112936,97.3036775067881,65.122719538776,78.7367001108106
29.1205999470765,18.7072295090907,31.4181650478478,17.7237206425986,27.8148463159489,-2.30537577913664,40.6535973726468,38.6518136028756,42.8013232759433,20.4485186704143,23.9650569342255,26.4385662023158,19.4746019725101,29.0508290733643,31.9022933428708,24.8970086005873,47.6766206528937,38.0652602632251,28.7426664185586,71.4128513044465,75.4141971495669,50.7250100709561,69.2823917788292,109.447436971563,129.313653684036,159.457399657612,229.465601998393,198.56578298821,191.509502455901,225.315871906293,187.387450920623,139.88957145225,-108.212349931435,411.667465468224,236.864802022521,10.850434092807,165.475531030236,-235.700553042875,161.610592506068,243.045893284065,176.119805176444,-45.3834437988722,256.033017725121,190.417824182322,-218.221574086803,41.1241413614788,38.4792061281621,23.2560847089071,34.6634357718382,42.5050189964972,27.7717060760419,45.0297269056937,26.1059465105458,13.1271632809512,15.9224787146809,41.3004365548656,33.521960989877,40.1449983179106,28.9345329442096,13.197396276152,41.6699855330249,35.0072776527925,24.0263402084613,22.2388694362505
10.8372817664606,4.51217048373443,16.2383694152885,-7.14717040203399,3.55760016648078,-20.3589816268807,20.8472261813436,11.2024720544862,30.9759720633463,2.55187137823001,-4.53218247839808,18.0713132913482,3.91492341620671,0.30916993538717,19.286284323875,4.89168245542457,39.6543658012412,14.4418465242978,-0.453039547176664,58.1791171092556,51.4359488125625,20.4416571514715,70.5696160652838,106.370147843338,112.969883077908,197.129119114602,116.518610279327,332.575434481027,261.801288060657,250.428556697802,211.284755241846,113.952257491579,-224.481099304456,398.013423739531,338.281620723182,-94.3714493798215,42.8463546225886,-299.734263641477,207.338635822345,245.685844533347,73.3577341588749,-165.485838072201,204.694548426781,-24.401113034423,-306.752553421367,14.4509553499133,-1.79856237507373,-1.32623187992738,1.93668706751864,0.534732882855988,8.28553105539414,10.3572715574703,20.2003604705437,-3.08217872339979,-14.3291481022902,8.25491843077102,11.2774030827654,-0.471380785617572,5.82539989605282,-11.2352296565275,12.2229349753834,-0.207484373481323,4.21154117331838,-3.0629521144181
37.5844114623426,38.0634573695167,40.9921325057811,14.2285918598701,25.6481520966017,3.67264082537323,49.1248291979253,39.8632795435169,57.3605783976539,30.6447728617953,20.4765521739488,45.2360873852675,29.698773985591,21.0185625020156,40.3551390432414,32.3052039930785,65.5690333906784,32.1965173986875,31.8286870384666,67.2448258587511,78.6457181752371,-34.134115263047,87.9742856227264,187.489500171448,16.7052921757832,290.37336313258,-166.035160275506,359.405977347651,522.927422459739,110.05961840427,390.659917305868,394.853963496653,-166.030442851902,220.661154572713,451.448481274119,131.779856220229,159.316102142693,-219.166246345716,341.232805691617,343.114279880328,199.017877927915,-142.196225838025,332.952615656692,-49.5214310062994,-241.62685786797,23.8875460562857,12.8093389597074,25.6279255247797,20.3809989574806,19.7380263735582,31.47565284682,24.5906359614583,52.4895411397525,25.2744090983572,6.40425530025771,25.4059183965015,29.7749191328116,9.81581433233929,20.7723806840298,13.0131399448272,30.1299886192102,15.2767610182073,22.8856333888086,18.3177645233123
77.5040635182731,83.5940386316844,80.9795216248155,49.0031489136624,62.9880760557785,33.1247149519565,87.5877216523951,82.3297463131982,91.0488107817764,71.9891719172029,63.7610000717133,78.5892214832611,66.8417147978086,61.3181316310798,65.7102095163377,74.8209220785706,98.1234691031713,55.4370188720389,86.189070899428,66.0937249422357,102.913354184495,-102.315929707451,63.7063990978416,271.46436443313,-163.410918406818,302.102768547277,-428.268347551546,102.749487299737,737.968455404135,-239.417248533769,462.177047804828,745.340137302595,14.5741268217338,16.8974512727461,309.908804148252,422.878670868357,340.202517280557,-36.8421025272307,379.579020762767,302.752442207677,345.547058334097,-55.072305076435,423.498214799669,-2.6128625913431,-69.4961495038265,49.3798802921341,42.6800261826638,60.2162381702473,50.3254285663786,51.7495782761929,63.3891962743538,48.5469033661574,88.8613373127013,58.586157943088,37.6149278625928,52.4861945140576,61.1410316304005,36.2127786284503,48.6385421387113,49.4317960188298,59.7694591336601,45.4950666888351,52.0841848831222,47.2176829294186
89.7322832031503,95.4837135242947,96.9381273203891,52.5321769096519,69.5266775924742,31.5339431225375,91.7932195960307,86.4069301365366,98.7656156223813,83.6204306733497,77.1767105729289,91.0798801040026,78.6472438912394,72.0059425888702,68.266604343542,85.9174989070985,100.682686433116,47.2273292340347,100.198998186321,34.1414114076579,71.630331458537,-142.671601894663,-24.2723385636084,255.364117516635,-347.34671331837,145.464157759784,-475.073159775463,-352.742169693882,652.738701131357,-602.355444234579,228.146800812155,819.729771956172,155.763696390072,-33.3955631605838,-95.4788302977928,453.639840641681,345.175548580293,86.4186443978897,231.552309455367,9.49875206802372,301.428952485039,-62.5176398038766,317.230626562536,-58.4196907234546,46.788370762297,59.5548612250156,28.0501237045227,53.6837493842513,40.5515845918219,39.5913460476207,61.8174318194894,37.9802900997565,93.9533984523007,58.0770358528768,31.6387816453974,42.5901087204408,69.2398292921166,26.9188745522102,52.798254956745,54.7197635103297,57.4178804628248,38.7927731633457,56.9879966873614,41.0369221436388
58.8752906242187,60.6763889745704,70.9503959294406,12.8221383564843,30.3480738987603,-4.60280055381289,51.4283682994257,37.1790032470939,64.8050783461676,49.4279726176893,40.7788385354674,74.1519365296398,46.1488619009262,33.99955753732,39.4756635525763,42.6966067682078,62.3147799031522,-6.99058289542618,41.2970850755338,-19.0525402943939,-23.2352437505194,-137.679338029401,-135.076752616837,102.886041417919,-440.408560793363,-114.303740591607,-345.727088074413,-679.774802218322,250.624269747896,-736.37448516529,-163.833128583912,519.451219875312,138.167546666521,54.1967529483817,-427.24628525913,205.044816830986,95.2426529701584,51.3445199022486,36.6439526359772,-343.804130703648,70.308392441598,-187.775839274713,94.2993280424886,-264.114196829724,13.3081572023452,40.3784911679935,-38.058386787921,3.45415519584522,-13.8352549992263,-20.4751873879948,26.249650775806,-16.3548527520647,65.2087306798773,23.8541473966779,-17.6900254999415,-11.342445828357,42.8736190204089,-26.2927307634605,25.6287839814039,21.2130059505191,12.7331193996667,-16.391252275422,30.0303341879732,-5.7437452115661
13.9358904998475,16.461897873892,29.0827241238292,-36.0246228948538,-16.4910753179722,-44.4244855739932,1.56750899070904,-25.7186942612993,12.4345498999929,1.06069154522413,-13.0101933783913,44.6561244178011,-1.82388776937093,-19.2617320456523,-4.03198900565964,-23.3683958953918,13.4079133777376,-78.6751689777908,-49.491307366872,-64.9050994478252,-136.07061367841,-118.041837240153,-212.833504071619,-112.619054314979,-438.412597476427,-334.693814501876,-242.397108645414,-712.897527430701,-231.543413786875,-662.689224308436,-424.76665855152,44.604179979355,1.46775653950314,98.6123023400109,-488.354530045505,-71.9567103483034,-288.729542487724,-55.7050952937825,-96.2232272310987,-505.958597380383,-191.784158165736,-287.214037311724,-69.8989908172554,-500.458798238222,-79.6760307731383,10.006003220698,-101.273155715127,-49.2839098870781,-67.9033909333783,-79.4741474739609,-4.87646023994558,-76.9573167057072,36.9630288503325,-10.9230473220252,-67.9746576639465,-70.5186351330963,6.90324900359098,-78.6785635850465,-6.67627910124824,-18.3941197470486,-39.8578391692499,-73.9801774954292,-1.94683801978435,-56.6154421121043
1.24691802730028,10.0016651685366,15.6133142334203,-47.3691279601805,-20.3239574314799,-48.8264621679446,-10.8851555383075,-47.286462618412,-8.53429317020048,-10.4741713193821,-27.955405940538,35.3046495413408,-11.589611977993,-35.1113620486063,-24.2959874684528,-52.0841385374033,-4.43239842010314,-109.137622053944,-94.267216738039,-76.4257377407906,-195.453012026977,-100.030970735636,-225.571386272113,-266.803382172335,-382.366096880661,-437.398690305502,-243.608446663349,-593.479657037041,-565.852295603257,-562.609044523805,-480.069554455396,-341.274662763194,-121.397142090075,9.40138897186177,-420.631339485723,-178.006907540539,-570.850832677719,-80.8442027747727,-242.390379053072,-427.16078108135,-334.424900419467,-240.491957998434,-82.1831038925373,-581.808400224015,-82.8646677336497,4.21374779233714,-107.030676350249,-61.4672736870514,-75.6686528708573,-88.5864856968866,0.143447364583438,-90.7008434702445,42.7809196584483,-12.1137911472911,-72.443138326442,-84.6140692560199,3.4652850290444,-85.5721563679585,-9.99879999853006,-25.2349878818899,-49.5148059109835,-81.7632603395385,-3.69495631808832,-66.6683889664151
29.8990618968636,44.4456163930874,41.9994938333858,-10.3390017103929,23.1866359311543,-11.6279924279759,23.5440249959849,-17.0566489127255,20.7581319872799,28.3040871080482,13.7278181557298,61.8761358203108,29.9991943312963,4.66706365810964,4.67246740438544,-19.6185799826697,21.9132927208289,-68.7212023337906,-64.202808538187,-38.5729698021057,-167.495649228039,-48.9907280665753,-163.261965305389,-301.036711380315,-259.600455026483,-435.441960642274,-229.248635484594,-463.650860971043,-725.183624478243,-467.690512112683,-441.632442167389,-525.3617788489,-154.470893897816,-119.560679752971,-344.868147867878,-149.297510501761,-580.032737283469,2.74958361559588,-430.747710276675,-214.608780462201,-325.254086541893,-92.9200341648216,9.44730073385841,-424.761808089015,13.8012463873534,36.2520449738832,-59.9509892130896,-27.8705535445151,-36.6309167705205,-51.6877922079325,37.2115599889224,-51.502538762668,79.5606391185705,24.3855863084609,-30.8843864534079,-44.2667422320557,45.7085849933817,-49.6212913766636,23.6175979114898,7.04562367242455,-5.08672662107327,-39.5370111130008,34.3846768646158,-27.9289188831362
81.3104457249367,100.000387522095,92.9266043793048,55.4737704788561,86.1638329212119,47.3361181489428,85.2137376485344,42.5761922251547,80.6649815202122,97.5910620632401,91.7994444173607,119.980142024083,98.8295483447378,82.6581184341577,78.2380082656046,57.9811362220238,82.7429278930475,27.8959972276116,22.3289963582134,56.6989152475357,-66.4352414696259,72.9956589461662,-22.2614862044975,-236.986311723531,-32.5368020037647,-341.480884953844,-67.4101060897145,-270.45164990859,-771.941922260749,-241.532258080369,-360.660207953131,-551.325417599829,-77.1864056714064,-138.55183830443,-172.974310564816,-143.475345975067,-344.834297382289,128.039332983059,-469.551906446524,2.29766547346772,-258.443393257893,60.4162270279901,77.0319255163609,-136.968062302208,128.573149805243,95.183304061291,6.02170293329135,30.9652093156834,25.0703298085896,4.54600785563002,91.2775663092728,8.48329617256221,132.712531130962,83.1548879441206,30.4705976041545,22.7307708887846,110.929869088018,8.28913319458254,80.891056765335,63.2133238704461,65.3702837055235,24.3381646800778,99.381126943639,38.8221792712452
150.935766803788,175.962525209351,161.974566006738,137.940807542721,159.729999798176,120.316900081901,161.726386776526,120.901714219794,157.017015222175,183.841626699026,189.513140407357,200.321425719776,184.055183287776,180.456555804543,177.169244833609,167.570635622825,167.370228431576,157.045176786038,151.717369839668,201.842956452996,84.7601493198847,251.059268134624,186.485261755681,-96.1729418441891,277.431690040271,-136.248802270784,215.854986736741,66.3277130643695,-688.431688501398,165.159334145518,-195.617429649868,-485.350279921976,110.974980500528,-5.74041967129795,133.722962884685,-232.468135877029,-15.3210296649729,277.668987642533,-212.25696081648,122.892221322978,-218.109617990874,232.996978113817,47.6235487293468,120.324753770815,256.1279365729,168.101232084636,82.6020509844317,102.546965049547,100.640761403503,79.0151804826652,160.394899816668,77.5730484880407,199.096759622191,155.077977639124,103.705131146239,98.4069941773008,179.25253014157,84.2140646814853,152.468580407359,134.246710315068,142.435477684692,100.667122340374,175.71303691468,119.496128573075
241.290238561289,274.25542150699,248.337407977419,235.788838913635,255.0111173702,210.054578646605,250.909395588402,218.179107437487,249.957294917733,285.5064577714,299.891384780363,292.407402966558,289.708068346895,292.910240179029,285.922193925872,301.614541670712,265.943019327452,299.833299172733,311.396927074169,364.486993186133,263.195905604149,430.666378046713,420.276824452074,114.669864633179,589.42767628962,153.281536962317,487.217283467388,471.738076256846,-418.581423421604,594.392845978402,51.6669449426643,-329.096807364325,338.478262761162,195.941236379783,423.322865814013,-340.124737835874,298.254478496691,471.585138600931,163.181790339438,125.688043960888,-157.034198171696,484.813766574399,-33.3836900671193,321.000467887593,445.384242481745,244.488297361984,178.753015844671,188.748490317363,191.616649150811,177.443879253305,243.809650767229,167.424579283143,272.538625014357,238.627168087926,196.001224348126,187.761329488956,253.181137608493,177.892019728793,232.764556109288,218.845462768784,227.147327014661,192.685480691679,254.067273399232,210.7565733914
334.796219444912,371.945213647333,333.801630911362,333.369356387641,361.09951545234,302.872138479282,342.627557243856,319.814510100217,346.140950699703,392.665267241747,407.033576112277,380.64074919054,396.093617774685,406.633618605741,387.210385639094,431.459262797372,360.140471993279,427.595003174239,464.913336740758,499.28733131056,431.247675547475,559.585665392577,614.665839887848,352.587790691654,818.262803768309,431.338609695399,645.922190308764,783.027639667424,-10.1957505218431,844.778202016726,295.754953956926,-71.8927718679843,504.358094233053,347.986633505427,540.295624807411,-319.704437634923,542.251558861685,681.570822167375,359.13525206613,80.8770759264723,40.3726474409425,779.270786589868,-77.1451300586206,520.137446753616,680.230455250373,318.892776925654,290.480840285879,288.027519114918,288.831527349965,286.972563657042,327.732418212018,273.582787107586,343.148264911484,327.833795462548,301.100429251555,290.805338635984,332.764941902465,275.745730639581,307.831754480195,305.650362917817,314.094035394836,290.349590334542,327.555433307081,302.668620811085
396.044604949887,433.20499007378,384.584350381789,396.653304373542,433.911177541862,365.410783316697,406.233686555377,388.942289079055,408.298006284342,469.937035431547,481.610239495205,435.476010820514,457.843615200817,482.489033896951,449.706404326386,510.663300988427,414.480577075336,501.53606470052,561.356259016219,557.643009526192,538.521580637401,595.67560683534,710.096678122627,537.216387297274,899.089874657695,604.840013364215,646.635040175858,894.364925196144,372.295771277497,836.048233683627,424.240247823175,207.274560433214,583.439661729128,352.111464108558,436.729391576029,-101.543786232079,676.5757632085,841.440473075,276.898105873653,32.1173103711191,380.280624867565,1003.61233484011,-52.9613540721746,699.407139488487,881.91479479588,383.791572412804,390.471384165274,377.059901617851,370.377648675228,381.556586065388,389.8241354107,362.25902001598,398.314971257768,400.546221160605,388.544817311822,381.868020438624,390.855719130208,351.006330592871,355.446073397325,364.175482000172,377.533801728383,367.109175839622,379.045417828265,370.876275069724
404.019020080133,440.663064020188,386.375845357444,406.287816429349,447.300164790164,375.105771939796,415.566388140057,398.515272577465,411.443941530956,484.935651897011,504.607291378367,436.954624904118,458.080113472538,493.730349874039,453.207086513138,518.698420188514,402.492213223245,504.772208071096,578.056942785799,515.922305695386,554.503850426537,526.531457473183,682.98266254879,612.520814479396,800.658717190682,627.553540385301,494.347379055793,780.454468572508,573.465126073753,597.574002283942,363.60218277166,358.749963986745,611.675510331574,199.828751291426,127.140257848668,175.744390621775,712.249001596253,914.482831315987,-4.69046050577243,-87.4358673534825,672.77256021991,1097.71023432564,-17.0063331039819,792.280314391925,989.551089648045,414.090164736437,440.313785850282,419.455191032186,412.247902809421,431.891466023903,412.270002255658,401.573190980177,416.928809307416,429.232896426551,426.150454694292,428.337244780221,400.2300889019,380.181704954763,360.971270367201,373.785475153868,395.490919921392,398.009659462763,389.254860947164,394.466210756664
368.428121063024,402.843465211878,356.220710320442,373.510114305807,416.26026768551,343.432831820107,380.752601883201,357.875437474839,373.558210668635,448.012841247027,479.882040656914,403.499868042728,423.740469498218,457.413034219908,414.172150852772,476.69133991026,345.083113071638,456.321171682799,537.482285593321,410.424619798067,495.408703619806,405.875542862268,559.253017291864,585.560177739186,563.487337965965,504.327152435085,283.970935185881,483.132892792505,557.413352619215,231.663591586875,163.681561801773,323.963506668638,616.684872809561,2.78930184728348,-273.528988573205,296.876444617727,701.026652196777,900.264309132316,-351.582953317937,-309.797181386932,717.224634918876,1079.09674504031,-34.1515257868133,779.856142111785,980.768450160356,370.527201729328,408.877212365206,385.07910995242,386.518465031513,408.975033374538,377.86925736388,376.154837202342,378.91748823011,398.206185718196,398.320093003151,409.169537492788,359.069339802807,352.35611555333,322.9933299288,339.673019424302,362.87227367586,371.187360189182,353.11579188927,366.562212390555
307.618554795747,333.260294146964,306.834018388544,314.155498306731,353.16926470257,296.37701886765,323.665252309108,289.63723353172,322.235497103345,386.728057062097,413.919634122698,359.129086244499,373.743697168461,396.314460258564,359.201229641476,408.890573946357,287.716713359753,382.697947345864,466.047250392687,307.643538678842,402.80156706178,317.045244615445,392.462609940675,498.879244759542,298.592864968928,294.315080057608,141.668850733794,124.893785177136,393.333085104272,-97.207651968841,-16.9448481718254,199.11951049769,596.432808972251,-127.806093610712,-541.701629270025,254.163785046085,643.252843715593,787.255356893336,-591.802159719989,-484.15926818552,550.61736190267,954.237988424886,-79.5999004217972,675.911954822037,838.763497195921,232.328867631513,280.842027229614,261.197218468555,268.977878374023,291.881104689618,270.162548938806,270.552112103681,277.872330888009,299.921579894525,298.495428469052,310.174793263907,269.081581468056,259.299804015254,241.616895276876,262.868314123416,273.671404482889,280.187018722858,274.67421201649,283.160315183166
222.626812211364,231.150464467565,226.629662591908,224.684420275145,247.276609915406,234.811295674189,239.081427704637,196.901828065212,250.214792044789,300.385264058128,303.287697278305,292.870451354315,294.237754344763,302.54884318129,288.649456133445,314.972811572066,235.476758854319,288.532207481471,358.732292256347,225.620424562244,294.03953729807,267.265170448167,219.703197271221,373.227584873872,87.3340686040034,58.2685171860964,73.5823919178865,-172.98947500112,135.846007009461,-279.454746645704,-111.87868877717,45.4415995800597,518.619428406957,-192.401199152978,-546.468533791693,169.596384037268,485.615777706299,569.588190118884,-621.492316649387,-463.297869287494,340.408320057912,703.330800578896,-104.722756519763,479.865238777087,572.615208133794,34.6842822338328,79.0028086198217,73.2566643552591,78.8419716460866,97.9660177859203,101.672483362285,90.8263549762493,124.74160090175,143.728774581392,136.504626622435,139.466868879074,128.298282529753,103.440645157829,114.557151060213,133.362758906491,126.99216546163,129.783939765792,154.467565870319,147.487406242342
98.6241268418359,87.5677292143039,101.775251261683,90.3660690513263,91.7692398332083,130.495441974713,108.389041200233,65.5748360021339,130.136573079407,168.251002527278,146.580916346,178.19192736661,164.245453300589,157.040907653904,178.289370660379,178.884036975166,142.810027163375,154.684719130361,197.887141496607,112.00033088795,144.356649964408,166.289865254461,28.8073675597154,186.015420410033,-105.949465361902,-207.614986555295,-34.3437684891153,-416.44204868594,-234.208777298313,-372.922717556861,-234.84930183131,-222.206661471768,353.254870732143,-267.878117129646,-401.67104420136,25.633004526784,227.474859606036,308.22477515108,-530.399947351328,-327.372680459419,142.67118825305,371.606952288078,-133.589238980376,210.524909407012,270.472011915763,-153.783086503662,-124.049043615697,-119.585311996252,-118.437542749137,-107.303450629144,-85.0703407059585,-110.178692905624,-58.4376837559618,-34.9780760924757,-46.8540117702414,-55.9163130093124,-48.1670651375173,-84.1731104290586,-53.4526423117698,-40.8235018799159,-53.7179685315123,-50.636863382745,-9.29821787214325,-18.989061658191
-62.5594173448528,-84.7375117657347,-57.4601405899793,-80.8943763457909,-91.5391062990307,-23.1049729908906,-58.9211808334991,-101.880255946376,-34.3500809141569,-6.87258437037309,-37.1130583274059,19.0049173543309,-8.70162334426836,-28.6541754183369,21.8845874507332,1.5188821569613,-8.81724852152551,-23.6091790369627,0.378419926750336,-68.6930516541085,-51.6413560529327,-37.0894011864386,-193.835289101231,-55.660598511946,-346.623296919276,-482.498204688832,-219.357665605057,-650.706729773364,-666.741123581254,-477.981816267872,-447.319612379382,-595.954661112628,151.205535505128,-404.625425178882,-289.118291622057,-201.536557262876,-33.2185097728377,103.286394103951,-468.50447581168,-213.982759454236,-37.893664671596,69.3903827685027,-166.257742814261,-51.1059739297218,51.399748346694,-300.205527941174,-266.970078207687,-276.518514458044,-274.709140574917,-268.283444068864,-257.526855180035,-279.6874853207,-245.942521878587,-204.203922059813,-209.72456235189,-226.331141181357,-230.542839009036,-262.078051207276,-238.351208633386,-225.83949722328,-235.020978575376,-224.8164421187,-196.344888781474,-188.613659160318
-235.251574033311,-258.528132306582,-226.770203687741,-258.364738650726,-269.973598426675,-192.830971175234,-232.477983801637,-279.351279547797,-207.913189255788,-192.602632944012,-218.241727736698,-153.31978342552,-190.314391154082,-215.926922658526,-148.98568115506,-185.993858437916,-174.162553676065,-210.992175976622,-188.34749061206,-269.568427140072,-239.282417084161,-261.617431277505,-399.603125542017,-271.701428691615,-591.520124532764,-645.967573201215,-376.196386582651,-797.388783376916,-969.253319325366,-574.98089965631,-609.094114723383,-865.876826794397,10.1568841897619,-568.146193313994,-241.639995414675,-359.860996160947,-220.32628077936,3.81858402472994,-457.751875427041,-114.866752800687,-162.182938630276,-153.93614239362,-152.838551510404,-246.913280059278,-44.3314381454111,-423.990410633708,-368.406978588786,-406.54968400144,-402.309658381357,-395.334386685298,-415.372227177194,-420.174529702786,-419.276728339556,-362.598836486566,-355.240453526098,-370.997015805269,-401.30305913374,-418.311849802907,-412.576454033051,-394.425787783546,-403.425681731273,-381.981824641681,-370.661278980685,-351.167852794975
-412.634884737095,-437.269438950255,-399.317825307885,-434.23588189508,-444.929625837836,-361.308994925363,-407.483455714542,-456.288301257712,-377.918665260299,-373.483215940027,-395.153351689395,-327.076157428349,-367.273368955696,-392.599060698003,-313.13861059771,-364.884186639051,-318.263242211901,-376.449437384754,-360.260858880373,-429.085555794445,-387.731668783013,-401.180559534789,-533.095055080366,-430.427480033774,-728.92831080585,-665.3056731256,-427.457322346361,-775.56362076923,-1059.27411868564,-601.676914220909,-616.599010893445,-940.983592333592,-79.8113855410261,-677.078274076864,-233.044998104605,-399.199493644273,-383.973954076065,-48.6440036428614,-456.273234749779,-32.39370233148,-288.888882497736,-346.879346141536,-163.400750359134,-450.597707343246,-92.1434606253342,-562.488592971731,-500.097569505931,-549.335473233238,-549.331687875369,-544.265431847073,-580.79471429698,-575.064181756569,-587.075362948041,-531.991180947238,-520.939530246644,-534.577721318396,-569.62687148765,-579.114408859955,-580.885371884414,-558.778326066967,-573.418986000906,-545.392853936174,-534.680102743066,-523.695675931244
-590.051749020391,-618.999450493915,-562.536250491546,-606.054552239039,-621.881073536583,-522.800489168346,-577.46913081547,-627.741210831972,-539.784097734898,-542.28615070283,-570.416668147602,-489.292235128537,-532.656119718592,-560.335606189175,-463.264217473269,-526.705380944755,-436.600580212683,-512.105247950954,-525.382679535306,-528.124095345336,-518.975570621284,-441.976222093264,-592.289405443062,-581.140102507297,-716.27826028055,-671.842048825424,-406.330623427006,-671.178677276057,-1062.90404128041,-573.446205197492,-580.116262753661,-956.241227196583,-204.255807775168,-683.973273599866,-295.629660436211,-516.401126924074,-565.350450922516,-167.896171814949,-466.86678516305,-94.3028976228954,-530.033812624879,-545.445504133939,-344.274934300262,-746.885334653601,-206.37584699801,-745.856836713292,-705.049681679402,-732.334572400081,-745.200084406697,-747.506933549665,-765.33828033022,-770.48434824551,-761.271099281771,-720.426405958649,-717.869446405583,-738.844056451612,-740.037368177979,-762.659460319807,-751.367949573352,-734.732202879377,-750.007498725227,-730.895585940209,-703.142463804833,-712.927415320095
-699.678852278308,-729.639501974306,-654.777711975663,-714.989232091372,-738.984368762927,-620.534602890659,-673.856847128928,-740.147735499518,-632.431514027623,-641.356552633519,-686.097647178662,-571.244891919117,-625.319928607531,-668.865731625636,-546.060435997108,-615.911443646279,-489.073650757912,-583.153368680192,-628.433998345919,-549.777850541194,-606.158789231604,-421.721655673449,-585.878813540683,-692.131968193467,-620.921236098287,-712.032421914065,-372.306201825693,-609.200830486214,-1029.41618187979,-550.052451048723,-622.586967463875,-951.138263670189,-343.534312172429,-615.077763164426,-436.757666237679,-784.393268147403,-664.385215440059,-360.232791922406,-504.332194135681,-355.212178592127,-795.955003786884,-697.111120918783,-663.665473439235,-1018.10864081644,-389.59324466386,-969.718657686347,-954.711438340848,-931.775596434023,-963.122572148877,-967.597774759513,-936.186941533629,-975.099522934365,-904.588567642519,-884.55190321281,-898.659067188859,-929.90629602744,-872.225789387009,-931.335230932055,-879.146378917275,-880.129798679216,-890.548691831525,-895.338959308961,-824.787298665289,-865.65966742019
-676.267636881666,-706.189849160001,-628.088958752451,-705.258301759788,-730.813200822944,-605.823650253575,-642.346569285935,-737.80722868394,-601.983328272379,-619.11735604539,-679.921946855067,-525.806114971552,-596.79427055535,-664.398158330246,-513.209740712855,-585.878543086486,-437.806025278364,-554.363236264213,-608.437964689965,-486.859592772725,-590.159786775463,-366.624468145357,-517.97870245173,-667.193702598744,-537.258347047771,-685.560941980127,-358.390388761702,-592.248440983283,-875.923494298668,-567.302885261951,-712.048049377092,-808.286406036342,-407.135145723472,-535.519807790674,-605.373753976239,-971.288189797207,-589.541707287011,-497.435049532827,-565.350875088304,-677.375038261555,-851.287021429515,-721.255128341652,-918.768233950104,-1047.7344761231,-513.115070656985,-1157.27347351752,-1154.71700682728,-1069.25689370136,-1120.76484662152,-1112.43663901559,-1026.64633304662,-1112.8814107308,-955.235234894848,-953.472092367988,-993.209763589631,-1023.34568967375,-913.514295618368,-1019.01012808906,-909.915976075715,-930.115714518511,-942.31713542604,-969.283135303035,-836.278183987981,-913.928140617265
-579.393095234774,-610.211181397754,-541.063779435045,-629.546555181152,-644.557057519746,-538.789707148705,-552.360097086934,-658.802045311155,-516.488813383495,-532.823033674753,-596.594587013589,-432.481566177518,-513.815003961821,-588.9750462435,-428.554417286538,-499.395273218313,-346.933282795734,-476.340546291367,-517.928487409689,-398.154372510967,-503.056285527229,-308.193438252239,-427.727762717822,-535.733774056034,-490.51500115842,-565.933328425639,-359.275585879722,-553.379966964671,-624.979098690764,-600.835223997208,-745.22488836807,-532.168382761255,-377.882952094662,-460.702037482632,-735.736236457936,-874.754780535742,-398.803792076894,-495.156442740586,-616.242259580996,-871.993212342899,-641.174546685133,-604.19681654907,-966.059922108255,-817.158390873962,-490.343227010782,-1159.95030091143,-1168.07481851192,-1040.22785680022,-1110.19410188727,-1089.21518338233,-975.450573870173,-1102.20832436936,-890.861590846303,-890.014636862179,-955.242695426227,-976.327050157768,-854.425089954692,-986.604022958819,-849.810793617858,-874.801788569965,-895.354049277546,-926.344197420331,-758.92447665343,-857.579251107186
-510.562462559218,-534.499573149333,-485.165758090626,-570.884656276302,-567.145785706928,-499.679355433959,-500.236367161117,-581.395411865156,-478.298837694012,-471.261120995904,-523.879892141194,-397.525555044167,-465.498359602065,-521.148994983391,-389.099618225233,-444.519600510864,-310.924599092524,-426.259128895264,-448.519607502719,-346.357168698477,-420.945794903235,-270.966942286475,-353.965091175511,-408.92925881231,-428.519960739524,-419.726154860278,-315.922226766062,-434.742786157098,-378.246582353478,-544.857788467522,-617.466281378713,-271.32476817909,-278.120850202326,-327.632625822234,-713.295076196322,-565.93936693741,-188.697885518398,-376.123867884633,-561.854872038009,-824.356722409966,-329.012958097549,-397.297939331644,-794.622432448261,-483.81631860434,-348.381492381824,-874.983470100369,-901.676301632522,-782.534533962219,-867.467341730456,-861.440458060039,-763.00288683442,-898.464084615748,-723.898110422236,-705.517009907114,-771.220586218203,-790.71785822606,-710.522441483462,-825.431263763162,-729.471407410982,-740.520301775667,-760.335908387154,-775.543518271613,-646.549817449657,-729.264726828351
-443.308952719868,-452.681761417796,-436.416948841979,-496.370941722941,-477.045398956616,-447.938741558888,-449.540438012277,-493.015443419133,-450.733690878797,-409.705835451931,-445.266962244909,-387.263022419927,-416.652622391964,-446.046725429986,-363.462412205142,-389.502432914489,-295.387453262413,-375.27303127733,-380.981522121041,-291.35638468334,-329.181290623816,-217.861612821347,-262.05502809955,-294.575629543056,-285.604963903486,-252.322492068077,-167.732405435368,-201.941454620331,-142.575664172211,-298.780596335623,-281.471492604587,-102.103132343094,-128.647794576548,-98.5344719062824,-433.671273131108,-240.232788337907,-12.2533322637703,-186.411274893273,-322.970361920181,-537.800783673852,-63.0988758237996,-162.984809015247,-490.865412158751,-148.633086497693,-147.577801093184,-422.632185567982,-457.906405374548,-384.333873176861,-476.587939333424,-502.830028043461,-452.376172781913,-558.760978147684,-483.47896362316,-447.349123653206,-479.561378546581,-507.619967798656,-498.866385085522,-562.79198478326,-550.111967994571,-539.764475355273,-546.30429894163,-537.30154631513,-496.300831919413,-531.176527789048
-289.199488477303,-288.87022224528,-303.958290545025,-328.650881476546,-304.754364000796,-304.903979831679,-307.994617846874,-329.995091859006,-327.833288003138,-270.082565797327,-290.766028711083,-294.199335500462,-282.153759743645,-300.477991606359,-256.096867515651,-254.548372044639,-196.200919429006,-248.407267105495,-246.465738149257,-160.037342559127,-178.581117581767,-99.4197640670793,-103.073354712277,-141.903958181707,-68.8560716051282,-46.7470749008512,50.4971204482812,94.0568091935546,92.9888278486075,65.7507520653187,115.134908760172,-11.7491975515729,-29.8810894782771,145.180246733031,-7.10301184795538,-24.6082309994438,46.0213134493557,-2.37877178588196,23.1141793546623,-182.933098755228,89.9061360899633,7.66045780165992,-238.025785279459,123.696026750664,25.9276134925447,-84.6283145828299,-100.976630266728,-57.3557477049282,-145.342949560987,-178.464591892837,-171.913427365506,-240.053973719747,-231.773967195951,-191.045637771931,-185.446967052634,-220.124482863115,-263.204627093565,-283.135264776662,-318.98321491719,-299.44552429252,-294.72723029786,-267.232680995462,-290.527359587404,-283.781007228909
-77.339625770954,-74.5442416920687,-102.9200353643,-108.72470495291,-87.0879444683346,-110.205206874857,-106.612423684928,-123.199226770194,-132.280448781355,-78.1858928615815,-93.2087747842472,-124.954326462236,-89.8069677685449,-113.937118662747,-90.0314703225336,-76.0657935116432,-33.7649094031636,-81.0541076690229,-81.1910929441372,4.84788569241322,-17.7576411396503,46.6002627542316,68.9064261446829,5.06079454316476,120.749108354676,122.223211844717,226.730071315374,312.396621746473,249.671077031276,338.775868550643,310.524077258586,4.76222419816156,-94.5032031090027,285.50358481422,277.10333352932,61.3052334270233,-84.7292481717163,65.191973949219,282.786213984334,26.5762721305723,90.9716993941033,6.21604644592577,-170.384499833242,213.21611008531,73.0784821507832,16.6068966056748,36.284194206138,86.1436537990373,11.9577818991076,2.84627562274832,3.27728484290572,-49.7493765041466,-33.6014806693259,2.00052489112535,20.7220352733301,-14.4460822364852,-60.2604700756277,-70.458182589965,-88.7641204431347,-80.582138216218,-75.4463616230087,-42.9496921028407,-70.0039474249581,-60.2601762509867
69.5925805318186,77.0677337521605,46.9021671186588,42.5158646349106,61.3824318593044,24.782214753918,29.9167420074393,16.0697398316348,4.57845227941194,54.0398362485562,34.6231981772418,3.97368730477838,41.8911366835159,6.11863241895278,15.4163213669162,25.4554415059408,64.7095651638276,12.3057652746325,4.33459032566927,82.1248270895225,53.6049798874443,125.750578406072,142.500612421255,49.3082120382717,188.700666125519,163.771427040311,285.748863026286,369.761151401814,267.861534866292,404.426574882862,246.037067890364,-37.4356037320022,-272.958530310843,290.139717660493,281.22663102441,65.446192984497,-334.385148390144,-20.766860972873,336.735347867595,63.4181580214879,-39.6369519592891,-161.477648241373,-219.047207630362,66.175289143837,-22.659609155505,2.77003755296229,55.8863149390903,118.332960400986,62.2288908246069,70.6819351642797,96.0301435017909,38.7863843301483,87.3631981223545,116.49387195167,133.224003104376,96.0130094733593,76.4260824751737,54.6486443694677,72.4855667861957,66.7947733053622,63.9077425202451,90.7611239634993,90.9102378796407,78.2079194802439
104.771984318873,119.148062050679,87.2482336922795,86.8429803697476,99.5935466968649,65.6058539304384,55.9947538835227,48.797824803965,29.9402968846766,78.6820393512313,54.1602260276591,32.8660733944793,60.8427459727425,21.1291442771181,18.1654478433624,16.469521466708,52.8719873292361,-0.13510348327897,-18.8829533706725,44.1896708547063,24.1221452370463,105.099692380174,101.355026797764,-9.19019718258129,146.609875568194,106.715678921746,228.94935696713,328.893956927222,210.419256810122,328.393227138127,133.589583378424,-91.2643548586275,-425.939190752217,192.576816431198,161.51399748898,53.3265524513924,-551.876481357533,-179.172246687036,249.738331791846,60.3025856503217,-209.714960286917,-341.999683909872,-252.60701356901,-206.931900843895,-184.110682394199,13.8160615878761,81.6209364908294,144.472426680763,101.015714439002,102.048379887702,149.70348703333,90.9267475102426,146.685942468915,171.988756820785,188.587756046519,149.233493404034,144.760691697833,115.347244789478,145.206781068358,141.833115690677,125.796767573387,147.909718752161,162.677660604133,138.610640816735
104.221783790543,118.133438199518,83.0141323810503,99.2823203068166,100.718352499177,70.8037721140874,48.172272797528,53.7199025490325,19.5895371518843,62.7418046088406,44.7230844793476,19.0303680059867,38.9171975457229,11.2909342508959,-4.080207033888,-8.80214017743013,10.308372304875,-30.164365433467,-54.9479926146318,-6.36595593825418,-13.925934082449,50.3540917179014,48.1792049376316,-59.9793286289083,90.7821803994077,74.3119958348248,119.178476725741,303.647576753899,201.669514096279,250.834940969904,174.18553061195,-89.1659481947511,-480.591035681799,63.2797684916376,149.464202457652,100.47268609446,-616.792344632073,-278.721397484579,213.599695804416,130.182800796225,-297.390601122532,-384.028574082219,-202.086389473096,-386.075978174776,-294.034565579207,120.359940797988,173.754519010094,231.037837761309,185.348863673989,169.11446147485,213.112633375447,161.550272986521,196.130691356232,223.948925509502,241.506816803253,208.321638374806,189.095786694633,167.106547305661,183.842162181636,192.080267527626,166.97214319238,195.583150130848,189.9654303841,183.813154902769
128.384619894267,138.772294113726,94.8245850961245,135.344345677711,129.547998667588,81.2948499891909,68.35355342046,92.7586672807918,32.3665561775077,71.334791499222,76.1229710175635,19.0728812287715,48.5666958245977,44.3874637064798,7.56873392433682,16.4099779664865,3.80437059017953,-7.90380478305458,-24.6274031265148,5.47949016445863,7.01550381133493,30.8365888137894,56.2344767738778,-28.5341433067827,88.1814153188647,120.694229460231,55.6369873734907,314.134112626148,282.089076876748,253.095586907556,330.499661130859,11.7297952370714,-408.277694716754,9.06389558101965,277.315814898427,233.864249270511,-490.020004225305,-245.201952026651,318.554526447963,271.673089589602,-238.498170148482,-275.093510914726,-32.1399054459856,-306.371324576817,-267.999524555926,325.518776532341,358.354958629237,391.737554595353,337.759896573635,314.287761179695,317.415324961618,284.399549477904,266.029049314186,309.735690430564,333.819414002349,312.061102326314,250.555548595019,256.544791849524,231.950037449789,251.914282131674,235.38765926609,280.840600090084,217.891097742398,250.636446955221
136.016921424414,151.140091402774,94.2822304291516,156.390175470713,152.028987410217,78.4971890827624,79.9200569708884,120.205578070021,33.4362626886639,78.3983915519342,107.829885607611,12.5273736416304,61.199698471607,74.9269559063975,14.9988919046648,37.2932951496555,7.71641038462193,22.5697950612366,17.9753588532544,31.3599326408996,42.3238093999648,38.7051308974612,74.6505871725286,22.254417750112,114.479999139672,154.893125502176,97.4564776706555,283.125011570296,329.214295590995,300.098695603273,398.104951576584,115.609117322833,-249.294905266666,69.824687429993,365.355363764583,323.683366578077,-299.617532546076,-169.759748901694,408.488398664762,352.330381630556,-143.9264670499,-160.114052101053,150.263639142715,-72.3556820433811,-182.923132054966,473.994682111938,518.354158421496,501.362285294212,453.458753962973,441.310872898908,379.099592645048,379.728979321682,291.054102142834,357.441559258967,398.222209757289,387.639306578079,278.331930505982,326.768590720701,245.298880134031,279.075517257864,281.096202850047,341.711093283816,220.918546777039,286.130416030786
87.7009552951532,106.346477417704,52.1191697388834,119.755438441903,113.886198847227,51.0812448948151,41.754014048437,81.7079144230092,-3.85578592037631,40.0764093677452,73.0821725283629,-23.4058871734772,26.2150647796649,39.0386619720001,-21.2358081949388,-7.60782324274049,-18.0852776863338,-4.44697476631987,-16.1160400493574,9.64825327576655,16.669485105057,38.9501000572755,35.0108424537975,-15.879674991617,126.890104139105,84.3515492360953,209.192262460115,194.627678556114,198.940834795993,333.221671621759,260.977748473843,37.2163390398401,-177.098951045909,162.520326840285,290.981690294469,194.350324442551,-271.451934395029,-243.504832652648,319.894928873873,251.716283302785,-205.685737559081,-213.858674582456,122.857989255931,12.1830232911356,-236.193598721737,374.444876929425,448.127964712847,396.331460236484,369.874298919406,378.80326323375,281.200481990013,310.286412819831,199.174015587389,269.414680607245,319.792291960581,320.241597254645,201.862591028196,276.488396495009,177.837066532232,217.387205918138,219.848610648127,281.737380369917,161.324072561079,225.789432335449
19.9797305761574,28.7264680357435,-1.55414324896842,51.4247300383493,33.1311423630508,14.3158170865565,-19.0545160901199,4.25014640047469,-51.1048908369072,-29.3988843631744,-11.6694281750482,-69.2390511033899,-40.9594132194169,-41.5716261978056,-79.8893374485679,-92.4084573673584,-67.9240426269296,-76.2951320554355,-116.079605652753,-46.1738778921529,-67.7330758040004,23.0146178069686,-41.3742030643734,-146.812253917692,127.078880052335,-42.332478661956,290.91920005452,151.190069661943,-55.9253475731555,367.947126734614,29.563462342958,-232.72754636729,-317.159119215661,195.546803743628,157.785553247161,-115.710734744184,-447.006599570823,-501.050731631648,134.835928757545,46.4780821692142,-420.414767285484,-435.085880722006,-117.803937905078,-165.658220484609,-472.696438457374,93.4714002892808,163.867390529206,136.47507543899,126.053608647773,147.247906868855,81.6436179018096,108.233352781754,51.3574909872241,99.4005103874995,138.177188936255,141.832164080181,73.4430727478272,134.911977345956,78.1287835104617,104.569514213615,84.4182013589954,133.579769964341,72.5863038587914,107.600532789881
-23.7594830310718,-23.8390852371205,-37.5030962249667,1.42185828269203,-30.9827952705816,-20.6490777638021,-61.4549328258903,-55.7757110649981,-87.8351754234732,-88.3980188351787,-80.1541156093282,-108.28437060392,-95.3842411404871,-105.568554148641,-129.87859996986,-159.309871169173,-119.383372390812,-138.56743905751,-199.930332548449,-99.0743466361742,-142.842902664514,-11.2185924337774,-92.2756873205676,-260.9117286266,127.388911783168,-104.70785603638,264.968747490989,221.063475997159,-214.22328509218,430.121457875884,-92.7696923219219,-455.965270868072,-545.922309178914,165.132629162045,125.462609052187,-363.240494266494,-607.131407843064,-741.024132632364,32.1757905901674,-71.9178994470922,-567.576363625718,-624.252761917701,-308.129642106897,-373.293957178398,-697.5212741909,-97.2101276145767,-59.7345515167048,-31.9105447701825,-42.2231607729267,-23.1345500356476,-32.2562354084307,-25.6940709755222,-21.2173840248284,6.79284069784667,27.844126453206,20.913440364799,12.6323501365285,45.5581376008285,29.4533508337819,40.4608189314467,3.46894467010921,40.1207760836311,25.5417546926267,36.2209197757159
-40.7787542338008,-32.4233025795701,-57.3151978770143,-11.1772036968145,-47.8651647856392,-44.3372067435925,-75.9171099491563,-74.976222393724,-111.274468781636,-112.156234204382,-97.7654271960554,-139.411959500967,-117.96855395174,-125.08347593821,-158.196832558787,-180.765017477172,-157.942500618088,-157.403160813271,-211.222095498565,-128.387388719481,-150.169476183321,-59.6496356005901,-88.4179729040692,-254.531127475561,131.444899671543,-48.5084832669078,163.559882538803,347.634669568344,-125.468642422705,495.673107481263,-20.1261371543112,-409.052391248683,-629.842512352869,132.384990796353,208.712803928395,-370.591115831527,-538.681221108188,-766.575332427079,66.656577892896,-19.3080644987925,-485.639263851632,-608.77273547933,-276.705379960937,-337.86142373981,-721.532337957633,-63.5782554303412,-28.5137343108432,14.1974541281857,2.09348166680499,13.9656151353044,12.5360100172552,20.8899405247974,16.2163983670963,50.1985360077303,71.0024100226253,54.9923028930284,46.7615949379033,82.1800315710385,51.6711411046425,64.6260723681886,35.6475492352197,76.8604228782038,42.6245893052065,59.0962849321767
-37.2498954478936,-13.499014984787,-61.4451520026275,2.08230490908216,-28.9254508062183,-47.2082182482925,-68.6403113106188,-58.7135036927742,-112.842080167179,-101.930271002628,-75.2361724530383,-155.832175849592,-114.24192473936,-105.345168960227,-158.511762050224,-159.347429359545,-175.536169700667,-130.121825738086,-157.551972405902,-122.701187676829,-89.0604356006169,-95.3917824739764,-41.1879667570029,-131.205342760995,148.430339958025,85.5065026206452,100.370653337086,438.381928386536,150.83768502916,543.363414684826,161.337163316056,-113.202542212834,-502.83837505625,160.991241308285,313.744358878019,-183.115710086427,-262.3901774347,-606.24120379025,194.450895490761,123.088915930501,-238.521814873233,-434.939055949421,-114.409338885837,-79.1329811123491,-572.897378030735,94.6576907408012,174.218366190635,177.423799575063,174.140376882154,179.857223037621,127.986134846668,170.32977476568,96.6380146884481,152.705593288734,191.277393644162,183.599452568372,114.656866514332,189.460823266678,105.912828033791,132.244859405049,122.989809736765,184.960750510221,90.1259877961915,135.671344483862
-18.0296475038581,12.6981734191704,-50.0726753140793,19.5033790398019,-5.31777430656313,-35.8999115416916,-51.042295422497,-25.9491989005393,-94.6770453877134,-81.6514343676119,-44.4758594866865,-152.771627478921,-97.4760012568624,-70.3100857316034,-138.620609347603,-117.302703053181,-170.739782445401,-85.0932226870275,-94.5635278807311,-92.2043571531265,-15.0415690193509,-102.483599868196,6.59127931894249,7.89402473032348,165.527984967981,205.982728456025,121.73862396189,443.74154382381,423.660529071058,559.653005109126,289.581514092915,212.561407244875,-315.462418261253,255.785515760208,353.086941324519,7.67727921692618,11.6125339981671,-465.070639824896,347.301661797194,202.415463139652,-23.4245165926203,-310.303478453342,0.303520597711033,124.394640745588,-446.40041390508,224.424436444726,331.620942167264,303.573587118037,308.834893616944,310.654267447543,211.764033163061,285.788154171446,157.066567121692,225.747257845591,278.186528008622,285.294372925262,164.907129446313,271.630039489083,147.498200750302,182.685380153015,184.057137437105,261.556289323555,126.751029878261,197.852279959793
-11.4661735721349,18.6940884424363,-48.6756412452826,15.1217664947565,-10.2828477500557,-36.0093307792491,-48.0253039542699,-9.38123626345506,-85.3318338172054,-86.6669088417594,-45.0475017307869,-150.028772346444,-93.1601162367525,-64.6279555675759,-130.759872247889,-98.3142972543613,-158.763623013989,-73.1264654988133,-82.3632285768325,-79.0886782347072,3.30330108599533,-111.561045362804,0.276869451903268,64.0755588449263,125.743171460716,233.235830959565,143.580220572878,355.088203153678,555.12177030993,493.231521381218,276.453731359662,378.505364128823,-239.747904070627,341.840718090424,286.773492459304,66.0651611053296,97.2823175159044,-483.27587602349,431.538570386593,141.043259946626,28.8253447339453,-351.271567832603,-2.75394996373006,73.6874815690754,-474.320748890061,250.576613351713,325.502000990331,315.698657010226,313.284351396955,315.54051879203,220.95000975189,292.686062261706,164.943248630901,227.229888569092,276.554733796578,285.254550720802,168.249941019043,269.508639229726,142.898295934414,176.356050791323,175.727413179644,250.007779629266,121.844774604486,195.337979354367
-41.9508722151164,-15.0849526913051,-79.1603883495314,-21.9901762005395,-49.5062034678631,-63.6282634752998,-75.4831991320218,-28.7531478973586,-109.441304812598,-128.50516488943,-91.8266489403918,-171.251198970566,-122.92626914307,-110.406636109942,-158.096508038724,-132.472788866316,-163.836377582878,-116.48438913954,-128.824619822542,-115.550476183801,-48.0706310692834,-158.848281492834,-73.212531877575,32.8532626777215,-4.13476734335094,169.065071657478,73.2933328739137,199.281915809867,568.462184741177,309.726044735652,186.193130337139,396.024728498729,-283.978205593702,339.72256696258,136.377407644082,63.3680860560612,0.68067555955929,-577.086800981597,373.378785382129,33.9802362994319,-19.8823919089505,-455.976043190616,-35.3986024370982,-127.857659568776,-570.555653689074,201.046671596302,225.34112994432,248.00001990236,226.224645497249,232.574198840828,169.777936276412,219.956336185106,117.342885250011,167.445449670809,208.044533402157,206.22967726471,119.260216135857,201.495176346973,90.8211975406891,115.980043732408,111.586315951695,175.563006194542,71.5973262502148,130.693905914697
-87.4123780491218,-67.7991187679087,-120.340305642223,-69.389213900269,-93.6937163022795,-101.611773336744,-116.657707894263,-65.4503951827132,-151.062253784204,-177.138995806055,-152.437028672771,-205.323314919648,-170.965744000236,-171.094167878384,-201.442662729268,-193.01232665154,-189.338162384448,-181.370248335491,-191.631826819295,-184.170475134374,-122.432923249773,-238.727013051641,-176.512977877117,-28.0577384493016,-183.363995459386,71.1989315023651,-87.427638089962,10.1845579277382,544.151227272277,43.2447165395059,115.600978243662,386.18717726543,-345.229898933118,239.960396985808,-49.1451643445989,150.531730809727,-142.106139879088,-600.201264844086,180.775692513871,16.4024726637008,-31.7451310148351,-506.173686263942,23.4450657838547,-272.240179518646,-590.248803947196,146.009000004758,152.299658514642,178.449143123928,146.051798490736,155.69581049295,105.221431611436,147.89534354409,53.0670595906772,97.0417247578445,135.023587206878,123.386904593385,54.4345424767929,132.398436767363,31.0350930019216,47.8104549501237,43.0014730008405,103.519893505349,10.5073006504569,57.5259176025501
-121.890564649243,-111.287687563417,-144.926782960625,-106.465567600693,-127.099017927899,-128.269789629183,-152.251974022114,-99.7472378163027,-180.221679775686,-209.971315852773,-196.671911213621,-228.323932814053,-209.218316205315,-212.654650201308,-235.868796024442,-242.01966311306,-221.715034204044,-236.637645607405,-248.304626362209,-257.312366330292,-194.96020346501,-332.001513041407,-287.980524651548,-101.668847209587,-367.439620241703,-47.3756409862729,-295.631599369491,-210.533104040929,467.406067896257,-263.302136917576,46.0519409356667,370.053111881991,-374.200182493434,71.7908098860356,-249.787058978635,300.553293834136,-239.758998182478,-568.484875082493,-69.323467152896,67.1511869624099,-10.9753161502032,-536.582074243515,155.628312051427,-332.728985570334,-558.342021713013,90.2638899235646,105.217471744551,113.640198915495,92.1004585658094,99.2394392258983,42.5455796921305,93.897995355846,-2.40283015359439,37.4936534495437,72.0863829966257,56.3180693032838,-1.25887662086331,76.4782865425759,-14.3255041393403,-4.00513671986257,-11.529077420134,47.5695155643904,-37.741784271045,2.87673518180468
-153.660785509597,-145.145590025373,-157.13273818966,-136.685439167582,-159.49853326189,-144.082031313813,-178.427733416426,-135.825549808935,-193.761712354087,-238.725278262887,-231.675108761349,-237.590652677374,-235.292485825359,-245.265001821003,-261.474297985694,-282.740872885181,-254.07062712399,-287.509705694617,-306.171187155543,-330.810333759661,-279.424754491262,-421.914268054985,-407.452959416987,-204.805729253422,-548.16115518709,-196.087356419411,-507.321462405953,-451.992342552919,288.595053209721,-577.335004632415,-68.7514048215605,282.208496482788,-381.866413504534,-123.451264121204,-428.132196438645,338.001761525982,-283.944920463149,-571.959923019433,-261.999330088443,95.0345058260469,-79.1243963055114,-600.232259901495,241.487285930968,-399.619256477582,-575.871988179642,-6.47291611185138,14.3983638117199,12.1615529379465,12.8704865411248,12.7126780372867,-37.7288790981371,16.7422340693204,-66.5856340019783,-34.8355808151305,-10.9421338093177,-26.0120479904588,-62.2776724978532,3.20969485879534,-60.438227725509,-57.5892642194388,-70.5571149994847,-21.0904943892644,-83.5827574256103,-54.0169293639547
-184.062898082434,-170.590512269644,-166.651471861085,-159.090683299914,-188.604370902839,-153.134824682778,-190.852654582531,-168.726728507751,-201.11263878525,-267.521107810471,-266.7388352997,-238.334195623659,-254.293537682126,-275.418735323694,-276.86183769179,-320.273057418114,-275.317319090629,-330.428567516377,-356.186645111504,-384.758223870596,-359.102431076971,-470.88266068386,-499.921641656937,-313.385582344348,-687.861753008267,-327.433534320327,-635.503573910785,-641.902067564813,49.854358091311,-818.845945153639,-174.037788524196,128.570868404501,-383.911038391031,-259.05251284221,-487.314646699727,177.781566110423,-309.608299813323,-616.687848863913,-294.833615720023,107.996355468625,-278.658405129009,-673.223161391617,228.685857689968,-497.77689593722,-645.698507904908,-129.024833629361,-113.775228815822,-112.508419849385,-98.8691928061039,-99.7603735740148,-128.210386120343,-83.08919966387,-140.806512816539,-121.135074574998,-105.625784737232,-120.022736934165,-129.261710250849,-80.0508894131209,-107.266996446116,-113.706666239444,-130.343489592815,-97.6343795320703,-127.650210100572,-115.894122106931
-196.2703986426,-181.160308476902,-171.754954975485,-167.498412781718,-203.574480412765,-152.747609313629,-193.868869300356,-181.077412047655,-202.107145339352,-280.974499131811,-291.969057630566,-231.841465817548,-261.895133594108,-288.292709008457,-272.851561481881,-334.771021775329,-265.587666212445,-342.418967156539,-380.547310732721,-379.02544955194,-392.433120234696,-445.012642144659,-516.482855810374,-380.38169587862,-705.703160229038,-381.044493686935,-590.991765869516,-684.902597107107,-149.861941636109,-865.20944967138,-197.333840454164,-4.11265099045073,-425.186749108162,-244.61231594978,-361.119440460327,-89.164125856742,-373.837569049974,-679.856848755259,-158.881463149551,162.31297648682,-507.980647467748,-751.106553944138,164.178269109012,-596.386359892645,-728.47228080153,-218.938762200627,-212.430571590288,-204.710647792466,-191.612179380305,-184.294460190226,-193.771727989002,-158.63174189758,-192.636783951539,-187.203716490212,-171.256001076024,-191.841275865956,-173.935690978457,-136.952886886534,-134.580426806561,-147.316715558287,-168.568615921882,-151.921710315832,-152.6907665066,-156.895706515149
-190.554062137047,-179.85103638926,-170.618988767799,-166.831117388988,-205.211650972214,-143.781341699174,-199.361962194707,-174.665320732683,-192.801648123404,-273.816530308592,-295.191394815555,-220.818891301378,-256.145511752975,-280.436163149574,-253.089808168506,-317.40209509449,-228.049356517812,-319.824060579663,-375.035800891262,-312.763744271177,-372.157121377326,-359.269313266324,-451.527068061886,-390.330875307468,-570.597165030194,-346.542647172172,-406.368881806549,-541.9996626031,-236.36325708287,-664.931922675666,-142.493249447857,-52.8001833698421,-536.324349021695,-104.247429654713,-89.9394960384582,-290.704525542681,-483.970557887703,-754.01026547502,62.1588342443091,269.590296097389,-616.689156441704,-846.692408594197,118.371311729719,-660.641692745193,-805.038782265447,-242.849166575386,-239.69073596874,-232.593021979124,-221.077774887849,-213.766380658628,-210.298060533394,-179.74986344251,-200.722352521757,-208.091635426335,-192.534267795536,-221.607712076577,-177.631875338627,-150.878786860308,-135.301085355952,-149.773493523254,-177.807833450268,-170.362744571363,-153.624691879855,-165.849400844767
-172.926525692722,-164.326874547067,-157.560166333063,-152.373442207434,-188.218072316467,-123.819386556578,-192.025748892585,-156.922605193423,-168.890025888117,-248.005824667281,-268.00986095161,-201.480160760924,-235.187070355558,-254.539335915095,-223.872661074916,-277.250607373194,-189.136374504688,-275.675121199722,-335.12965353003,-230.496518804016,-315.907618471799,-267.215176775248,-334.621519983829,-346.58380624058,-356.105750362421,-235.917133270634,-231.192159970485,-267.583580031874,-173.904548875545,-334.048606362959,-27.1911553117638,-4.12528606115454,-634.111197341583,9.71970651159707,225.868004060036,-294.479101486633,-543.315816690579,-773.760349169337,269.268728186912,414.267433315457,-517.947024160326,-881.860591745232,145.240958700072,-632.600713761344,-810.158114216852,-197.224679795023,-189.001063856644,-192.150186780812,-177.544294856337,-181.973771004829,-170.3697508784,-140.726344598232,-164.410466510813,-177.542240460638,-167.420761985343,-195.322880636167,-142.516111242057,-116.4628101217,-107.518198324141,-124.554993145604,-152.161853640017,-145.476284569639,-131.133309066381,-142.764827800411
-131.361445102097,-115.458305631566,-118.7300730424,-104.268472863629,-133.893367253819,-80.9053206951477,-141.585652635806,-111.694095905993,-123.045879599929,-195.878487455118,-202.510811129802,-158.965139416525,-187.25023941098,-196.66782174703,-177.005130153793,-213.778956259676,-154.470028115074,-208.320249858767,-254.425732821556,-160.713880239641,-230.588407282627,-204.962623235116,-197.717947674649,-246.030647883368,-164.340738135695,-57.5440374077152,-164.504054482711,35.7502665544905,30.063924645071,-59.6807721380324,151.792941853394,150.641313926828,-586.149898130995,-23.4011115399185,497.022785905226,-88.7347305573953,-443.589483826159,-648.497662908217,393.513009228795,566.996437589799,-245.323822205803,-739.535543379356,257.927726312527,-465.80379364735,-659.66922497689,-94.4586810914599,-73.8121599975303,-93.5069896323924,-73.9979860759166,-80.0991489980935,-80.2267388053245,-42.2843599099204,-86.4271398157868,-97.0189946329769,-86.8696831354136,-102.213814631569,-72.8228827317866,-29.3234535784126,-41.2339091610059,-61.6661869211351,-77.2854836789408,-67.5451422904985,-74.1345800413142,-77.4182811914086
-59.9810397729422,-29.7409410837611,-50.5197035338434,-21.9692431612027,-41.2929946548503,-13.4279725446096,-54.7918225902743,-28.0952672839018,-53.3851371200216,-114.223148437191,-102.725313582366,-88.0544643542662,-106.00416532147,-99.2276322257798,-106.517663969151,-123.208286757628,-102.99770046941,-112.348066768526,-141.14951109022,-90.5236846025538,-120.526546178924,-152.34684218326,-61.4368935456231,-97.699298203192,-21.5036617755176,157.226501242043,-158.191647933568,291.54870773024,316.557716315102,91.8225405227494,352.557356692843,402.094708680913,-380.528682172058,-128.737686760038,650.617558418521,212.313389883518,-198.291277131666,-402.301861885578,418.811913852253,657.174327200338,64.6901654014416,-436.601160262253,396.604712177469,-211.729990171542,-389.357218641566,32.5118097219488,66.0162731864796,32.1233057997858,57.0277433525205,66.5155439217861,35.9915691400956,91.5882507228203,21.2426552480526,14.3573088417242,30.3261098795199,32.5783418750214,27.4470501045344,90.5725865065998,59.7201902732569,42.357754875762,37.8124960985108,47.999222031386,20.2746347193347,26.0372052274909
27.418074251333,70.0259531023617,34.6373510937201,73.3338601830029,66.9491692745581,65.9971091038099,37.0183278934067,70.7166191077384,33.0599712380302,-13.3254236898586,13.2547428858256,-0.9917896983551,-4.11255224324404,20.1463592274966,-19.1799138814295,-16.0918257244323,-24.4126503419005,-0.471712200208934,-14.163247947719,-0.0603533374618377,1.89396725630371,-62.9264927994461,69.8539403049743,63.8792245269362,111.467432090004,346.53828760544,-119.796823191104,461.613656101449,601.026616540383,176.050498656192,501.24609618723,682.334442836326,-135.069164583986,-123.417377003869,638.040019768311,472.912049321873,80.4170524320907,-165.218999441171,395.512414173249,613.447375329749,283.401448100318,-123.411073333829,477.274799396535,16.3160849347152,-141.416785696887,148.765193122104,182.528756629634,146.534175218111,174.520815666311,197.075558682506,151.253075541001,215.544695671227,135.433752016459,125.665938900928,139.880641960879,158.209258501658,144.292567840263,205.269629718482,171.563554442458,161.714932276552,158.06639939141,162.804364974639,131.701777227427,136.054184196388
124.10953881933,171.289543623935,131.896257095453,173.341690094642,177.768273706047,156.791759059933,131.865542180107,165.666490949754,132.366129154939,100.359330258152,133.166712572924,96.9264961201048,107.203803175081,143.940231352367,81.0974790520723,99.3101839734995,69.944878562071,115.724671327066,115.244091842289,107.684255524835,127.35482222016,68.0437587825182,196.506570579495,208.737586846094,249.714603597765,462.968555611448,-41.2203062454338,526.59500255223,813.777692345217,225.388381460092,586.240368913486,899.959815190728,52.9745966833152,8.65707444525662,515.107361276041,646.449854779674,310.641187733049,-13.3074427884852,391.777156493925,473.091747352443,389.233320148129,102.276428042135,493.743337224934,171.007002304665,7.03342792984688,242.583467902578,260.726857509756,236.398053164213,263.897682337354,285.970515818636,255.220885418508,310.746928525929,242.863784630582,223.790560828383,229.98523923937,255.665651197071,258.481185066601,300.639597020759,279.115615675909,270.70927324276,266.298753962866,260.423519171403,240.504947905137,235.265624402703
241.61317015807,285.284166340746,251.146240633052,290.927925557418,297.927222942801,272.894279869832,251.095299848611,274.150933066065,249.420504566521,229.51753979773,261.600457189127,214.414994364031,234.347233150211,272.07365139213,196.678667235182,228.736676843291,168.706198715613,240.230531722281,248.650252091995,215.319637128467,254.180057767435,194.762488265124,311.06361073559,339.352621146797,367.6505369715,520.173957091602,37.1548515342674,513.598546001545,926.437541293239,244.968733891461,654.277932278717,1001.68640733701,188.884686052936,108.932548637433,437.640063055676,756.686468047327,488.694082890577,95.4359843938023,424.485850376429,380.449941510746,441.044845524746,273.773783542199,514.077398739995,293.167394948873,106.966538307413,328.402282573543,332.665226247606,321.545791433326,351.682828512921,371.08257485784,357.855616717431,406.670564988498,352.362986713574,323.426262635302,329.647794997001,352.719041672302,366.664117311351,398.23625556063,392.346603966051,379.629798505281,377.7911948039,364.316417163896,351.184861386566,345.250279698939
377.808261206482,414.149129255442,385.375496015142,426.820657651494,427.814919702824,405.640470471097,389.465070990609,408.583779073732,379.519716225151,365.09240628895,400.938824756812,344.175798091705,373.415069754991,405.246223153461,319.911093178688,365.65851239323,265.68591742779,366.443046564883,382.927213634455,309.652538777164,374.207974505841,280.594589824807,404.180732006545,464.46619489946,446.909218665983,570.320323789316,116.898035566388,497.295226925091,949.267037410843,285.849580676389,717.318394505123,985.722301230231,316.515639065332,136.856974160777,475.628717670531,825.696683984479,642.975471345687,229.21094053101,465.589430319796,420.742843963299,512.084845306561,451.980317116302,595.085070832071,448.138787458832,236.164435709744,440.938947311037,448.4945489152,434.914162495797,474.768785311895,496.140120286247,478.505831766525,538.768322153931,475.892257525471,446.31334830991,459.665943007441,479.16610298514,484.39383129094,521.49624642206,521.509800016772,508.121250751039,506.051429144718,498.536816366921,474.3859384315,483.158363257926
489.892365674057,524.363124146862,492.289966764218,538.586033723093,538.387761060329,504.346213744228,501.766955423486,526.828873889754,488.302617142594,473.759961552095,521.242571982744,447.965027535068,483.807260556748,519.399043956094,420.9741144168,473.755351364171,341.726388549176,459.465239567225,490.045201999047,375.978151933997,457.35789288093,326.568438975857,462.673759690293,556.986757522683,476.106604066561,617.83258807,200.856142121108,506.790679612552,891.456338784828,368.19903676126,727.975863280094,878.368039003039,430.309340877517,207.390909603658,529.849375793163,864.250587858527,773.253551779134,381.040297865485,493.157720917937,526.770928352142,645.182550889605,633.440079564299,747.289304044727,669.852711449879,390.49918409297,597.328459375003,612.266889898578,577.53406627757,627.142363403021,646.768710993229,609.748766958984,687.726846338487,597.742838790772,581.715648050849,597.653374646814,618.145241338196,604.123539412588,650.92943376228,638.315710538107,630.399816829468,627.77486966729,634.797642523822,589.0955052878,612.692475460313
534.826129504647,576.043386550323,536.692107193735,577.124972761385,589.797488441216,526.299276956953,547.473587832025,572.910071680612,539.653710235004,526.375096591886,579.233850901995,495.40497923592,527.041954332704,575.88008937151,469.920016588759,521.312450215419,378.010055523416,491.684622831118,537.349068456895,400.254674680103,476.253623980817,344.035582712971,470.929573424128,577.076421950606,441.788939296949,604.502472631081,239.129746689487,487.772441986372,748.054886737817,414.016311497573,656.842861987641,712.959395006961,479.193088359662,331.920186196921,502.004309517782,879.436179624823,832.149241109432,474.547153289078,496.642298551602,589.641747321947,805.146862080969,757.775174165429,929.642660747367,899.426944254959,484.882231136489,745.782115243792,749.912098821476,691.56316647241,742.093829484742,754.383302160604,699.5723548857,780.849562252243,677.688777369787,676.023518327435,687.695709115631,706.865447211107,677.417812246361,723.941884077509,691.145878052647,688.834295579888,694.13310227684,705.510420467021,649.948850877807,673.827909674677
524.693538987592,570.291735139463,533.036253268735,553.33357166062,577.88879234907,495.389505573058,536.820766131494,552.963403128113,541.954234223945,530.443116552413,574.454793645279,501.264455395018,518.689328157114,570.068200798353,474.13017339108,520.280378706545,388.760441032936,481.34470106458,528.862370061763,396.414965373554,448.766178263574,339.969803743078,438.50470782627,530.492736941899,365.522743471733,509.951065602529,207.951079955523,400.475255108237,544.689893345605,360.885710762926,544.752138883682,529.397390583921,438.806816590013,394.99769738614,415.411910302,846.942843467416,777.698013872773,468.608734212776,463.244150777275,572.19889062104,888.115843576489,770.682681768792,1036.16828812801,996.319171382185,468.208038178995,787.275691262586,767.678383874271,702.149138755407,745.513846301254,754.589937512264,698.308645694823,763.913567686124,685.048893851801,682.457671899195,683.879801808986,696.467288969153,670.109473602573,698.427949419208,664.163384003821,659.916049862697,681.075620249389,679.348697356628,637.194604130024,651.383439263435
497.580626183068,536.276090999005,512.763108345195,515.836981190678,535.035596713085,467.481083297861,509.681337846438,516.264969055577,526.846396869664,511.465588116325,541.926513572166,496.115450261837,500.384410153716,537.318568817894,464.221123156992,503.739045648084,396.189488334937,463.385897709918,497.222376222081,391.627215999134,416.533985591092,326.481803035524,400.949984585358,462.372689450375,302.139581181044,397.170204433849,167.716712432593,284.940559139796,348.403916116277,257.586276558797,454.020484346569,370.508467498111,348.625209721433,363.429447221778,343.680130302623,709.919134712845,629.175814838045,420.930645791302,403.027245746917,507.80219717782,813.69062575674,683.061317833045,956.616923380811,878.10061229428,401.515816307306,670.560876297845,638.477406169291,586.583584258282,624.45479862806,637.097169441397,605.967982717734,647.833840369448,619.660356469491,602.127200521483,586.493983771961,599.609838975456,598.901228484344,597.518793797033,590.080033474898,574.024552532787,608.912439281376,587.242939154702,573.772230766907,576.940343460712
458.547075327905,483.302603577717,476.760652450732,475.320372555748,479.069456889464,450.833842706099,477.595255192234,481.270946753768,496.479442559865,475.625044692149,495.802221753218,479.407313340424,478.182916843726,498.287085577055,447.811804815541,478.039522291641,388.740221283677,443.076010809959,460.635778159211,382.587010422504,389.094124757125,315.804629287142,374.35048508586,402.883004453249,277.916354901865,326.921277494688,177.267932473299,201.32508581867,210.325779981356,188.431287715918,400.385337316052,268.184840791189,289.86771271566,297.745417679093,331.384453943719,462.459013713758,466.706487576174,417.454667661567,347.100794342216,452.695480360577,614.453910692848,573.774536834117,705.902401585648,618.479643948437,382.138283338213,456.863651336964,428.235515351422,399.587649315073,438.567163337276,452.898703860205,463.985275523413,486.30882987994,508.858119279686,471.072644512641,437.581475906241,464.391602027114,496.64168772547,470.33953127792,504.375919392508,472.261654693338,508.210023852414,471.126702311365,489.746206569486,476.965434602603
389.6833309506,399.315827886971,409.774763211482,405.917774998242,398.948608742642,406.303333186938,418.261982850746,426.481793476498,431.904971043087,411.505697976415,425.382135087161,429.504466551784,427.318129318888,439.587277045023,408.612794713981,426.676360796429,342.629838371446,402.707906596081,413.112067968098,345.106162139078,345.537891365598,301.07387633936,336.844879123725,349.504487000441,264.298987038715,284.406113185977,210.753400285675,154.784862632822,118.258743509572,161.204162735875,341.350398178177,226.070012080213,340.486209627849,218.49562339498,351.650339466979,200.558792362752,392.33007418692,483.743305291358,291.80812700169,401.285014838197,409.768033799166,540.525183620646,432.482919138998,374.30019218792,444.373201957185,273.004168446925,243.091133228941,231.822971335122,273.032266860354,278.912622007303,324.56116646653,335.988774996054,389.791602497456,334.369000769364,290.537777461651,326.656584362091,381.473893958689,341.994206027068,412.749885593412,369.039313739422,394.624616748978,347.845521027144,394.594864368869,359.529573133225
294.364399716855,291.326503042336,316.458099753516,304.634517109384,296.721429461738,317.552309085047,326.009102356155,341.035545443546,338.169649738479,322.365643496762,333.489414756389,347.799822745795,341.79930081377,357.864916515353,341.797539474919,351.593581046701,263.119861535241,334.917265922533,351.653089748992,273.772459219094,275.745334795794,261.756982734432,266.688272327334,290.677653607389,220.799074614515,210.286703427355,206.873258094866,92.646112433375,14.7574963570803,120.375955325418,207.688094508826,203.494122025258,514.736058633392,131.928402895803,292.896507538159,14.1411740982938,451.12737878654,604.730741618584,202.388881244783,261.106866986063,276.694375144227,633.168857655507,249.142828266226,261.974275927354,574.875031809341,198.035869169277,146.216190043715,139.317288407005,177.398847942396,167.140920030409,223.917421631966,231.173544826593,290.571705417586,225.955457652343,181.582156864573,208.036986722139,270.006800668571,224.366471645326,312.156620603067,266.589077574991,283.372611644602,227.724275911117,291.895119783478,240.19460891426
205.423680614373,195.968692772361,225.344304738609,208.881761248634,205.483392408427,219.710812993571,235.646712041909,254.312893626325,250.930111113091,239.222104422122,248.629355564874,266.666634637002,252.678239152916,283.592737293254,268.650495924193,282.204554763735,183.80261342682,261.113759166882,295.01423548703,191.821444845992,198.454866409285,197.335113930833,176.947594512621,230.798371463966,143.770896255607,80.7130762701963,155.795087691545,-26.4939978690678,-124.907860387577,45.2414760503222,-27.1991627678903,153.626059294748,741.038289058546,92.7634354097618,86.4437164485459,-112.857032191395,575.245084744731,777.847485895691,76.58585771379,-0.658384405063801,197.344219484168,809.071301337322,136.070606018299,307.641556688156,761.138011964719,209.433239369325,122.959627629211,111.392535967528,139.002112043166,117.707551642784,164.248096750075,172.764081936187,220.540537503029,153.190924635086,115.894200407189,128.468890090813,183.68018470083,135.913468939379,220.914537076458,179.750390941271,197.751949855726,133.312640437924,197.700378739761,145.852547465689
152.032467638374,139.621610263013,164.092722105775,153.606737693651,152.04134504314,153.197770609528,181.94317085469,206.181974329001,197.908706784973,190.538931984472,198.367507259801,210.941683824204,197.09702723514,242.521619948811,216.716743048033,241.42551600061,136.007638424287,212.207804468686,265.456705462988,130.487576429855,143.534838388623,131.78500082634,99.9485665164335,190.422565520242,59.1830514304444,-56.3928819668761,80.3483514311669,-167.040733608126,-249.821460026039,-32.6973709178009,-286.944827095949,81.4619938794781,932.51271885652,100.983242335305,-164.727560161642,-223.697610865605,656.331373442418,984.025043473714,-66.6009928762365,-256.069541859609,142.810673638813,966.995824394039,55.0488702346709,451.056169619386,971.335951694147,223.168896772209,112.54940297978,92.4431331539197,110.362405872332,90.5781634063916,119.832321608001,133.924547959481,167.165905653187,99.5580421266004,71.8105832373388,84.6282379197961,125.150397161986,81.6970739389993,157.169591226089,119.491574111011,144.861623046375,76.2164158248713,128.00535454648,88.0873217815216
129.07394045241,111.775392427533,133.96712011065,131.43704618778,127.779773439188,120.839270795644,160.69336566943,196.83174723654,172.708785849396,171.340841452285,179.511331472176,177.324221768969,177.143496042178,222.490212243418,190.143525054913,221.680889867992,121.580825957281,190.138283352953,257.79960498076,98.8150284072708,119.286909523436,82.1408272769538,49.0529919335946,173.084481747857,-18.4779371982206,-143.652917796173,-22.56636219679,-271.842308770204,-320.587710312258,-110.103011886206,-457.079318469782,9.23697982775631,1047.7652668663,55.1977755536688,-321.86398436967,-294.217434122128,658.138401633662,1139.85417509242,-238.451765061757,-376.733772683581,133.562182044628,1038.53383685705,32.8615096702894,588.573862866441,1126.14007014112,167.14620585458,61.1168235998441,31.2926259183576,55.4158611470194,43.9408531520889,64.1677846314556,82.1939615146982,110.20484311131,43.4822860850377,20.9255570477851,39.3937292883275,73.8700338856917,39.325731726462,109.896266396205,74.0911009706911,103.458887399594,34.5576685698563,82.2570364411302,49.063260343065
110.821234267596,87.4332146098608,115.356988015328,111.789618828713,106.670722452029,102.353000024545,144.63133355982,186.210884845598,153.392780995215,156.296253058109,163.610091117592,154.776793343185,162.673022888838,197.308682641414,167.438190406246,199.785061453183,115.179474014191,168.646607095524,240.880629469234,76.3647022861771,101.622265049571,46.692131242381,8.01249611392134,140.666708200024,-98.937203525247,-199.437914115898,-140.414380963501,-370.476818634273,-401.443740124728,-229.372556391268,-528.552977545867,-87.381366329782,1054.21926462382,-85.1915778966671,-414.554921365498,-290.175792568505,607.949837794988,1148.75942010864,-441.937925650057,-417.660191200453,179.769722661201,1025.96111998671,56.046626445773,638.790223196212,1145.38147911068,42.1020489651682,-41.9851056172449,-72.0611768669084,-28.1044453040594,-33.8724319914005,-5.82680413208276,6.74818646403208,47.4832259161548,-21.6381088042296,-45.6024348514588,-32.6250785710257,18.9199044401544,-13.7816688799486,64.7120395988344,29.2394969613218,52.825403580448,-19.8401181802376,50.406877578107,6.65780986528529
87.5065203791584,56.6795408111757,95.7781101886821,82.6491364829898,75.3459060307348,87.0796540320183,119.581674659845,148.8622319429,130.467884057188,130.856990123654,131.990332722892,136.481766487664,133.785998372253,160.246418433724,134.798263002275,165.930495841006,98.381110753856,132.505585326415,195.773887247649,44.0701881009863,64.6581437080005,19.2657081922989,-46.6137126769559,59.8379725860904,-193.464732087644,-284.655901546187,-202.070517571302,-531.589150500483,-565.979686038166,-389.387274903694,-599.313760019814,-234.976290205916,923.771404609954,-218.39016633171,-557.798449436785,-263.893659530925,522.635916382146,1012.28372678667,-620.55545182686,-519.232451256273,225.921741097864,960.690886191644,14.5534593932799,585.704489781459,1030.23763853494,-70.7619473895529,-152.317086909167,-160.594518172777,-106.901622882576,-115.888283337002,-62.2334568974033,-67.3986749178387,1.41950280006486,-77.6493271110811,-105.788276862548,-106.717462114031,-22.3362233182155,-70.8572958695237,32.3395229526684,-10.4156547174081,0.928342873046169,-80.1925949098909,26.6848859437844,-35.4170614504375
70.2037496417924,27.5902909745506,76.6154038024552,53.4481114680023,42.4773131568516,75.4848405785302,93.7853057273214,104.967408284869,108.530620953042,99.5648343433003,94.6924322926409,117.305830690225,100.224528243092,123.774637040434,106.233196748065,132.847050948779,81.6449467492997,97.8528559505199,143.118762630839,13.7203374182211,21.2377661670548,8.33993928338067,-105.448395011321,-31.9771943326998,-270.699890972539,-387.91273861452,-152.108620186207,-700.920444716443,-744.168751734133,-488.178773109406,-703.963023139364,-381.354851826515,724.148901206416,-240.260795780926,-716.459111751433,-296.094696703448,416.791717010643,851.768792880976,-700.568888037026,-672.305724653699,227.379302036383,880.686621376466,-140.848327900457,500.778978392748,881.003468302342,-74.9334877195969,-187.697839144502,-164.387659030235,-125.594785922287,-146.017131898965,-63.3176921999159,-91.8746418179224,-1.22219558523594,-89.458995682458,-123.047414236859,-134.106485705541,-26.4414984781886,-98.6850648371596,30.409026121598,-26.6515776742248,-23.6981750046518,-109.341902264295,15.0228317987119,-54.7261576046747
64.6336638528664,12.0090816575946,59.4679920895381,35.092932616262,26.6546618379852,66.020014292138,79.182483998919,86.6836148605728,92.7095694517734,76.8108111082911,72.8008806691685,99.8695578965793,80.6929377564055,102.741871142271,101.228999430692,119.355123057989,85.6281885475892,92.562146381317,117.813453415821,20.934463139215,17.392167450876,40.1831868187903,-107.605147942225,-64.4316628910722,-238.906054697026,-409.50058657827,-15.9690164577668,-689.644452644824,-787.522118260042,-397.474209140893,-723.254350562254,-438.633923141713,596.960791591384,-158.698077818402,-700.46064752791,-346.265611379925,347.518515085456,775.233905982266,-639.569443469214,-703.181710611766,230.711917737121,835.92603733826,-273.389380891476,496.245243503855,798.541038560397,47.0418573064472,-98.3568060444405,-68.828232090166,-55.1097954519747,-87.3139335902491,-1.03062426120164,-41.8622381591923,36.5112941609023,-44.4886422665578,-83.4889989640727,-96.2730888213424,2.6229474022245,-71.1322971072785,52.741651308558,-9.88207277111814,-7.16088579867765,-87.6924474165558,20.0765589607797,-42.1965036815445
66.9084787359736,16.5540730647949,50.546894875281,34.6327930771322,39.381836733468,64.5928586000644,81.4123202603172,101.352719642262,90.1515408664166,78.1672453929746,77.7294117227721,96.9363291738844,85.9283499639356,105.843568568923,122.865576191371,135.478237519825,117.811395686157,129.651303369938,132.470218672563,87.7522356053395,78.1375899909554,122.592353173777,-3.23397949474829,-21.0042498266845,-43.6748000410095,-276.212561495254,127.127418727137,-392.839339191408,-657.422368356303,-125.279089570468,-528.936990661591,-384.033080580359,585.680057477819,-62.408077221117,-427.53213329436,-281.81729352967,372.386210409947,762.823552013737,-457.010946043928,-506.695520926909,305.76069346476,846.454702543028,-211.376350009929,600.280994579953,780.275124333087,192.559707830019,52.6822854223262,48.9173018843343,53.4694741361339,16.207706212578,68.2773160229106,38.9429937494965,70.8050126122427,9.52667225289096,-24.0367835768466,-30.6183673967863,28.5703042481995,-11.0908412313315,69.7505726730797,19.7986874443983,26.0089871565393,-42.8766187587912,29.5702453174985,-15.9771868143256
78.0992149800561,35.6926868824515,63.3759376878502,52.9983927446309,73.3029833670476,88.9509575379797,102.782198005564,135.128123316597,112.561322982096,105.005678227885,104.890625873269,118.989042465737,116.024146622378,130.612998630888,161.161681951916,176.418010473062,171.414796387486,195.819669456149,176.767715777818,186.4489395929,174.990778984892,211.201480987921,162.053754845632,66.5443853821213,214.660570749824,-37.8255681995615,196.332459957238,19.2927553285724,-434.75355725336,121.90925072832,-181.315940070152,-248.710334024615,607.82789648151,-52.2600918086481,-92.3363021251151,-76.406399692697,480.947324619585,744.065190910544,-288.742239810396,-205.94535999844,454.296245744871,869.389078539594,17.3351733870746,725.553854083736,763.514567752776,211.856611341751,115.560255560652,71.8353660421098,87.2458438725006,54.7472104378408,63.9260452729596,59.7339205158406,49.6667362603391,0.293675280159697,-14.4476076050094,-8.46776721984338,13.1491405139723,11.3712049592069,54.853000671025,19.7554937780189,31.3572731695544,-28.4023070716573,18.0885839074636,-8.08519792961633
86.8665601187679,41.352431101307,85.66950745448,71.0251744620438,94.8724845306942,130.722068171547,126.690025432212,159.850775968525,148.61094327854,129.588220979414,127.110378701782,150.700888296961,148.516939292986,151.786742120394,195.039122668041,212.920274357449,223.729324401371,251.804864525013,222.229363761931,253.915552464033,254.826295462689,247.067655667735,283.918218752576,163.334533065203,367.742624950437,173.108258031387,171.70721035652,253.040010730276,-205.945914337386,145.287155176091,100.665041366531,-62.9746746594559,600.949558098309,-164.315981526443,38.1011810834461,128.999982404585,608.148859357477,706.513593344968,-308.040407504724,-17.8372014791415,616.990683534152,843.123481144498,210.968376036841,778.772160947342,721.840989942523,38.5142769131799,-7.83804723908888,-58.6037636335081,-30.2938097467688,-46.5824887457528,-52.233979852166,-38.6590777100163,-51.593344927362,-98.7585539516642,-102.772310955117,-82.0890024923898,-61.2929532795431,-58.2867886329519,-5.73204223529455,-41.9563460483172,-23.0562918465477,-83.438984511186,-32.597275194817,-48.9982727279754
59.4884030173575,1.71853047577478,73.3624023777308,52.4727134899577,64.6465320448454,136.541181783659,112.469654261519,137.65388031798,152.714405922504,113.654742030017,107.993164575816,149.305102498583,141.215640283985,131.964182175121,192.382598896765,205.451104001697,235.603412839738,256.127548441268,228.39279428297,254.580808181126,283.169629889,223.500948771112,318.703675724817,233.187597150371,379.375733531453,274.505286275949,126.047601085974,246.376921298516,-26.320763414194,16.1375977490871,186.921634677355,127.755984122604,572.024404908859,-310.419709004799,-39.684704082529,195.463760288745,692.760407600324,666.461178260264,-485.467440097726,-4.21460725362847,718.746511300939,745.87141653388,234.071067933761,735.365361258506,662.774745681055,-252.718447803909,-259.873246957238,-293.974158282779,-255.893317690628,-247.595042094992,-246.633746777404,-223.520592228601,-212.953963484115,-254.818387061177,-267.883422754952,-236.154505531749,-188.779039700067,-200.727796047136,-112.80051235496,-156.624932388677,-138.428972409225,-200.413641582413,-123.843926385421,-148.004964561385
-9.31804359179806,-73.2012453482822,12.2251348177199,-12.3107983781657,-11.439454704735,73.2047154327555,43.6955546480818,62.2044305836846,99.1389335894721,53.8628997910408,46.3881534693315,94.4231701082046,80.2068406524095,68.5070039802542,138.61165240465,149.845609061681,186.180797190666,206.014775672803,183.883411893735,214.104625325997,262.778067351896,184.006626312362,307.513459135273,254.990654823025,354.855018802707,300.237939774541,140.065653630266,207.87174302759,96.5494179276656,-16.3635404295742,179.476333702944,270.179577594605,536.799628844683,-359.213270763477,-81.198029712653,152.630555403928,701.967073475987,617.71898259457,-553.132900226968,-43.8007544515789,718.390034066869,602.339160833313,141.280494922161,609.560845855284,590.882776258489,-500.418827602295,-471.196336980558,-503.861357914706,-448.004825965384,-420.534989504152,-423.527489319934,-384.598432600186,-363.760955641668,-397.373096717093,-418.533003776336,-382.404314799448,-320.058088811315,-329.679559347254,-229.413539138328,-267.469603692076,-265.413727916015,-314.682116932943,-227.216090431479,-263.071708430132
-71.6180337523557,-130.042218941158,-54.6363674543877,-80.1114791880179,-73.8508421176037,-15.5778545198449,-35.3436900633384,-16.9177608930131,24.1465137816375,-8.02581873649676,-11.4026710201705,18.6858797268475,9.98735566707222,9.35817004124512,65.8947802943254,89.4767649839011,110.07199050986,145.084587480719,131.180704697305,183.030690129731,228.455149770154,168.488961811817,297.625679102782,251.404607031737,379.380773044386,319.890605639936,204.678775321185,288.624094269288,206.822080178092,136.823596372659,241.56700580043,352.082280705725,490.512545787047,-285.88182716006,58.5844252458859,136.364673152326,613.038423398576,544.400954243636,-321.245490639695,-18.2102810046661,630.343311346161,438.168313270821,61.6528671575666,411.929604478486,506.006906363957,-567.444964049874,-504.801350346924,-559.430956673175,-482.881880714878,-455.225909162098,-479.185285136328,-419.862980730881,-421.869290038799,-447.673037413217,-459.931927026934,-419.962343714966,-374.56605375855,-360.47447942506,-288.937968437913,-307.414193024393,-321.93780032446,-348.421134510877,-287.653679084923,-313.776787018495
-87.9399018313657,-133.085381496302,-86.6825818275508,-104.7941806665,-77.9925809814914,-68.9628491912246,-70.7521085813864,-49.4297737245083,-22.2030720980896,-32.69059774144,-25.2390188431742,-37.2764622483132,-18.9557457653242,-3.9889388305074,20.7118105255158,66.0315454338647,65.5647029136638,117.688189706031,114.595492764234,185.600166898317,214.717630624431,189.882092118561,299.784520931222,258.45497183185,446.883503765281,339.234143593408,275.647908579263,415.666242777782,306.057247642588,332.647520916824,356.342891891775,377.056628199321,404.376848978725,-151.264263038207,257.001012300625,197.871085960668,404.802637510355,430.331398552667,76.7074483963197,70.9213758429303,482.780946360765,242.840627296301,38.6353645098745,157.862170791094,395.420619861081,-434.295702441615,-359.928479493358,-435.794129313428,-356.885025136016,-341.364871171826,-388.758972100543,-318.538618192605,-367.683553342425,-377.082260461075,-375.200602466834,-324.722136566314,-323.081007054651,-280.580398030861,-267.311704253881,-259.965109763887,-273.498441675113,-283.562214091231,-275.208790832437,-261.920123190472
-73.4193628639908,-104.50942195213,-89.2974208363335,-92.8643874754709,-46.7410531147596,-88.2912043323815,-65.7554864210732,-41.9043609137664,-38.0520859449611,-24.8030127788967,-7.37648091006091,-66.9186609743224,-13.3679355221782,12.8300187230296,8.46813134668038,73.1460842241914,62.266032939347,120.047308165755,121.908271437767,204.383193860719,219.177868448525,233.548683286397,300.279235932917,273.711886666417,507.873222518939,318.058013782245,355.495375154547,463.375573295441,315.241730390438,434.285371231167,371.398533640617,316.47610601646,244.533702833473,15.533260534284,331.206689409328,265.410690819005,88.0105164146453,253.523200493469,355.543825887135,141.34757444465,286.157910539503,-5.7067270717295,19.2837829996713,-109.701252238393,229.229110165598,-209.586417467996,-155.665390231356,-234.097560971373,-174.942735320578,-168.045976905984,-233.144944109061,-161.576393056926,-258.798399468136,-242.695454105803,-232.869972123801,-174.141681012852,-222.093287300428,-154.324340306787,-207.100733205262,-170.796705235421,-170.053078981023,-175.514062005531,-216.771600591325,-159.307518452468
-73.7800461622214,-99.4412034528457,-96.5890676993798,-92.6032645767223,-45.4759634801451,-116.702457329836,-72.2401479787739,-48.3329904679948,-62.3596995552248,-30.9771325531554,-11.7238157720602,-95.5583040450425,-26.4504638321072,3.10858413344194,-12.8502527939096,57.8138512880697,45.3597059821919,98.2428802234174,95.9211706018521,185.475066690304,194.92435039982,242.108897512934,256.860286902047,247.233296636142,489.949733113364,231.734606731736,424.215450949512,393.420458569434,179.88125383534,438.129829225707,217.815009943491,140.378988957368,20.0487201114634,180.294326103251,258.558040560381,243.805295372994,-280.072007727325,9.99984372133724,398.460210929965,119.358614742429,36.4174054844058,-295.216032442469,-59.569303406921,-349.466784540104,-4.69345147946667,-47.833998129614,-31.3407022427447,-92.6673029299639,-56.9339974063423,-57.525294255834,-123.680317649978,-58.1557004556038,-173.993546990008,-144.555367741013,-131.134073175669,-79.375314873792,-152.197846887023,-71.4687507941805,-164.982652916592,-110.702866914487,-96.6519174054754,-104.305685790048,-169.555669802702,-98.0362739481805
-121.963857638341,-155.525617059054,-142.531303313858,-146.284098669997,-118.253604037052,-178.059559731708,-131.044695158249,-117.170376290187,-126.098069152244,-97.5046789406479,-83.7118541492344,-154.674129694996,-95.1078862436911,-77.0990811425996,-84.7513818555866,-27.8788896787967,-30.6966106549015,7.46805833177618,-3.25724538922647,86.0203435864474,94.0286408131939,158.679722288652,123.624461725388,129.070483789458,336.374977470267,80.4256330985645,404.478182260372,224.547949616253,-61.2849525561612,388.154307320602,-22.9863782698267,-131.997497976573,-220.678858852541,251.33561776278,141.046690472521,77.8366077624883,-626.196133764609,-263.940333559953,307.162782646929,6.33980971750867,-282.79895322499,-580.101055961773,-215.406342054271,-565.149090036879,-276.134241990621,-33.7449258500642,-49.1245067442622,-83.5036962523635,-61.8789459276448,-78.3635673137646,-116.314335471813,-75.5430602621626,-164.151403168476,-146.41891943727,-137.25394907822,-99.724083309799,-160.087075290941,-89.1213056673569,-177.192263757374,-129.683311023825,-111.907473073826,-123.615297058648,-182.215676423295,-131.111287909075
-205.226144293977,-255.00332953956,-223.686392954308,-243.987791639696,-239.960426011598,-253.437136163225,-222.432126830723,-233.658776209655,-212.332636124688,-208.395032962486,-206.12125128118,-233.021366181444,-192.280714246195,-206.111053057019,-184.750887407979,-157.30959614476,-126.444939064021,-118.373406319967,-144.618913287373,-46.9320532686272,-56.74805678973,23.8506294375147,-60.7070638777586,-55.6799812281589,113.699802509576,-101.765230198259,294.914759246856,23.1153889847251,-309.055681470697,326.07436932004,-214.297454632644,-433.815571521796,-445.459135586294,202.670286775174,73.4682465160007,-199.398905339076,-893.533945468801,-511.103110667939,227.745392240817,-119.397957470764,-644.24066962422,-814.512833382774,-407.049622684215,-767.765866732956,-531.895819312706,-137.137626833885,-170.897523116106,-182.967406139358,-168.399492293035,-200.46970354775,-197.622061507184,-194.191572140254,-234.342310711432,-236.281238383853,-241.906327538497,-210.523720740221,-240.644212988513,-193.6505116754,-248.809940701123,-220.134880687381,-210.287542467226,-225.493231674993,-258.815194891855,-235.820355102828
-282.598639682422,-345.800683912335,-297.587544033819,-334.807368628882,-346.43611847355,-308.506434735955,-293.08864377942,-332.861285116022,-279.406059993437,-301.342435341756,-319.323588622374,-285.329965412506,-265.655636243016,-317.204723966559,-251.723563155614,-259.235732293089,-173.199685698912,-210.359276388219,-266.423974146195,-129.814097646153,-180.982693715031,-76.436315502166,-195.717933008202,-230.079130390965,-43.5064903423673,-256.981237187071,178.222927412416,-127.533246879016,-485.618860535209,278.146957957641,-301.876642197221,-708.252778233794,-663.626071510751,123.885686538927,68.2757638441417,-475.94619181576,-1075.62943487917,-687.54881803232,215.403125525996,-188.512338813174,-935.57471383011,-970.075016636018,-571.106878204844,-922.940832148575,-721.112527761948,-282.332685304874,-320.358343329977,-321.859630596659,-310.376265972977,-343.48312746159,-323.596404712804,-338.217212634229,-351.955485253228,-358.962579508539,-373.257875135851,-343.73051862406,-352.017329582372,-321.911103208832,-353.209352522301,-333.729995258101,-335.744906163322,-351.356428300616,-358.477913531297,-350.34962736578
-343.524347575007,-410.25746442622,-347.599675188026,-399.832449933888,-417.785219556151,-346.816255028079,-337.386637966119,-390.037129169388,-328.17792328767,-360.544998099656,-402.326035766266,-314.417254118899,-319.900087970279,-392.022536209462,-288.905264250899,-326.580954236916,-187.645990587102,-276.08143264459,-366.476060044757,-181.909145367234,-273.943710994773,-157.101959224306,-275.693946795762,-378.97293052486,-137.739265787846,-370.903273736997,62.321417155593,-243.783771762906,-610.853563820231,203.614461971572,-385.02521739145,-964.627073177133,-892.372005094963,81.6189141090376,32.3202535642778,-698.39730442903,-1217.92606732343,-788.932832419091,214.869314477132,-236.740730555461,-1083.67942521183,-1046.67714237035,-698.515593243177,-1004.27381488931,-823.763965505111,-427.063437006781,-452.574480718319,-453.971209650006,-439.91472390224,-458.981518397972,-456.80811944297,-458.25541142185,-475.558392951943,-474.972199186006,-477.833070468464,-454.783878771884,-458.965836272601,-430.184636928856,-461.466736107156,-436.699419488743,-443.099141048371,-456.155286087174,-447.136416830772,-442.729565828328
-405.7350322311,-468.805195046204,-399.121102473653,-461.500077755068,-479.065993916911,-403.309907409957,-392.14673014922,-439.976787793999,-389.773966529684,-420.656718177242,-475.50913377512,-366.428201997411,-393.40108108032,-464.363332943699,-351.373634531526,-402.738746987643,-235.395058015779,-364.261589323346,-474.368483328495,-274.218727619382,-384.013620377548,-275.794816162063,-378.398922446205,-531.593611938744,-265.874411354239,-460.508869280215,-79.3694573387124,-392.802172101579,-737.9822779495,66.4117316364284,-558.197622574524,-1216.86938675704,-1083.65121519298,72.6642448868694,-128.850143647003,-904.290078015178,-1323.04503887331,-843.678645382074,151.13057195472,-352.301044012483,-1149.80176738707,-1066.59113008212,-831.126815301797,-1044.04366048714,-865.657270460544,-557.05896777459,-557.226666893693,-566.287721225473,-544.053718986647,-542.982279773158,-570.790537634037,-549.194581707481,-573.680596795033,-572.42255951334,-555.524947609395,-536.110227244962,-547.90417283922,-513.4611752261,-554.628785342011,-519.612259871584,-522.258217072383,-535.277739453383,-520.027750896684,-515.898528904358
-461.713870165228,-517.710511580433,-454.742131812893,-514.673796533758,-525.986289665227,-473.860275016689,-453.063053594385,-491.170221935045,-452.620745204533,-479.723010461832,-531.603388841951,-439.133388534042,-468.522668431521,-527.984365730303,-432.768973028087,-478.14661668785,-314.762014363798,-448.608484106537,-560.035923628768,-381.397912468254,-483.558740354313,-386.781371654269,-483.957910453057,-646.566147141654,-394.663404018174,-488.856817906226,-163.311832335665,-505.886647367587,-814.224829651704,-46.9797437496309,-707.519361020335,-1369.92577243921,-1137.64777701342,103.900350806163,-346.765407553483,-1066.95896860154,-1307.92392748965,-864.73363313718,47.3891856305843,-510.736562005916,-1188.71823371662,-1034.21394229098,-960.961028682408,-1060.50387884763,-871.359779899679,-636.191708703014,-613.984263909684,-630.219957943158,-600.094673647558,-586.799643889139,-630.061635430496,-595.243415815022,-617.565915999079,-628.808222024976,-601.19350765837,-576.680551752578,-595.336020800398,-557.330410825961,-602.6343110932,-566.270424208539,-562.521591363163,-578.796130005303,-566.709362398748,-558.666303139351
-479.28755879149,-522.871666128914,-476.19288531573,-519.239327307797,-523.290003121132,-505.288857767085,-470.702384720736,-500.306315973777,-471.210433477894,-490.391232549797,-532.412856288156,-476.768127195986,-487.146230052397,-536.428574674186,-466.242302458219,-498.231225446292,-365.032180901315,-462.700113246349,-564.171473690806,-415.590143045544,-495.594810708232,-402.366629058311,-481.961291072504,-649.196701205802,-392.669428271484,-408.105248418841,-106.207510448582,-437.394960602201,-733.534968096568,-19.2902559907748,-651.926940541786,-1285.39825488814,-1027.54212797934,195.123523803143,-445.501868197594,-1081.23730199348,-1122.28167118334,-832.567288320241,2.00959825919539,-577.462065847869,-1139.75026754049,-922.320672330617,-1009.40459364545,-1006.14699698858,-824.653745725806,-607.305304258483,-584.033793533509,-593.931921799574,-568.198797900665,-560.551899792579,-595.835729489372,-563.078347095896,-581.382058333394,-603.81190660228,-577.965942620129,-549.316863056996,-567.861694518534,-528.879062688358,-578.545388170538,-553.104583738264,-539.342517103639,-553.947153086655,-559.908959647023,-541.453978390937
-440.707466095774,-467.616873916048,-436.173794731454,-458.916435438251,-462.2955251747,-466.115990601201,-420.065717727815,-442.85804087655,-428.262151776159,-431.661726314889,-466.262783610423,-443.584747310417,-433.915233336031,-477.110772387795,-421.133278981101,-443.604297836473,-346.5180994327,-398.695454839614,-484.669015339009,-349.7710656031,-415.118968312018,-325.645398689744,-355.371911941944,-545.201284779938,-243.357771777744,-259.998329676505,17.5748068529205,-193.995307158252,-500.112944048242,143.84582457154,-423.042029011859,-960.678808666003,-817.625505338993,326.960419732251,-363.321978978403,-933.167347058133,-823.836270891008,-737.967134295177,59.8941942718249,-496.793528639325,-942.982751120249,-716.928464329729,-933.400038857345,-844.804355017175,-714.265190572315,-468.399057612963,-466.977274223114,-454.208782014185,-453.194089633987,-462.88586418418,-473.205563725212,-459.291143006449,-471.516115089892,-494.433478029809,-478.044139780857,-452.480117662423,-469.462550751495,-431.033624122437,-493.856682101376,-477.685835921576,-451.200051672495,-457.285779659718,-490.097795055954,-459.576127199828
-348.51177602657,-361.544854286061,-343.054037469493,-352.225312846558,-359.922692135078,-373.076151545968,-316.106891403418,-334.501240673029,-338.046876546883,-325.239055967497,-355.618923116662,-350.014640400263,-337.423423191672,-369.823111171686,-321.858663051467,-336.701318538828,-263.107749865867,-291.498488797076,-359.538305748565,-228.678720422694,-294.702861820699,-228.577601756975,-200.615326392817,-391.226008708335,-60.5017271130317,-119.739075863388,82.1321858960266,67.8315184140773,-213.172625741566,343.02823747022,-203.108011415431,-527.215363887743,-559.528912538605,445.055491354724,-194.428724303753,-704.903938236457,-493.956515120927,-586.024768318315,177.131216121008,-337.918904874615,-629.748996852833,-442.898533453163,-764.953689559231,-601.693718950886,-551.514974609394,-283.996054257173,-305.577668353183,-269.77670570336,-300.91056421272,-327.248760067244,-312.636469010836,-321.971505849912,-325.640499170365,-343.483270928596,-337.639173761696,-317.528488075415,-335.458555926427,-301.380752672025,-376.870926781518,-356.045246340428,-325.162405022264,-325.646586131524,-374.738264046088,-336.739433838035
-216.95869221389,-221.537824804364,-220.759686766636,-219.112139800032,-225.756376629675,-250.893855736103,-184.104041092365,-192.660174057224,-219.073716886596,-195.943986641455,-220.997215594327,-229.838374756092,-220.064456948769,-230.341328791205,-201.842297764269,-204.288457147263,-148.726929423315,-167.118341689791,-209.579040107336,-106.064197356054,-162.082432245753,-160.948019385792,-87.5471490057532,-215.387429812614,58.497351232468,-0.923037325821961,57.7817144514694,222.950637933983,49.9685499937292,470.299882875364,-77.2179113215049,-96.7808842703169,-265.695980430009,481.330916194526,-48.2222965634706,-425.830400877483,-161.113989376125,-353.695622963951,286.685319465008,-155.487319124686,-256.663904677616,-129.980502112285,-524.171427559766,-300.726248922251,-316.322884714401,-83.6905657367045,-105.908388062256,-71.288781098875,-116.141616606206,-152.59057901586,-138.8411738415,-151.932276594474,-163.600599153712,-173.921587554013,-170.018544110208,-155.29006947294,-179.789007096517,-149.53510866478,-234.661475105776,-199.492852056063,-175.897016344347,-175.449578991863,-231.865806252518,-186.554620980641
-77.7276247693914,-74.1505309352876,-97.9092524872524,-81.9005235366786,-74.922963197782,-123.802972794597,-56.0709820718338,-42.0525943021561,-96.4846322867486,-65.2435534968673,-80.9607717450783,-119.794342708414,-98.8843347035827,-84.9379616855645,-89.9053750788063,-77.0164528128527,-47.5475943471707,-50.176351709182,-53.4184908111411,-14.4185072812721,-27.985962115186,-131.517011542535,-15.389655959573,-33.6149704486039,80.3929425243719,109.065207792747,-49.8563825767992,245.715525651845,265.99899215249,415.367006009963,10.6677157497991,304.635969276504,45.744014910564,350.056012762705,37.4046296444544,-58.0908924215125,173.629320492582,-33.1533924977093,335.317370712826,55.1681967138653,141.74322115141,202.007916607533,-193.993149587874,59.6137622148047,5.05398187857709,144.576389906622,146.454092029015,148.930944680537,114.071048430382,75.3499428976742,55.2706674102405,58.825841667235,13.4412078441473,13.3566078901466,29.1267894230118,36.555815754151,-9.10551825753525,26.7624514071566,-76.0900995512727,-28.8093612607941,-11.6969346701612,-3.87235131189757,-80.0038879407852,-20.4821355828824
40.2506383373261,58.3598746555319,6.30120333793983,34.0182751607971,64.2796844735314,-18.4519138028167,48.8207844438302,84.7440822451595,8.9941849989151,49.7866970665832,45.9055485639824,-30.498405391617,9.99402808039412,37.3082721793188,1.96042567233271,24.068563962348,32.2100236600995,44.3668601461422,84.9378702928096,48.5977033445321,93.931957167066,-126.806319005167,43.6641656012405,138.658176579093,17.7544198708918,214.710279985088,-268.722347976105,186.393338660033,468.9050904256,121.747695242413,160.698783254631,702.30190908285,358.576404398929,7.20474247278374,82.5591500710763,427.803479736505,525.033506749646,312.032245579656,294.317558846831,279.894107181872,537.635727084849,530.466635994528,210.431177402466,459.23676987085,348.90087292503,357.498991349955,393.109282188064,355.985137868081,335.121249348306,299.542112282472,239.521468596737,258.226061294067,180.351521770111,188.856415601771,217.785419414515,220.80588201409,143.610572854787,189.484313965592,64.3356623317695,117.148975861722,136.508867734074,159.068739452566,55.7123218239195,126.952031199474
143.303060925098,180.099979508161,106.357045322322,132.591458562215,182.701640541192,68.8715494896866,151.408648858343,190.862093024451,109.249435861363,157.393197343034,165.865642203564,65.1391599564472,115.375904782222,147.738929129438,95.7616601548581,121.288594378097,128.20340234196,137.242490825524,212.717207983102,121.290685578082,211.325413389285,-113.049740665533,119.984244105828,309.622427560088,-63.3257198562879,323.690794701649,-552.421222588715,108.275551000136,698.491067442762,-327.950881168534,389.402708971103,1082.64820039121,672.423764610945,-433.359420454973,72.3221390987579,970.221272049208,912.645898297016,613.222585901868,164.882473296614,438.23652738948,881.847980514201,828.299980496333,604.750942537622,834.745616017951,639.749288588954,467.16802282787,533.779892080029,474.875314890556,462.72408495598,433.287201942156,352.01045449505,376.277598058274,296.594762194203,307.120532864577,336.597526609674,346.542744728025,249.063760927111,294.668260450454,158.442715881439,216.518990652618,241.826608129662,274.222494427427,162.425300062401,230.016709994767
238.721593388976,285.472149580486,212.550482055108,224.341392704331,279.842362626762,154.890680882617,257.360582792079,288.151001628185,212.08078003094,258.418461120572,277.657134508015,174.355331219815,218.397645631977,255.594494137987,196.112616716506,227.305517577477,244.280193608345,233.366042252176,330.0415704197,212.288237022124,315.363141901985,-67.5010138789529,199.958861124984,452.492218720686,-103.475398465439,388.35588061304,-733.737655930343,-13.9545814523726,856.495971296263,-770.541539074286,516.559317194467,1285.29977005864,925.992367642576,-742.978495064443,-83.0846399567247,1313.35988109395,1230.33398875734,829.918826697153,-56.5186585194548,417.365369170991,1055.93678463074,1021.47426633754,841.104132945859,1067.11332925192,841.607267812511,429.202855328428,519.339513741752,458.125666996185,461.384123138956,444.277275620556,358.700454159762,387.977716820686,333.864783921917,341.909681761387,364.242661966252,387.514117946564,294.902606682754,328.053249647316,200.764410713372,268.069008911779,292.892878828075,326.209476802528,230.416991176937,284.103559782635
286.248768431501,330.01135996424,277.650764292538,273.97287755763,322.642793429421,212.788882497163,309.118732151628,334.130076252192,270.72026345567,304.39764063949,327.58857109843,242.597412942003,268.248661156948,306.318430107799,245.593064295401,280.00136929863,303.211936065935,272.834517423979,373.18522215371,250.366069225844,337.237937478652,-24.5719179044876,206.244842622213,471.0335459675,-126.338030934519,305.481974464335,-711.5367043962,-230.666225726895,744.344234451206,-1073.16147477097,331.560455231057,1114.29005712913,976.840512045871,-809.973323389841,-383.500509668948,1174.72797995871,1245.28756928783,896.715944393657,-376.948583697675,184.549126911356,950.906299088958,993.097680581267,795.020269790506,1037.83480473455,907.239598455248,275.439729225985,374.893384764942,322.949149598203,350.498678963435,349.747195843068,271.185853472446,306.819235034761,282.998851210873,292.402848909124,307.639122563799,335.430793607521,268.056127018518,287.380407461131,188.936103983372,261.153799559198,271.44248837297,303.727694434241,235.681908403872,275.907090109897
240.670319492297,278.435400253518,245.441449316701,234.728672721,271.006988794565,193.650987324711,255.488926948547,276.57454309481,233.012663307571,249.871368353051,270.147805426211,214.553605283152,216.714363552459,246.979339719268,193.005217539171,215.867531870971,236.021829842941,199.627311968493,287.171871748122,167.246664979425,231.662000313107,-48.0109030338375,87.3273454041218,324.603512757164,-195.553328134062,67.7860285280461,-583.235258115715,-463.469058236391,345.849257416825,-1165.79419508724,-80.3591970037503,636.577065997231,772.61360526108,-735.237689877561,-640.80499197365,635.069554056097,906.682759142126,765.29019683201,-733.195495872973,-133.072562931565,645.61072559728,731.297120968419,518.01624135746,767.204730535799,793.899431753965,93.0209162262447,181.916891667152,145.481992534324,187.22726671915,194.898470908188,137.765335478404,170.238084494568,168.013364058053,182.524576627909,191.821239804105,211.532625515003,174.583471649656,183.552305764368,122.392728899938,185.517840889749,175.949603414837,208.986124767002,165.929900679282,197.985628118103
119.458092560417,152.424233298728,128.583102434956,116.135796917322,137.354328134011,95.5026930370681,122.429062766078,134.271148193055,116.185281507874,122.288877791758,135.428969531425,108.18415604871,90.9078688264775,107.662086380795,69.4953629939848,67.3163571939102,81.0022108871726,45.2449012703961,114.976901455473,3.64466740158743,59.4001767497945,-146.230548996407,-100.014496687188,108.759315169829,-316.747372814197,-187.491820411484,-483.663570305433,-587.651761987202,-100.986527202202,-1048.66371750106,-409.856621641457,154.552067954111,447.867338174878,-653.548502747569,-666.974698518208,77.6333430369607,464.029597887751,483.632341379648,-979.970868300724,-335.283868328648,335.325144172951,383.629618106134,212.024972563601,406.273030465769,528.155790718364,-34.0013440288971,28.0293065919007,4.24558485344516,39.5829869206551,41.8622143491667,16.0605429394357,29.2121431450265,39.6035216683661,51.3171664402425,58.0450245558892,69.5709328290725,52.5865996638013,50.8236171056517,18.0862451792607,63.3012231864201,44.8535939989669,78.501342094269,47.413891465087,77.7570322547666
-17.6679960987912,7.94105907156601,-8.61955619743907,-25.1829686091485,-19.4308468638621,-30.6352381101791,-23.8692854960183,-24.9458753146448,-16.009392871125,-11.7902609216114,-15.7356805668943,-9.73048363104727,-39.5152405410638,-41.14892088994,-49.5514854898343,-77.545717400328,-59.8820681979253,-101.812412117449,-52.6960812362617,-130.746841481288,-83.9120903504601,-242.208797984817,-237.986645844664,-66.5604727290769,-403.379262545614,-335.098839274762,-399.400061072409,-585.854205847347,-398.632216825025,-794.09606606865,-508.005680036781,-174.585380313729,139.269557258515,-582.866629774297,-476.531629141348,-280.341639673081,122.661836678921,146.977031232621,-1004.79726952671,-344.842247125287,88.2436077222064,77.6300807365407,0.463566603504885,62.3685172714907,184.766699225889,-91.2399817185259,-64.3857933623575,-82.7410969609172,-61.5339018374932,-75.5291303413986,-71.2857493690752,-85.0943188573484,-67.8342407122865,-68.089736608769,-63.2021457270803,-53.3103372916818,-61.2663466659074,-76.322997865274,-93.181858822543,-61.7040718208367,-82.9963687524311,-49.1744960142115,-75.1349373560563,-47.4740867935771
-132.096040966201,-116.074601863922,-117.48994055222,-142.427761585231,-150.363825818532,-130.751923206507,-142.362274580798,-154.220816727059,-119.810219704478,-121.031270683467,-147.664440118272,-96.5691732673088,-138.770939747947,-160.376078699297,-123.581095184746,-170.006045927673,-127.520054754229,-183.505991191885,-166.988396102391,-172.981141858383,-161.735185938047,-244.483470959163,-255.859998697972,-180.170299978727,-353.36963288039,-359.064318310325,-249.050034663885,-491.51390154992,-548.553377395895,-507.25339959382,-463.761263666132,-409.509229054982,-157.029116043032,-473.105560399486,-246.150285225935,-474.191537456654,-164.498385035703,-179.596071056808,-819.867718984849,-275.316068747453,-146.473817302601,-203.120432881848,-165.533671921403,-262.144515347373,-163.454192183741,-132.727300581499,-145.427424043521,-153.410772794085,-142.776032349538,-176.993873533231,-144.799197919695,-183.047160562694,-157.176053457313,-165.063156576699,-168.188305008958,-165.331838193453,-157.40821837764,-187.396449826317,-189.671257484497,-164.407505074194,-196.740195789639,-163.327814517913,-176.014603806234,-161.756334724647
