-2.89985751677175,-2.10239669965952,0,-0.57997150335435,-2.10239669965952,-0.434978627515762,-0.217489313757881,-3.4798290201261,-2.3198860134174,-2.97235395469104,-0.57997150335435,0.362482189596469,-2.97235395469104,-2.89985751677175,-0.362482189596469,-1.23243944462799,-4.42228271307692,-3.98730408556116,-1.08744656878941,-2.3198860134174,-2.75486464093316,-1.95740382382093,-2.39238245133669,-3.55232545804539,-2.46487888925599,-0.362482189596469,1.52242519630517,-0.652467941273644,-1.30493588254729,0.942453692950819,1.44992875838588,1.37743232046658,-0.217489313757881,0.724964379192938,0.57997150335435,0.434978627515762,0.434978627515762,0.724964379192938,-2.17489313757881,0.434978627515762,-0.507475065435056,0.724964379192938,1.1599430067087,0.797460817112231,0.0724964379192937,2.46487888925599,5.36473640602774,3.33483614428751,4.85726134059268,5.58222571978562,2.68236820301387,5.36473640602774,2.68236820301387,3.18984326844893,6.66967228857503,7.17714735401008,3.84231120972257,6.88716160233291,3.18984326844893,3.11734683052963,5.07475065435056,5.65472215770491,4.20479339931904,5.07475065435056
-15.4996722734105,-11.0632709472163,-1.1599430067087,-4.20188031105537,-11.0632709472163,-4.38384967791952,-2.9168892181527,-17.0916808193713,-12.8202171586603,-15.553680465817,-2.02698717347656,-0.52741985507967,-16.8586163483643,-13.6872613254282,-3.67737354423937,-8.67525812827514,-21.6360985303786,-21.1670565001009,-5.66738422669036,-12.747720720741,-13.3617556268573,-10.0852973073718,-11.6417859064388,-18.0881427047287,-11.5508012230068,-1.93745903417632,8.02133364286966,-3.60342056218824,-6.91685537269931,3.81945333181429,6.44490025415798,6.60838137550935,-0.379513890977417,3.22245012707899,2.38946936307303,2.64393516785647,1.77397791282495,3.51243587875617,-10.9722862637843,2.28145297826,-1.82798610523146,3.00496081332111,5.86638529493546,3.42145119532409,0.416490382002981,9.66589383710514,20.8882762732773,12.7788710352393,18.9877937301266,22.2102438572056,8.66797540761597,20.3808012078423,10.5528827935176,11.2209258920404,27.152663704703,31.083046509594,14.4618642646321,29.0546027919856,11.7284009574754,12.0368749546654,20.9622292553285,24.0766629975944,16.6893090504856,21.107222131167
-34.3542703426381,-23.4940393854655,-4.41645653654959,-11.5775876655807,-22.8415714441918,-14.4585913606889,-10.2705047126252,-32.3881330144974,-29.7105697511376,-33.7105010401303,-0.387812088038606,-8.16272290416818,-40.5548599749103,-24.5219822959179,-13.8913225523452,-26.3707489397572,-43.7007398767174,-47.6003321827898,-13.826033343506,-29.5115686828925,-26.5174535787455,-21.4511114785891,-23.8713713404807,-38.5361709984949,-21.3796711430969,-4.62051776346658,16.4054046943536,-8.27285149383554,-14.8072450217399,5.77027072172367,10.9127477398934,12.6609953125715,1.26180826486877,5.56511852682563,3.77519988060079,6.71021176811551,3.3072488183042,7.44856936859545,-22.3072750706289,4.99024204769708,-0.923565005733358,4.46064025665528,13.4352733016498,6.18930861583956,2.09115054878076,11.7108642177281,25.1170239181549,13.941512176417,23.7044720924993,28.8346119918092,3.40569594983419,22.6365698716497,11.842063430575,8.27667546183951,36.4658412535452,49.5401237752843,13.8871035423058,43.6603452590618,10.104661567071,12.2509112762393,28.2706160874085,36.8631877293128,19.8835970821072,29.9010576685267
-40.2932843754345,-24.9535332067607,-5.3954514132674,-14.7975329187848,-21.3501126445725,-23.7635131939377,-16.1156634171099,-26.6348137133169,-38.698650813569,-39.8930948012969,8.3967311082565,-22.3012909146175,-55.5162888856619,-19.3300687487869,-28.6200837494682,-45.8947060729662,-48.9225653262886,-60.9113552458232,-23.1525331092998,-38.3644464762323,-29.7420085916348,-25.5361329567063,-28.7294073673681,-45.6736679408182,-21.650887491915,-7.46365260507734,13.3580703181516,-10.4514202480612,-15.8915626907995,3.75742305164765,7.67413006457804,12.0648617626661,4.49373379315339,4.42555238633384,2.45119759561013,8.1635368031608,5.06438813357219,9.97982520398543,-22.7619684422666,5.5899510028154,4.02663472608961,1.59495326909217,19.1804388636231,6.93679142997243,6.33684350210586,-0.608930954664737,-1.39203050158557,-7.04114274786894,2.01187067962238,4.80843802897024,-20.2626023524078,-7.07895907621583,-6.67804203410296,-17.8940508759292,6.33469708019172,28.7871177632447,-14.7056270150592,20.0928423321361,-15.3030677980523,-11.5488633078381,1.89099563252701,18.1276464660776,-6.77802740392997,7.24735834991459
-25.0878997552941,-11.2619960314656,0.09763646322366,-4.97271075794346,-2.77165522387229,-24.4000386371704,-12.4503502269291,-2.71170452187211,-34.3153740255328,-30.8169263869547,17.3404853938156,-31.9296446297698,-52.2776465263789,-5.44820619714228,-38.0483330762975,-50.8141215284257,-38.3033979316894,-53.1878600543372,-30.2432620543913,-32.8901250065524,-26.1976390082841,-22.0396062494276,-26.9017663324524,-34.9349124373944,-19.2640927786168,-10.0762439987329,-4.02848619001453,-8.86352409936875,-7.95871942012695,0.912576260019031,0.355273417604347,6.63439783650652,6.70774059793598,2.12741542906132,-0.141059756934713,2.87747466517816,8.93381104749861,11.2222405087726,-10.9021337646862,3.94878189505846,6.71399586725281,-2.56442156817962,19.7052096991476,8.01219991125673,11.087700159412,-9.6351539158496,-22.7636508633279,-26.1593373344918,-15.7512958145415,-17.3305878844053,-32.6175692084183,-32.1512885468158,-26.3917531198245,-40.6201978793531,-26.4713938583572,-8.58352786482416,-40.9460467904282,-14.2124175519338,-37.1699505190347,-33.8697368660805,-31.9421774640543,-11.7880330579974,-37.4533058222908,-23.9604834243551
-3.3469359944768,6.25162543589407,7.64390686078643,12.0354490598067,15.995113006143,-19.9666855639278,-4.64613137349985,10.3754565950744,-25.1702373107758,-21.2904704689432,15.276463199093,-27.7874874496423,-41.5673225927784,-4.00249960993157,-33.3937251434186,-34.4055727970674,-26.0839469941639,-37.3128876223174,-26.2212880191458,-20.9832958233938,-22.8141281477996,-17.6702949375013,-23.6815212294798,-17.8196428009644,-19.5210454664668,-9.30952625474749,-15.4489780632361,-5.96149308649266,1.28692453250197,1.45408813778355,-0.136395731942963,6.47654671848783,11.1280498715835,4.47253824686013,-0.0482142558346269,-2.17886492850724,15.8439214439517,13.3804796344909,1.27668062503218,6.13589120703043,6.49053359944014,1.39115651199652,16.3739618980761,13.3097580283534,14.04841857136,3.54679550849236,-2.0360080242602,-13.6403263543528,2.49799307374516,-1.57186371280834,-10.2850271912741,-15.2612912004436,-18.8194809482756,-29.6191299544451,-14.7452385599766,-13.8331033916696,-27.9393331182598,-12.8599397001013,-22.4262978432159,-17.4492904680983,-28.1904205686977,-14.8033594460758,-30.4198177284984,-21.5761718961606
8.92024780444644,17.7554583579241,10.3853810054746,18.1064950597223,19.3273077761374,-14.0554014871123,-3.65180954193962,1.96624990461787,-14.3965020417352,-17.9769385959246,0.589423800467223,-10.124722184648,-27.55886801797,-15.7837890730163,-11.198923345091,-4.03888867729211,-6.38562662524827,-17.9511286177597,-6.13099390341489,-6.25584218377513,-10.6412300419138,-9.1969284393009,-13.943796511818,0.435062301059082,-8.24828118925319,-1.20231867883601,-6.48500055551261,-0.0369315149990192,9.21747364530058,5.61164383513805,7.52951752718956,12.5858660287779,20.3377317006518,9.65934450808467,4.42739188415035,3.44738326655502,22.4311918559869,16.7684671884292,8.89427919841311,13.1682146389085,14.1778469809896,15.221870103643,12.6719446392671,19.7114169871466,17.0593620407323,22.0124535884996,31.4051648594947,13.9300119829591,34.1843858398025,30.3060624192556,20.6026969617824,18.711800587777,6.23387582968644,0.883205657830567,16.7007189763782,11.868779548685,5.02203396210447,13.604252569439,11.6242335234036,21.693694410272,2.81878982484597,5.82416087443602,2.47374960396713,7.906730615816
6.33355364483554,17.3897594197586,4.505733163671,3.87867208790745,5.48640878675599,-6.75543582408534,-9.93526349352477,-14.9418264822769,-2.95796722171532,-18.399372644832,-21.8357312314638,11.0207365398628,-8.13612472967056,-29.5658554672674,18.7120910177274,23.5585381211524,23.2265086180899,4.75332535278435,16.1583059598501,11.3641250375274,9.90064412118892,4.70433830670938,4.09274014535453,15.4481938786541,12.2580995980014,9.08092013841258,7.93908424590489,10.4861708632004,16.8230387022893,10.5496086639116,14.1469164070628,15.0172047444887,23.0947708230261,9.77610495553488,10.0463270972303,12.7063864424878,20.6292008689237,17.5296468920532,13.5136184978535,14.1478367375565,25.8824764116793,23.4929556080483,8.16010000909649,17.4496957523139,19.0234768482921,18.6730536882673,32.5160211119999,20.9804119486945,38.2988677313206,38.2608180061636,24.7866337821055,30.5643693475071,15.9984652705405,15.6188193315059,24.0744387004444,29.4923262288644,18.6881124932334,24.8761348841231,25.3650346791823,35.3948565045148,17.5018319430498,21.5345973819681,17.3358306191562,23.2778788921865
-3.80035460598467,8.2675553240387,-5.29517507583974,-13.0676334959394,-10.474718201729,-0.40552660353726,-12.2967096205797,-22.6664883627657,4.84588271713095,-18.4219959355044,-39.4607109142867,22.3199141162868,8.09711913608087,-35.7776232418424,33.7097224555725,35.1454812402274,41.549068784273,20.2144237893233,26.3534798835568,23.9632546577661,20.8888281030942,14.3684026105795,17.8742547789061,19.6397402676994,20.1403306827545,12.355768246889,10.6036156251781,18.278116469943,18.197077244103,11.6726745838066,13.2946992359351,9.7112930189983,13.6565222511219,5.77989615856227,10.929746125982,11.2138847721742,9.24239353584431,12.7774131880425,14.8529925901381,5.76105731584049,23.2697131114658,15.1239437795131,2.56137279282113,5.92476518542664,15.7392232646622,-2.12310817158368,3.61138787228849,3.10929242305762,8.21847779770527,14.3059974245023,4.46981723332578,15.6417580822998,2.68311734687562,4.22332081947484,7.96780380845026,16.8745860343759,9.39115339136293,8.72566106889908,12.1030377161779,13.3878811772304,1.56851934737405,16.0266420872061,4.34438455072562,8.29211472641163
-6.2896293097729,5.36319217188694,-4.94438139754386,-7.80788468972947,-9.59047156852452,8.48927202935867,-1.34442873441118,-9.61683786539017,13.3656604023471,-9.27905228180216,-35.5265792335313,23.3149285884684,17.0350900507537,-25.8596141776921,26.3144067602206,36.0543583123866,37.4705935010608,22.7015760995452,27.7139125167555,23.8092797632825,18.8213321271126,15.3250351951821,17.0654707634538,15.7007452463749,14.3975825459416,7.7644035877999,6.03314206304331,15.1028241888894,9.70504019555276,6.34012050732149,7.29389004850695,2.77343658425336,4.04408250059547,4.09327195922333,5.60446193486119,3.16855787652493,-1.53654726585639,5.25228918713355,14.471436764052,-0.897605764037636,6.29773305534387,2.21009791423407,-0.272837683706847,-3.85485615738903,7.50217080860449,-14.0754190516191,-22.6465254080599,-17.282789334639,-25.7668095643004,-15.8621813665967,-14.2241281838001,-8.94749264621986,-13.1269116705182,-15.6579831695264,-14.4555943436715,-13.462607386853,-4.38039886159802,-20.863980258644,-5.26782397709282,-16.7933854124305,-29.7577983289171,-12.0943719393651,-15.8546694121142,-21.9376123483155
-0.327779281092066,9.40189694437982,4.62172646994824,9.76482523318748,0.717343215514396,19.9963573852604,12.9723046479298,11.6465041395424,24.7563417602916,8.26778519772042,-16.3538299253568,21.5473652201113,23.5549896965606,-9.09669944160236,12.9651345925926,34.4939306376345,24.8136711171724,19.1801823895023,23.3066603365129,13.4540992714979,13.1427917669539,10.2643760593234,7.07257059364573,9.3519548929034,6.77634070303556,-1.2134640294149,0.539972485350477,3.1780667685963,-2.48188447523273,-5.16551234603043,-0.524785691724756,-3.66266418987241,-4.02390699321948,-0.144351786310614,-2.49542518892698,-1.72595127779069,-9.12903618843606,-5.35265140703556,11.2220131491803,-5.20319599158269,-9.87362005261478,-5.5544887263932,-4.17878397438562,-9.83332068990389,-4.68289186843549,-7.18732529339999,-27.5937892477698,-21.9494679113044,-34.021576540136,-26.5053131953955,-15.9875460477794,-24.9865483552757,-14.4598772374368,-26.8831006707695,-34.8286897442548,-39.5450706467901,-12.117890461259,-50.340846812177,-9.33765482285783,-37.2842591368418,-59.4125541936433,-52.4632762019422,-30.5603782622132,-54.7266666814744
2.9166788514684,5.3098436250687,5.99834625743883,9.86625167301627,-0.993695037241896,19.8219073692946,12.6313450260362,15.1310581423352,26.2837690519133,15.5711487025725,-8.87320590818712,14.1498695403327,20.2891208936388,-11.6648571301732,6.67983310758221,24.3048001881856,17.0064399725154,14.3346934248442,9.82715788799843,0.892979974616388,3.26126495990182,0.626185238729439,-1.41277602629513,-1.37939668067395,-2.74515211780023,-11.0939006260212,-9.51020113198534,-7.76102645093555,-12.425554271415,-20.1989839430829,-11.6520906440022,-12.0903522630781,-18.5906655823175,-13.239318200153,-12.277094374497,-7.85914770890115,-20.3653504579984,-20.4621479607123,-0.498196246409789,-16.4002545939313,-19.2577850906513,-16.08184436332,-16.2257957862851,-19.0120919518929,-18.8434577382468,4.40039559819293,-17.4285059817107,-11.641880771808,-19.9317792326307,-22.0109965705951,-5.35559195861353,-23.8222181390917,-2.67511391938362,-22.1006691349124,-39.8062725351691,-51.1015980314031,-11.1690074822624,-64.7898062524955,2.75470005117621,-40.5629040179033,-66.5392731959776,-74.8780526382609,-31.8736715809835,-73.9588638357634
6.63706718418642,-2.87069844400411,1.36048200952483,-4.56510904441119,-9.45796058000252,6.62281313081064,1.1666191239238,2.64506259136393,14.2126716521417,3.50137417634088,-17.2247952203617,-0.614682137431973,-0.0803989561273339,-36.1281474408077,7.05651124036973,6.41127048385516,15.550236928145,8.24432056966064,-4.64719705470148,-6.15467372520976,-8.74173066752932,-6.84559406356511,-4.95951529135032,-11.8701345391064,-10.648347429396,-14.1797509301146,-20.1701518110921,-10.0257230528809,-16.952498318158,-29.0377591951765,-22.8308285769764,-17.7663479028566,-28.6867493600859,-24.407543225644,-20.6977029936447,-15.5321811756183,-30.4899282093156,-29.2523204101751,-14.5228782843883,-26.4651333624049,-21.3066726527443,-27.3468034992457,-27.6737145247148,-27.7867966439583,-25.8081711520502,9.14996538157003,-4.05274464698465,1.89106333828706,-5.09454685341449,-16.166429905824,7.6606171694169,-10.4604863642762,12.8180059500798,0.841981382781402,-19.5408962260842,-42.5564649589959,0.208209762366052,-46.836051643778,27.0368181090406,-17.2242820167609,-35.072723209734,-52.6951376426076,-10.6439470999706,-52.6758223047961
19.8756787031348,3.13918249845806,6.88298961517164,-5.59646168945208,-3.77948570339515,3.64378998009923,-1.73408681714582,1.42387560642472,8.37130866841838,-7.77473667251355,-17.7261200034229,-6.78442808649778,-17.2665974498608,-48.6924386581802,12.6612465262082,-0.589843502923111,19.1286049685549,8.62424711417065,-4.14081012281676,-0.931417616030917,-8.51426627369212,-1.91836428011286,-0.932889526312147,-8.64145623944599,-5.12004940353954,-4.58509560429252,-19.5013937435065,-0.937042226893945,-10.34123424273,-20.1943291664867,-22.0076648038466,-12.6996004521375,-19.7963513487392,-18.2485199796227,-17.4281325756823,-11.8717701564555,-27.1726724290037,-21.473780005443,-13.730415333789,-18.8434955619422,-13.5307454880015,-22.5889680543214,-24.1787902140349,-24.867885645884,-17.9759463781803,12.2343793459603,10.6454286568597,13.5956773733737,4.94230330386953,-4.30558302743464,20.1485600477131,7.74633618833905,25.564852738284,30.4449225563112,12.0550027105474,-13.4787586479622,20.4249712372441,-2.76754679674624,51.206332384641,20.2321626601158,15.5485357303877,-2.54314199791205,23.8132317943162,0.739724054872253
37.0564971755057,20.8707988046888,18.6179936388488,11.654543638359,17.1206444988399,21.2209658308551,11.0231611129714,19.4524168668971,23.4297253776474,3.86320508998157,-0.0511775949800722,7.60372025744178,-8.31465093738958,-25.5520395887305,23.6595110374068,11.2244403673541,28.7747257031727,24.0051756023242,10.5042561787613,15.8427086726622,7.80748094274927,13.7755543187177,14.4589316803329,9.12958710529149,11.5051641048277,11.6159773919694,-5.27266539079716,16.3465519622237,7.09932298592576,1.21400243667908,-6.09077101303135,1.67693864909419,-0.467309846100666,2.53590748601096,-0.0500423051209576,5.74448840164314,-11.2838912589768,-5.01550590581894,3.61574596053851,2.35243535093563,0.727348299794574,-1.16677113349211,-6.95450168455366,-8.17103043306174,-0.603947474673708,20.9920933738194,29.3402406126977,27.3749563130126,20.3087297045514,19.4250514978193,33.5324612783747,28.7290471369127,35.8895758392759,49.2611670891961,34.6605498802525,20.6991440788239,41.9017679083549,36.2557290953162,62.1443424479475,44.8786074714587,47.9565814441138,35.3357722318772,48.2267272660241,39.7435461572974
48.8980811060663,34.4933138410943,25.4162171040316,26.8016987110459,36.4351901891971,39.8143134358827,29.2482790572135,36.4554374705774,45.6355991980791,30.4128333164377,22.0472960774303,27.7170426023208,16.2940480144993,14.7796781764542,35.7583278962807,25.6934992031255,42.0720733022054,44.0163893114183,20.4087971276169,31.476205244365,25.1092764188338,28.257680364388,32.0027467790188,26.310884334242,24.6272258772573,23.6093017342624,13.1376697197631,30.0995988927103,22.9031102490684,15.7044401160794,11.574449169181,13.6002161147589,12.5261915653876,21.8170555929152,18.5073499581137,22.9897650721406,6.27818933467495,7.51214248417977,19.737293509571,18.7631411532988,14.0238189496063,17.5602852731513,10.7758578786485,12.5676508176265,13.5819372767303,32.3620930767185,45.6143609029014,42.2943669418,40.1507328749293,41.651291461106,44.9128868187406,45.6875409336454,47.0494760808684,55.8328298545524,44.7517670520815,39.3591874533659,54.7006087217134,50.0454424892648,63.2886382911976,55.5899509308774,53.3441733335831,45.7345559887848,55.1076252535064,45.7893186846165
54.2274844398955,41.7990229404004,29.7926614539847,31.3737285447043,43.3763074973602,41.5652418052455,41.4318041803256,39.5534837700438,54.0223617679594,48.4039964460931,37.3790090986058,32.5034862532408,33.7990713733226,43.637995986977,39.5945211429687,26.2585745034892,48.8143174057974,48.7085129506896,16.4615193397022,34.2096179861855,28.7501037876568,33.7581843159873,35.787707720853,31.0221464503152,28.4756141632715,28.482334177308,24.5148085528674,28.5375605897296,26.8773731745162,14.6364494956736,17.8348176066737,13.9055699741601,14.1071570638857,29.2052132257882,25.5731008336656,27.7453139225235,17.4867078893391,13.428603981033,23.8070680626065,22.372911182135,20.8968698190123,20.8730268071985,17.1016757472275,24.1094017065362,16.2420826198555,39.3297997818409,48.3430007064799,50.3927450496101,50.6403177712367,46.3825644264365,49.2564989430702,52.3712323679446,55.8030607715124,59.7094870640449,50.2611114498763,41.4826738022388,56.7856922584607,49.1643064041155,66.0683909401179,66.7949750368987,51.0923218993887,44.5996562370211,56.0012255549485,44.3722051788337
53.7983651124149,46.6455129336743,32.4276340125013,36.7188611937917,45.8642573868669,31.6428622418079,44.9611631541998,38.8746183716852,47.4620043600537,52.0553152471624,46.9880258663728,22.6063632574163,40.0835458219961,58.621922305284,30.6690936621638,13.6157340164378,41.9182442313502,35.8515680000852,7.8621620263742,26.374432455934,21.4304379318568,30.2152911066521,27.0398427647028,26.082837727959,26.1967684219807,28.2933972683349,24.4976168099706,14.1909191783023,21.4317409767406,7.09672094010199,12.4247792519941,6.0197889955699,9.18146907121629,23.4705421055402,19.9159820974274,21.159913388949,17.4334768205116,13.2544089208937,21.8255893344877,17.3399806620023,16.7312406496386,13.1071054944796,9.2661014470003,19.7226248418374,8.39055363399007,36.8001121308267,36.5794705198467,46.8877702196275,46.7864690068468,37.5808614067134,45.577492462224,54.4191725524117,53.4447186404049,61.5331576132272,55.6197746238722,44.6099374596954,53.9872516869428,54.6003169396664,65.4860031792431,73.50156776844,55.2219378870727,51.3280073591636,56.8323934822346,55.9559696507158
48.0144764529298,45.2044309764217,27.8022453002186,44.4292531036795,54.4358169957821,22.9553291240505,43.5480343050077,44.3704220493199,37.3489251203855,53.6796908326045,52.028958037309,12.223359897501,42.2978358476812,71.4796501547186,16.5722781323155,-1.1123740732645,27.4287087417973,21.8729778698989,3.54890756323946,18.0740582695728,17.5821629798369,21.4859361313884,19.5968645515344,23.3317274286145,21.4481804082524,23.4183502514801,18.9520566641645,1.64326187648758,15.2988056299125,2.20621425724428,4.45876255283632,-0.937139550671184,5.3390910116082,9.74450016260603,10.396620984496,12.2321112308953,8.22336200189255,6.49495741010281,20.2829662289776,9.11392039101175,5.54656618197673,4.58702592546489,-2.73534057500311,5.60872659485238,-1.3662030288115,21.1571417208184,18.5066315177066,32.1407007508578,33.7382464308346,26.8258413606103,33.8703925217171,52.0293948866043,37.3084595410479,52.4317890499855,53.7000744394245,52.4123300461435,45.1379102770047,62.7497645144127,47.5040099746151,61.3285675254566,57.5715548006209,61.486494572811,49.0516435011371,68.3485639615658
39.5118788097163,35.1446199077058,19.8607378576737,41.1950556127256,59.7578104582435,18.130066708351,41.446110124118,50.711773119036,31.0872550870997,62.3685838546177,50.4602787461365,9.7088623999535,48.6419983241504,85.7067089094313,7.24511405155466,-5.99198512480184,16.5889640741363,20.4510974175072,6.5533374909284,15.3092895684081,22.4596179043471,13.6365155497656,16.9642542347177,28.9503503574355,18.2359411744141,17.1165324512551,16.1416991512535,0.720218951306464,14.7768832374721,-0.788016431169621,2.56277710128327,-1.76877847338336,5.78278759968235,0.371281379226298,5.86187655048927,6.89489831743052,1.33250489710259,-2.23135496461738,18.5942286862657,2.60752522250501,0.871390818097893,1.81765660694857,-6.24344188028219,-4.48630392774833,-4.46858630988516,-1.40880956158744,-2.46979822813689,9.70243502791302,13.0158979751425,10.5232214450533,14.2148381673177,33.8330695917345,14.8042736938648,29.9090270826155,35.1547753769823,46.9020993969847,25.6137227447487,50.2417030553872,16.0387772570851,34.4100820390023,45.1052202944284,52.171008842331,28.6502679905461,60.7115244466801
31.9108253587174,23.0594703420752,17.7371095102729,26.8569878612906,49.3327513277778,14.8276326573241,41.9820545305061,51.1464189189744,32.2371689716873,76.5523367781815,44.5669132457869,17.504306942619,65.4927721731319,97.9062538656086,6.38926620997329,4.80788134377886,17.1418058962906,30.000193390639,19.4837746133193,20.3225519774993,29.7806752036446,11.8195603443617,16.8153253244703,38.1492334269873,19.95164940607,18.7076292200267,20.0990495778528,8.11712673147734,19.7507895790711,-1.77073122904265,9.88467224528236,4.75466687229999,9.16717140997114,5.71880582079606,7.89384866914463,6.4083049604909,5.18239750973256,-3.39265233195428,18.4485090105992,3.89302198240761,7.15611749748309,6.76975437135565,0.840945321342588,-1.40704673503075,1.31345630703146,-12.7121868357913,-25.4582652638533,-10.4291360443408,-10.984957673412,-14.6954703274001,-4.92254320042389,4.51692980118519,-0.94833563890844,7.78223508594835,7.73079416327836,22.6516235615862,7.29131958138341,20.3300559749056,-7.23436248600449,13.9138004495135,25.425875305089,22.3432205142857,9.48091981231046,38.0427279756195
27.8980130507002,16.0251767081763,20.1353633526213,12.8697985919682,29.9611798637884,14.81056677751,42.3374608877684,45.3072485291458,40.1904962791576,85.5333909737246,36.9105494972984,33.7419438207087,85.0158839158908,102.311902991415,15.3251913631143,26.9344318806021,33.2998116030717,41.4446822833711,39.1196118942885,36.3153127737012,38.8984097017502,18.0717806106334,27.9920606642951,48.0077524483244,28.1132547388497,31.7703230524215,30.2473269581115,17.771826283678,28.2987325374284,7.26363968823781,23.7946769699755,16.7833337174521,18.1317226751808,22.3229598250771,17.5312449561679,13.9818379737411,18.8350869610839,9.66439463124167,26.4781748479343,16.1673682576505,18.3001418104866,19.4408055546723,14.4836978986274,14.7188528044844,14.0981682781251,-1.6991896027839,-34.3626193887816,-13.2134864570284,-21.0301955445037,-28.5525469293836,-8.02700591547238,-11.4593065899449,0.0161479885862426,4.1523761504351,-7.11768382937524,0.0470679139574561,6.05501055654042,3.80807832496279,-9.40680798628405,12.0361307925814,17.1575021837178,2.9784397522672,6.41397781664662,23.2918143378423
25.3347561266486,12.1293189562779,19.0722194806328,1.07284961452229,12.3398033424676,16.7484629682801,34.2640759635605,33.6837287350166,46.0650197120419,76.9833128495258,26.7400614138183,47.2909701625365,91.0590351116009,93.3473079624451,29.6071622936173,49.6041639874878,56.7090229613829,48.26622901452,53.7844385787573,59.3900018045903,51.4466607471188,28.3033628196777,51.9140348668297,59.484626972821,39.6498390909837,45.8164602863217,38.5685404292332,27.6373663390785,38.5169514379081,26.2094921876649,35.0279340216372,28.2927655073934,34.0846918732165,36.1359900158051,32.6339474731829,29.1174660881072,34.6566036099845,32.1568017907569,40.4606840338567,32.7884352051113,30.0563147916793,35.7965879728207,28.5420946818269,35.1551615915592,28.2122187776357,20.0744919646497,-13.6190253605921,5.47633604739227,-7.63796141489225,-15.9718912113388,7.40702001601243,-3.77656002239538,12.1499209448903,16.9658288424108,-1.32229594895424,-4.44698379148543,13.1471964567067,7.35940180616648,-1.53134339990057,16.8900251241863,20.6712827588361,10.3172360718212,14.2614972434483,21.0407605577001
21.1760265048548,7.63753658143812,13.7944578090634,-4.77773153627239,3.04056455271648,16.4891215335592,22.2773749777958,24.4843892783639,43.0335208567837,59.4037373292384,25.2882186134358,46.6578886361133,84.7872390387155,79.0386102707098,35.4020764684402,60.5679524882622,62.6094476606892,46.8514530595723,55.5421200762744,70.3766598879827,57.7638250575489,30.7935484209553,62.8469736979601,64.6487204049041,44.8387418340355,49.5840184807012,34.59177068587,30.2234594156657,42.2770866545947,37.0054480723408,34.0135698865374,33.0499707837312,45.1416625594504,35.2538381545554,38.8628430125262,38.3399582560248,40.5458704392102,47.1047215803051,45.4453155435802,39.0324097759403,35.576863825845,44.9421255367739,32.5277936023406,45.2888380982246,34.6571210545495,28.3569726999906,15.154731180244,24.0360279200437,8.3322177428932,-1.14915447836736,19.4011277813361,9.18436186456071,15.0281566062688,23.1396063116221,8.98045297492492,0.296877162544243,9.56859316746717,9.20315722674582,-1.05823762978112,11.0275154095889,19.9641256638828,20.7862504387177,16.0192192914741,16.5670076738665
19.2693055615431,6.98817397501842,9.75394790537269,5.0365080512978,9.77660280594252,16.8083817297122,20.6128525218307,30.2543509421963,35.7510480999208,55.674139367025,45.1597003957116,34.8424844368202,79.9208373182396,74.9993276036316,25.0130286002726,54.3189101892931,39.0383455124475,39.2827489679967,48.6888264602453,54.3688809183599,50.1397084320529,19.3965625218735,44.3835440774032,56.5771151431837,35.6046089175144,41.4673762360443,17.8773277634641,17.3462704863069,33.5182725079238,26.407592854623,22.4562309662162,29.1328659233626,38.1405037907949,18.9425337302518,26.6953625337971,29.6418481204169,31.1704577520995,41.3409376491815,34.1594595085457,28.5976545197378,26.7002357360842,38.9119976345094,22.792523059134,38.0038395445944,30.7833971620041,12.0195260997973,15.7831602504278,15.8203971246764,0.584406721137147,-9.37993213415105,7.92668008935815,4.60277128529954,-2.65291327345486,8.40957506310842,4.29917798614869,-1.73837769377714,-4.09316511891641,-0.589579805729735,-10.9939183062423,-5.63044862558924,8.48355766244062,11.2714345608751,5.65823574757879,5.54630260987575
20.2384671539667,13.4869555806035,9.63032224664843,21.6558539529034,25.6204502181356,19.3357721976365,27.787835978026,44.9305306033043,31.1983758212975,64.4757327812565,69.0601501544016,24.6051387030956,77.6199360827215,78.5626275616702,9.26558815518812,41.7752960778503,8.17680027206264,34.2271259105075,42.2818347465915,25.8430899834182,37.8759850732229,4.12465564933366,19.8181241163661,44.5797473832738,17.9717193661261,25.7160626863423,-0.0294327912452685,-0.45321015945266,22.2806377736351,7.12951556603919,10.8856591078658,19.4086009391233,20.3916980485972,-0.277429960174991,9.45720302791498,11.9713298487328,17.2154264114123,23.1096242910141,18.279063530145,12.7882668107782,11.3203140555756,26.4126157366254,10.3300078554139,23.7779655832297,23.7764383510115,-12.6473346458674,-5.72510709765303,-11.052356374938,-20.7422034781077,-23.5923146644219,-13.7828884621921,-16.1657061211676,-23.3657906846055,-13.0864677580524,-14.0798754884531,-9.94441964076044,-15.3061752937027,-14.4046129103036,-22.878197481851,-19.9115266504153,-5.32171054528873,-8.45242156727812,-7.05270481227665,-4.41050676625155
14.8570678619971,18.2841966888961,9.27104262732701,23.0453341017142,28.757788513422,17.3858569577795,28.4031148967035,46.4221692198405,27.7925563834412,63.0303102410826,69.9957086036567,20.4390733768324,66.7053987578219,73.5449904402517,3.17642464400143,35.7469958811229,-4.91261077345366,34.260885165068,37.9764781204052,10.4827439320798,30.3209407671966,-3.57806679943632,12.9760980547021,37.1884337451222,6.83168039808149,11.0625263037153,-8.684695625946,-5.16919387837388,19.3432336858952,-0.909480450144513,4.63115183728637,10.895864866636,11.1098700676374,-8.67525707904767,3.20963453990279,2.45191661993311,11.1323690714366,12.1598701167815,10.3994739426748,4.61665509059819,5.53990423005478,20.1426129087499,5.45991820319374,15.9171581019326,19.6621767207591,-22.6973680399403,-16.3529444352544,-24.5568124498646,-28.1899454880822,-23.5929257394647,-20.9857839897064,-34.3245952095088,-24.6480152433046,-20.6629623836031,-30.9748796302296,-20.9144735874111,-20.5444271787542,-30.4483310968208,-28.2639562842244,-24.6819294414992,-16.5523408776404,-24.8120106043514,-13.5038655386956,-14.8150427751605
-0.577565005375485,8.09547654235227,-0.787335154193721,4.95227890153848,11.1164490759243,5.64646378428458,13.0304270883482,24.3658355438397,14.4899166857849,40.5218132665921,47.325172794449,13.7123417937815,39.933863130193,49.8634047346127,3.42944024224308,27.6100282251215,-7.97528147157656,27.8391277119924,26.8721123124239,6.77461166201576,20.6850399932539,-6.75744267624039,11.8690639757927,25.8523205723822,3.47129300626821,1.97511241106967,-11.9988629220181,-1.24680602398834,14.6023410403623,0.0648898976601342,-1.06879333036331,5.52025841258581,9.52010931848216,-10.590121978781,1.23114377524126,0.168396745515217,8.62420633209215,9.6371132099407,5.06319352844758,2.19205564339785,5.01516553112794,13.6262082082016,3.64842107988407,11.2874412544863,13.6334945767128,-18.9149795762092,-13.0131722008627,-18.3870057194454,-24.9510266438789,-25.2011202648484,-15.2631811753433,-44.1250181339212,-15.3297511463974,-17.0616299453026,-41.8677673909359,-42.8317336772741,-24.6628019945796,-52.6067781412519,-27.541356825258,-24.7623093101232,-30.2232846167356,-44.8408829235423,-17.5465171445359,-31.6065387851305
-15.9141782901731,-14.9338680055974,-19.3092808492582,-15.3338172782604,-12.3818662609513,-12.1830766658961,-10.6054259005419,-7.57706524847937,-13.2760918620862,6.49680791127462,16.1191220277945,-2.13500742765238,5.26165829278477,10.4913365771951,-5.3549326442072,6.12196167805673,-19.7370947491028,7.79036210854432,3.49335656352161,-4.63880298524498,3.09240304011866,-12.0675528656148,-3.29907363211281,4.16173136142639,-2.75794601366691,-9.01922299900604,-19.0748839782326,-5.42313225488314,-4.07251203470086,-4.63856512838199,-10.4920592897974,-4.38461583130734,-0.950784496925336,-18.4803972265422,-10.352737639489,-7.00742737786877,0.0255817870383232,0.247082771397084,-8.84551179209783,-2.7248922872736,-5.56536597216441,-2.97134167158647,-4.2617303873577,-0.266201411935297,-1.14246826078337,-17.12772220322,-12.0876371146806,-10.8337924072015,-25.8766323416127,-37.3333531411566,-11.254251556226,-48.5840627184231,-15.4535383588052,-14.1692619145078,-46.2514749375098,-66.7016913948319,-27.2824124622739,-66.2902583845981,-27.7409076118064,-22.0407035262403,-40.8031079539757,-64.9438349215595,-23.001144840853,-44.5632473430431
-22.2575813585878,-31.3033754199316,-29.0902791635434,-23.2965799991989,-25.3626125015572,-24.7025919158774,-24.9994114011701,-28.2927164129309,-38.725921649553,-20.2644466046041,-11.8421982194658,-22.7733838183326,-18.4930118664356,-25.2491601379211,-23.9138904734939,-17.5093174781584,-34.5730565469185,-14.0753885413147,-20.6171429048513,-23.7103509511688,-14.5608788911506,-15.1065203395092,-25.4410704876908,-15.9961669759935,-11.1033986866994,-24.7692969692585,-27.122561785991,-15.8765066702468,-25.5316848747911,-14.4074761182913,-18.2839483539122,-20.5821111966974,-17.7317098291507,-27.6449594350616,-24.4928737334444,-17.336778445785,-10.4260669564826,-16.5940356396854,-24.6196627067198,-10.5467838936379,-21.5651772306747,-20.2916917889736,-15.6280171449901,-15.1068648565748,-18.0893221603915,-22.5892270965411,-11.1072150825787,-8.8634872632448,-22.3796864516978,-35.4456174493686,-11.0053562583474,-38.6612557903123,-20.8917940322455,-9.42073953075696,-35.1087827843705,-62.4743473371463,-23.1203207349075,-48.2463738668743,-30.9734234166312,-12.3512197744792,-31.0780287858827,-58.9365850852235,-24.5626909163386,-38.0890599778407
-24.7650036995411,-32.2573871606748,-25.4209840793016,-21.8327368744508,-28.2952815928035,-27.7229353207384,-27.5447045465828,-33.998355611766,-46.5598373202486,-31.4522804780041,-29.4299691881218,-43.7665105303959,-25.0597447687415,-40.9273695849795,-40.2847288226354,-31.741577850413,-41.3469441842684,-28.3223940320341,-32.8223736587909,-36.2858320383428,-25.8785332011271,-12.5724701929771,-35.5186281487904,-25.0594303445589,-14.440426755726,-36.4169840794883,-29.7557104537053,-21.3025683540356,-34.120253367646,-18.6560915868438,-19.6031476440963,-34.3693221021707,-27.2426728263241,-28.176177386295,-26.0809258150036,-22.0329085104102,-16.1158868668359,-29.2144182829856,-29.4248960666292,-19.3873020161358,-31.4044137181728,-29.8501209886763,-22.8576130605363,-23.6949521410086,-25.9483306086445,-32.1248664542216,-4.97635155518853,-10.5994275645107,-10.7782804038756,-12.8326881514162,-12.1955351020714,-12.3096774895094,-21.6537375828267,-2.23632918014219,-13.6485989778358,-29.274837210151,-17.0765549779771,-9.9614977447196,-35.0969259098005,-1.13396307337027,-5.66832526212828,-24.6895809542444,-20.0632464152148,-18.6452774383574
-30.5642313742906,-30.5973312875181,-24.8620499350506,-21.2524570271687,-32.8698265928062,-31.8722537228581,-31.492068613471,-37.2099479541031,-47.1423734312242,-38.6913558413566,-38.0411546275703,-63.4032233125459,-29.2477474962275,-45.0669605641459,-51.1032581669995,-40.9297754578586,-47.3920508741324,-41.2694289525799,-38.7093735804624,-42.3357999829312,-34.3373879296225,-13.3695298255038,-33.5425866321136,-31.2638706104231,-17.0860411769005,-40.3632575557307,-30.8147716010874,-23.6424583995025,-33.7064471569427,-18.5680597290239,-21.0493954912743,-41.5923276211075,-32.3225309440934,-26.320821768479,-21.9174661829546,-26.2129536926609,-22.7089810294823,-35.7876847960371,-27.7045574521193,-30.7155084315366,-38.796672755013,-37.463342731275,-29.8429723458709,-28.8059352594157,-27.820481303522,-42.6769992386894,-6.56093140347416,-19.7027667991132,-9.38522518157228,1.12187111368564,-17.9659686876447,8.85481267798654,-24.3835650476119,-2.89942067897271,-3.74143443933239,-1.05410610527563,-20.7079327472211,12.3320197738062,-40.8568904783941,-0.484201466893823,9.59437356946787,3.93593560716418,-16.2837373284108,-4.82123705210354
-40.2259247587905,-38.0575995320768,-36.8063661738933,-28.6907526818137,-46.0215789971324,-43.0164741498364,-42.4524162143027,-45.9256435929001,-55.8630376337023,-52.8212616600863,-49.7162080792132,-77.0660732117601,-42.6719996591553,-53.0419745472146,-60.2990875600689,-49.6699343693892,-59.1317097102532,-57.4617179512414,-49.1206294510667,-53.3727838345717,-42.8353770017365,-21.8846576695564,-36.5537061046275,-42.5295197250663,-25.4845071364341,-42.1965071523267,-34.6479914353826,-28.4944953082744,-36.3546640215975,-23.5791816750154,-30.1271550437871,-46.5672237574347,-40.6006607488532,-31.5758665303821,-28.9263254350612,-39.4166928835335,-35.9539232240629,-42.4659704067407,-31.0981990020445,-42.7557854256628,-47.7480625874195,-46.9300962448583,-42.8189894702392,-38.5009998080383,-36.006692683018,-50.2314548036434,-25.2877323585239,-36.8121773890096,-24.4555482770268,-9.59200574686198,-31.2328814635145,5.89841751766187,-36.5005092319666,-13.5918073409962,-13.0387914389077,0.905920632900841,-34.724531805069,7.66719645365158,-51.0968801026458,-14.0489379018187,4.31013685411717,6.11420420778453,-20.8252087726461,-2.98831764101061
-54.2673659245218,-53.1089264721289,-53.4485103599911,-45.0654799815306,-62.1393463130715,-55.066928712348,-55.3011705299327,-57.4447270586335,-70.1252335745053,-67.7796716586875,-70.7611608105849,-83.9079584696607,-58.5313341533976,-65.8222947201526,-69.8558383980915,-59.0995863053617,-70.3863833195846,-71.6593983157887,-64.0677063855896,-71.5912358951189,-48.7869888800244,-29.5667556678803,-51.3691633822012,-53.6547593438643,-34.2577746272453,-48.9210127564716,-38.5526879051023,-34.5405730907892,-45.9808691744973,-35.4367182273425,-43.9697114700771,-54.3886662659546,-51.5792369146482,-42.2260577334614,-44.919208535569,-58.881355112173,-51.4132630324526,-53.6306961787243,-41.2615624477393,-52.2115591255375,-55.8860249944384,-58.4174329199801,-56.1531336537966,-52.7641326216999,-54.0071067604454,-56.9411546636239,-52.6023276403775,-54.6409851844264,-43.2838286724536,-31.1170871455145,-51.2086097130628,-17.3071895420752,-53.3285306772267,-30.009158923458,-34.6175781386043,-20.2686776397521,-51.6282969556326,-11.7621651179657,-67.1907813360529,-38.2601971175121,-12.7031822603547,-10.1402754281202,-36.7299589083275,-15.1630362936209
-65.2087973424248,-65.0471408498988,-63.1967078189453,-58.9023146601964,-68.8537222902641,-62.4211526160919,-63.3419069281004,-64.5697086154826,-78.6387452478467,-72.8164195293761,-89.0056460256481,-87.1434748212614,-67.2390304062142,-78.3347683912637,-79.2806236864748,-68.1754530985019,-74.6989438644516,-75.4040242655547,-76.694745146783,-84.0879045674587,-52.1432696024788,-30.4333350388654,-62.7720066583263,-57.9012710637601,-34.9666417743556,-62.3195689336198,-42.3464648425321,-41.5886594419877,-58.0041668409757,-47.6663648081285,-55.2161260610329,-66.9657871472857,-64.3977007335667,-51.6563709969044,-56.4096653440263,-74.4807397188845,-62.6437438940834,-67.7080662052731,-51.2759268499112,-58.5494129984231,-64.3375999257678,-72.1153122928096,-63.7467379855632,-65.9127909956647,-71.5423477385953,-69.1127519574798,-74.2721307076876,-65.7298568001008,-59.0962126499567,-49.474416949533,-69.2364603313584,-44.7781941469754,-66.4952072003556,-48.3572408703389,-59.5915879281095,-50.9520039251684,-63.9652702095159,-35.6235790120178,-82.6548087004875,-64.6115083574156,-31.1898573305156,-32.8241680187022,-56.4059523039554,-40.2192197471954
-58.976036065956,-61.1731155138413,-60.0703835295715,-53.7430862032381,-61.1801878844571,-60.0790003841469,-59.9594160752673,-61.5625280252158,-75.7031305241274,-65.0398837551363,-94.4661943670983,-85.6557401867636,-68.5813993125666,-87.0171399904787,-84.0998451970859,-70.0169857546517,-70.7449805378183,-64.6697445349612,-80.4599666518994,-80.2196993758503,-56.3251365924714,-27.3206607844942,-57.4736404687773,-56.3495059613477,-30.0968980448785,-71.9172060992438,-47.5660557927579,-47.311742811764,-65.2200806634613,-55.2194894811934,-60.1274388564894,-80.3046008379199,-77.1766626953986,-55.6498291637728,-58.732191235484,-79.1636770551147,-67.7251391045001,-78.1154157042042,-53.5924865423305,-60.2856267305509,-72.2467655718512,-81.6965575319431,-67.9178712704953,-74.2782663215607,-78.3762067082617,-77.2825386630949,-79.7966711944374,-66.4362069203572,-69.4280516273505,-59.7944030136532,-68.3850519892957,-60.4616391196548,-68.6814868048808,-56.064618518593,-69.5472159689114,-69.577204118947,-62.5138747157598,-50.5708398718309,-81.1679553351696,-75.9257846208778,-40.4729194709847,-49.2022052848372,-62.852867097768,-56.6250015050839
-39.1109065039111,-41.7624530685163,-48.1840830374035,-31.6337644997006,-46.4733419419987,-44.9003883185551,-45.3861944156042,-51.1674020733181,-62.5514298206347,-49.6718840554837,-93.15788336589,-78.0982923017987,-65.0037730762182,-87.9806684443814,-78.5396911498673,-63.6918738489527,-60.7136253901047,-46.9742736173838,-72.0880616512541,-65.8152477960777,-57.7559072953387,-22.1702171937015,-44.521473385994,-52.4014673642749,-27.6228336306378,-65.4847046012124,-47.3015050177476,-43.015604421961,-64.0522485672796,-55.2438987540163,-58.0073915330894,-84.7536876612638,-82.2462071903857,-53.068412199215,-53.6744115181763,-73.7747904294881,-68.1392439718981,-80.6542460998157,-47.7680925085075,-57.0596514928125,-74.5693888056453,-80.631181900501,-71.1237964505261,-76.3597402385484,-77.4316167450066,-67.180644012633,-72.4588215150463,-57.5860757948877,-69.689806900853,-59.8266040465741,-48.249202174635,-59.0886862260512,-54.6805409031729,-45.4422074788418,-54.8901880125542,-65.3886020117123,-46.1471585351119,-47.1901246495388,-55.8146618825495,-61.9789224213091,-35.1225062624554,-49.1126517025449,-49.0755088510461,-47.3221758285608
-24.3222521251493,-23.1905008709535,-37.060867770762,-14.223951243856,-33.790697010041,-24.4496323888037,-30.7320530860674,-41.9172153786669,-45.0166391859838,-37.0600945297224,-89.5816027516104,-67.4401970302137,-59.4005598495774,-84.3178350222345,-61.8625098991124,-59.0310109751222,-44.9703837485967,-33.3928429402594,-54.150981611291,-50.020859315883,-50.1517077566778,-13.5750760850571,-34.0470441710582,-46.4134240217555,-26.2897291290704,-46.930813517357,-32.6835801191764,-29.2819459080351,-54.5446179246719,-43.9029326185056,-48.8288848476404,-74.0265184436994,-74.5657347230593,-43.4286822190532,-43.3756900541199,-63.8016495528151,-64.8926507371043,-74.1691486114943,-39.5306754179842,-50.8310421909994,-68.5958569146059,-69.6328687728588,-70.1849271983655,-69.8472935951199,-73.1843016457497,-52.9287857611987,-72.0728513931941,-48.4155693521803,-69.7323209945345,-59.3915434320468,-36.6130763737445,-56.1084901838893,-34.9018712398523,-34.7290558502539,-42.7106801431747,-58.1910248767905,-31.8138855588521,-43.1151630104272,-27.3639695449116,-43.3654151976166,-29.4224595340876,-45.3177203164378,-29.6140440127239,-35.7535965587275
-25.1062045869393,-20.4735841657846,-33.3448846424209,-18.3921393440072,-31.4792578993413,-13.6415591449521,-28.8460934109279,-41.0947379929487,-35.191644324081,-39.3194749171623,-89.9400950596966,-58.1824092235562,-61.1840602237988,-92.7033516671668,-41.1033088734814,-60.9288484548195,-23.5273451543078,-25.7324504171287,-39.9778821893133,-33.5378076015511,-39.6785543881024,-5.28741476088721,-22.7225616864808,-40.0458404598837,-22.0595485039729,-31.2657057494997,-11.1306243422916,-18.4321949204868,-39.9162978127482,-24.9294657445849,-36.8129132808659,-54.6120457635997,-62.2654147340903,-28.1595776891959,-32.566538538275,-52.4119643488771,-56.6252464038567,-59.5071198656296,-32.6854488935063,-42.5127911298592,-56.53427254836,-54.9479661347419,-59.4648660668171,-55.6965605924433,-62.6374587378994,-54.4558759918081,-86.3131291297016,-49.2648691222778,-84.3518765155395,-73.9663194836689,-47.437802110431,-69.3426517737814,-32.00328664627,-44.4570681676318,-62.4478103966998,-72.5119712787781,-34.7379405517853,-63.8140255438646,-22.0108560242832,-51.3622096384533,-42.3459058736236,-60.451487986658,-25.1176016601867,-53.2297285347544
-39.6439739023263,-37.1178120411327,-40.9801712601361,-43.2310169131532,-50.2966652072515,-22.2739985228906,-46.2048135619805,-56.7096554531773,-44.5477943677455,-64.402947274135,-109.827260468685,-51.8405668331962,-80.0459045522035,-125.326397353762,-28.1387424637524,-65.3971291045669,-9.93433228248544,-22.5617530628153,-45.8559196889766,-20.5451847912288,-38.7353247170818,-5.91900646113293,-14.2457028938472,-39.6334085337442,-22.7916737162256,-28.9894048680373,-4.65624300767624,-16.9584973465171,-30.9851939703633,-12.3863674323328,-32.2296532567332,-41.2443798153409,-57.509484076013,-15.0839553943373,-26.8547231552216,-42.1333429366744,-47.0975267179152,-45.320227069707,-28.2433152299249,-36.6880991700866,-47.4318576770041,-46.5955757472718,-41.1120795885139,-42.2888992047026,-49.8524035876922,-55.2237237893287,-93.392982643486,-52.5196358802625,-98.0374744379827,-93.0184622239637,-55.5193548316877,-88.3665194038611,-43.6911519074211,-59.8254812365946,-95.1331880622526,-99.2583754213277,-45.2596294705495,-97.8170863384326,-33.4990980184576,-77.7786256270936,-66.6822211981902,-89.4588165900401,-37.0281521396409,-86.6910247123032
-56.7394458880549,-63.6858031641923,-54.9785365616527,-73.0044203477865,-83.433085951485,-42.1182426771392,-74.3818178270848,-87.0711585777832,-65.7166547105404,-103.494848758377,-142.222080372524,-43.1387929591317,-109.664733960351,-162.553573345725,-26.1676430402825,-68.7187728887924,-20.7476576758829,-26.5386808961308,-66.0216908853839,-22.4599901033143,-47.2204361106162,-17.6600302105756,-19.2967529731657,-48.825632751382,-34.3289761108281,-39.889851060967,-19.3014257367395,-21.7371004347763,-35.9475628454145,-12.3460697295733,-38.4473254277119,-38.3510270199116,-56.9070907137987,-12.2449002568717,-27.1182883058339,-35.9081099002139,-43.1413194193345,-39.4786331088837,-27.7500658624696,-36.0180035583204,-46.5170877225978,-45.2159658355181,-26.4025620857907,-35.5871470676564,-43.304704013772,-31.8037934467403,-69.8541888451023,-37.7830461698769,-77.798551429347,-82.880496466508,-36.0960263543335,-82.5478108231364,-38.8577249762742,-48.6747805887101,-94.0582966449618,-102.809895121667,-39.8967903680689,-104.125090915352,-30.5023069965393,-80.5686662727773,-71.5709209230472,-98.9423984872857,-40.9417269926942,-93.1502759441492
-59.0890824308285,-77.6352218514221,-58.4106914900258,-85.5831839897776,-100.505732050636,-50.9122121751253,-89.9044331426973,-107.74132953058,-79.1225348117645,-128.846327188474,-150.419853362894,-29.617041044707,-128.807029241376,-167.63145497879,-23.6822157120953,-67.3403210144088,-44.2320999131689,-34.2507986496117,-74.1558356306165,-35.3577269126217,-52.8724726030154,-30.6199058974446,-31.0074744132491,-58.343554619505,-43.2346457402145,-51.5836021180433,-32.2597967334904,-24.5285623956901,-42.659751194848,-13.2744534336842,-41.5184948863174,-33.8538957237087,-44.6121272892449,-16.3106904451012,-27.3309755348777,-30.7287319414489,-37.3441454167852,-34.0860943984317,-29.7903706326203,-29.3553280921922,-40.9460123154865,-36.751502289983,-18.5652739679754,-26.7462325908498,-36.1100218918832,3.40438994985052,-18.272087589684,-1.60168384376963,-21.6908900879854,-30.1991013162266,1.65131599361511,-39.675288237635,-7.47264847815696,-12.0193123132943,-45.1161403775719,-61.0530719552775,-11.1412749775053,-63.1593526871215,-2.50294317787805,-43.7856367763973,-33.9966623971284,-63.8366462002053,-16.4095874086504,-52.4018005198945
-43.8086271777139,-66.8376269956062,-47.3060171168189,-74.6145756977782,-87.9762067426266,-41.6637743208766,-83.3706834163818,-100.681501669493,-79.7912418368294,-123.175186740061,-119.165243035085,-15.5542740093316,-124.123091885523,-134.679803645425,-8.41935370179181,-52.82610761646,-46.6287741143589,-29.5897256963252,-56.8390211412674,-32.6255384138828,-43.8859778550032,-28.5992251280833,-26.6202792575962,-50.154744069925,-34.0496874091996,-44.7822536132332,-23.6782051366601,-14.3136088507282,-31.0823615714132,-2.58868540310459,-26.410569368332,-15.7912656545853,-14.7442424300087,-14.2226000042437,-17.2890658643433,-18.3334684205737,-15.5040362920957,-14.9945808285998,-24.8672760325046,-8.72565576212263,-14.8186934968593,-13.8854164196377,-6.81218715615608,-4.14238851046212,-14.3710937262375,26.7761253129744,39.4447161505741,35.6656522852321,38.9597266266427,41.0328379135437,32.0370979486758,20.0800944372179,23.3106626881134,21.6006341213479,20.3651952974106,9.9573406713058,22.7201843247449,3.93828041991945,24.864258568138,3.50133272834703,33.5163926246038,4.88101974897958,20.2602400302458,12.0015953233872
-34.0792694778165,-53.5155316832072,-42.224634337359,-63.128719600973,-69.7840038045111,-30.1518260436964,-76.4370450689098,-85.3312250958077,-73.3649088051971,-105.53977148109,-77.3580409026453,7.56790025606053,-100.308093549274,-91.2642976601913,24.2276786571634,-15.9016393621937,-12.6837090331655,1.21096830748805,-22.4756717414682,0.498305294283657,-15.0181362536031,-5.49277360658833,3.71288819961088,-18.2383904049669,-9.4093038513565,-11.6248222528636,0.608602000271152,10.6877667198409,-0.0546039852572913,20.2665725829791,3.76084906882091,14.6161514352402,22.5189325629387,1.58133112908754,6.98585034348843,4.44371808551772,17.8520740261445,17.7686654163342,-5.75619322648878,15.4187113689326,23.8081504783237,14.9620594016528,15.4007987728891,25.3408608343081,19.5330143837035,34.3731671698616,77.5048950737913,52.3912596556694,74.9347762447382,92.2489944270861,39.6332254673704,62.5721862123968,28.2824078664059,37.0987175331452,62.1111838812393,68.1905704631646,37.0573250632081,58.4056656157493,24.2262981228736,27.0350996884822,84.5849113635473,64.9200266736461,35.0197070156764,57.0034411171064
-47.6774825936468,-61.6145728650486,-52.52233026845,-68.62752164575,-65.8121358732517,-22.2321990516591,-83.6454726288583,-82.134456159053,-55.4711846495007,-97.9420278529067,-46.3320223212893,53.890390803857,-61.7306981072574,-48.4306186710078,69.4967199328565,38.9019770305182,33.2225672499566,48.3567639306518,16.6891848753269,42.8171529413099,25.1874154320262,22.6318028175699,39.4147811570806,20.7851454177522,16.2804644054974,28.9776374320183,24.6461280677139,36.3448231647127,33.7923442837319,45.8463308564712,33.2432357459327,44.262907778878,53.9579756622537,23.4593998592223,33.7766700889333,31.0640077079586,45.0678153484633,49.0942905873474,17.2403386583304,32.4178176788238,50.5543747846918,39.8226836622265,41.0482377351502,45.2629301047085,49.0728986997893,28.552482074916,73.7372731454074,40.9287277451436,70.2701367016566,90.8310097556745,23.0245177555249,57.082115653923,8.57568154297213,30.3986779085228,57.1412691934237,73.7839187614585,22.3481131275486,65.5280507689115,-4.00408404064421,17.3706713674745,79.058626368828,72.4183600791875,17.8760943562009,55.7381087275591
-64.3830565655514,-72.7648721421215,-54.0037196604088,-68.6635599451617,-58.0581756435338,-3.33637093065203,-77.2332224326035,-67.7830534167193,-17.0040186711724,-75.9381046144796,-3.29241436993415,106.748037867643,1.78333164825412,15.230608001612,106.320856682992,87.1205046544862,51.7527940608864,81.7778519347194,49.8199370178444,63.5586604681488,53.8546708773288,33.457938252487,50.84692094866,45.193879822955,28.1388759090546,46.7601615677143,36.2545146657933,45.3421704183291,53.5105609270721,59.0240249268482,48.0148931328167,58.8183159651914,69.5623897199107,38.1819722309723,45.6666607885319,50.9681924396244,58.0714836546569,65.0791782038824,27.3891176330327,41.6366041323238,55.8803229721195,54.5376971781801,58.9959618807701,51.414106612067,63.129330595239,9.29841854829011,25.2953409277769,7.24391131203131,23.2549151929114,26.2955148371459,-7.12595103839073,-2.87174773450238,-18.4209990327595,-1.87545542204912,8.94996538280881,13.8868917426625,-9.970768838749,13.480006775744,-38.8725145883429,-14.5821524421668,22.5913218091708,17.209428616032,-14.7953923011538,11.0675614568703
-52.4311631082448,-55.0347892090571,-27.7510639769321,-36.6952199012192,-24.5044072051558,28.3152150639674,-28.5686369825655,-13.4678881696889,35.3610052365617,-5.28898633198192,70.0901901199906,128.314336939682,93.0475615929738,107.45902202972,109.386959090885,106.633766427035,34.253278513262,82.0775274414381,67.0269186891786,55.6595226666826,55.3509748243229,22.7331487082931,36.1776348600078,48.7579775553843,19.3435667115378,35.8400353495149,29.4369258211571,32.148717505902,52.3628554836342,50.4461819643783,43.8366279718533,56.4288658982892,64.6381533987964,38.945275683667,39.3490939881413,54.8100269677652,59.3654948957483,63.6384504440273,22.9275031173605,42.0540414819705,49.7547642307233,55.8102311363773,61.443808823311,48.491072650514,61.6066880058272,-12.9987277229205,-39.156870821968,-29.2969220728957,-37.1907276857738,-67.3208130095815,-29.9879644294641,-76.8206858701522,-35.046252231408,-42.0585563717319,-44.5912346659574,-74.502573842976,-35.6158340917471,-58.1170816448917,-60.3956881840005,-46.1799623280749,-37.2582197817854,-61.9101625880616,-41.9778404649638,-47.6124970468494
-16.245362529909,-14.471133644011,7.77990323678803,11.8208472806516,21.7754069910827,48.7479359854344,33.2954256558646,55.8848192651555,73.6883218989403,82.2278083462701,144.647100747576,105.225600134071,171.470474865928,190.075715349249,75.4669660887108,96.9997728716055,3.57137187834331,54.0344951252473,65.446713555465,31.8825655678344,34.1889405258778,-0.295706389779426,16.4065696286042,35.9619824200695,-2.26133313870511,15.6072625323238,9.31430132233936,7.11986970202283,33.9132332832654,26.3631865103712,27.8046818387397,44.9099019814982,46.3313180157835,25.0772738957745,23.625363177329,38.9671950164804,49.6181624863258,50.5808702161472,11.9879820621216,31.8741941663037,40.5192438927442,45.9344692750375,47.2750104429842,38.2188348524485,47.9411598668711,-21.7264637982683,-75.2806840396964,-44.7127263635,-63.8983095921381,-121.504204744639,-33.5997934075043,-104.603764545325,-35.4064007955707,-59.0678841734864,-57.6513091173006,-120.543397860237,-41.8409361713199,-82.464897185434,-62.593652477961,-55.3979276650803,-56.098095495689,-103.930125944986,-51.577020454289,-79.5248223695938
12.5799644256719,15.9905581009322,26.7534161085608,41.0354933051066,51.311725297847,41.7375606938813,54.4582232213831,87.2039923705659,72.5612329019064,116.593934686326,173.697012951446,57.9463985388781,176.012708062902,210.606345480892,21.7898522278965,63.6716234968978,-26.3460987614745,9.0250219100742,46.6302489214057,3.93455854041321,2.16767836602566,-27.012815783647,-1.61698674925923,10.2158328661503,-22.446758849451,-3.31657123496191,-12.5471631449773,-14.6724125385445,5.33220456817901,1.2064171810096,9.67063016156387,26.9091082825888,26.3640759452254,2.69756005774256,4.05232298738885,11.12133133635,26.9368904704933,30.8290354088181,-1.91214238199961,14.439310668772,26.1399879906359,28.0962814186052,23.7748300535793,21.672552011662,27.1096361782678,-13.5232677518027,-59.167996880844,-33.8742684164981,-42.1417640013482,-97.2896302778436,-26.6712845708905,-70.5638552661522,-28.0552771790284,-48.7493755848844,-26.5882250307536,-89.2833530417448,-40.2775395586893,-46.0420004109491,-54.4694137208512,-45.6028084852706,-36.8962126755222,-82.055903637605,-46.3895340394115,-68.6006070957823
21.1152665072536,20.7392564885424,26.3631942719296,40.7307300147351,50.4152541226132,22.037101813781,31.51412597366,68.9179276481248,40.3421202924305,84.2532780849594,137.800444841781,15.4768814918091,106.072692012713,157.146891731104,-31.6995089864898,11.9719104977087,-53.380476023666,-37.7332596260077,13.8819859378109,-20.8632457383153,-28.9194963968958,-46.5608918238562,-24.1204540062259,-19.2458342324667,-33.3391218708596,-23.4761205390455,-27.3198910736535,-27.0029973070091,-21.9919227181873,-13.6165400195798,-5.80356502969671,4.37904114797866,8.15149036085356,-13.425931339089,-14.9602232199681,-12.3954287378746,0.29329959576064,9.80116057468618,-15.7083001871166,-2.21833860963459,7.1753658572596,6.4453656376354,4.1198581976549,4.75937297928527,8.61046123258191,0.915373888138595,-7.12325133318031,-11.8347054996746,0.215556009281034,-25.3872562477822,-16.7765775584838,-9.86211444399284,-18.7155620083016,-29.908919338884,17.0658955156541,-14.6522931089102,-38.4512327552254,7.14503798069041,-44.9845230076059,-35.201649388019,-12.4310324656995,-22.6014227319104,-35.3367474841981,-36.0584815112072
21.7029044569236,13.6011222928898,19.1864774946807,27.9563125598263,29.0372708295279,13.2097826077177,6.08378373595047,37.9388429809957,13.2194650698729,36.064881844933,67.3085343220228,-3.38787470653607,32.2867280104613,72.2052879364368,-61.1023907094058,-32.8186481305626,-62.9628051893461,-58.8100322186211,-18.5867388151702,-31.3734732680922,-45.0161975564472,-46.668168617831,-40.6853021077272,-35.0160210948531,-34.6483886012001,-37.8361300477077,-29.8438517741147,-28.3690808530924,-32.4837159297451,-13.6639150493575,-13.5183520243872,-7.69030572669671,-4.86762150613324,-13.2090774648408,-24.2715364580098,-18.8536786011163,-11.651743685069,-1.26111368525838,-21.3062021597694,-9.56012131857912,-3.29768148416104,-5.71414045327124,0.411295627587908,-3.85016671308993,3.231256847025,9.89332407060826,39.9974189231686,6.27332206040065,34.1739505771962,34.8179433931475,-1.81858364835136,39.4125684506117,-3.48365603825422,-12.5206852226516,49.8409243575321,45.2740136428864,-26.6104095701355,45.025716695961,-31.3089322443664,-23.0197447570786,4.28217932550964,32.5325124269553,-21.1657038235402,-6.45380799641971
23.5490788469672,11.4611829177723,19.4565328561634,19.5158225252876,11.1661565737047,20.6204420285359,3.43885785589752,24.3971754052243,14.4350218280824,13.6108612424589,20.0078178764498,5.440098713864,7.30636983970706,12.7305878278361,-45.4188312629259,-35.8596974595333,-40.3745130978663,-36.7207780303107,-27.8958904137642,-17.5431048184689,-36.5640165230621,-24.3966397778898,-33.2666751067355,-29.0448948405167,-27.5351434984775,-32.9147425180343,-20.471410591571,-17.2181027666273,-21.2510218041323,-2.0581244604939,-7.04156438407731,2.96369721476759,-2.87713227908948,-2.92311747250849,-18.4625621948923,-8.55291014604561,-3.62472523906439,4.02113400085102,-15.1687236860617,-4.3173901465611,4.55367644229736,1.91187692893843,11.6727189989684,0.371649070754849,10.7461176467062,8.47105876723688,49.4355719748797,10.7671862063224,47.2137302650162,51.6667525947149,9.34161947089854,57.0681893783953,10.4873511757108,-2.42954180207595,60.3256707357227,57.8699192689519,-10.6351695231627,60.0744158583511,-14.1900101120527,-4.62402334187878,15.5308618224268,55.850540347723,-7.63432606903343,10.6606122207346
25.5456570839809,15.9575031992057,30.9029568999202,22.4769782302282,12.1622680746794,35.1178527906045,17.2079440310162,25.5946998631518,33.0767631230781,14.6537177315601,22.7740007648447,29.4092327512515,15.7545627707788,4.008835218052,4.30040425377071,5.1457570387973,1.10151963962251,8.83406562191096,-5.3367846300102,13.5130223610318,-9.06759536232255,9.33180349236875,-6.78252106779408,-9.57954819256187,-11.9533683993142,-9.86855675466786,-5.04909766142071,2.63712912677591,-0.980677679880842,12.9547598946895,10.5176553863386,23.1009496522772,12.5103866871844,7.95327205059326,-1.64483396079969,8.42482283303633,11.4610217698581,17.3871723529585,-4.25132204484451,10.0790003190346,18.9985865224678,19.9056585223485,22.9978151680072,13.3754192562688,19.4119084931166,6.0590976127152,31.1444383577496,7.34725950576175,42.6927162141077,39.4229542707597,8.88691590724659,44.9853769112499,12.3929244284711,-3.63747392440851,49.0618284560787,35.1183954092787,-8.85174739284325,51.1788129755006,-4.31385358707447,4.27712182016401,13.8545953786586,47.0205256802649,-3.1862260552487,11.3159651293249
27.8058816189736,23.3016045678004,42.3610229125871,36.0261826524041,27.6422778183406,46.3809414887237,33.6384850620759,33.2549327902064,43.5632385992934,20.4492468317631,54.8353693544131,45.3558809698169,18.778967914423,26.334216097807,46.677524640142,48.5185436345545,26.5652971346139,38.9550636323756,26.949630412342,36.8168967773912,15.6162027100442,32.5970137167648,14.597627338581,8.14480350075804,6.50076244923682,12.8038719665667,8.75905195757445,19.9540470902507,10.9707387942777,21.7145133050571,24.1147038538623,30.310485910074,23.1925731208516,15.5825118505229,14.771376989549,19.6082209685604,19.0253714678207,24.6110666740638,2.60096220077619,22.4448285641422,21.7356831502888,30.1584772639258,22.1556259961654,22.0913184513751,21.5046276746102,14.6166220444878,21.6108831216168,15.2518628770576,35.6483399858127,28.29904324226,9.60001771062729,23.370423517178,11.3373232425597,-7.75454753383917,31.1526297041561,11.6445071467998,-16.0771800868243,28.180907245121,-4.28542521380851,-6.94982528626857,-7.3507858327642,28.1755558313995,-8.62958756392849,-3.22331228469088
31.1550709944001,30.4209943218832,45.0594707713295,49.7340582983355,45.5194320225923,48.8210683845596,41.9029792428474,46.9731875935499,35.8362475481769,20.945077816658,81.6768499064694,40.5560726595071,3.45957294161548,38.9417996975116,55.1544392444085,53.3492085883678,16.9864898439273,38.5283048930794,33.9435585096637,34.1494580598628,17.5901446779228,30.0602625116721,14.6549430174709,11.5948826310691,12.7137083305963,18.4729585001557,11.7244550528462,21.2393197012223,6.76039734289863,18.4993023544102,21.4005793605954,20.3541082076999,16.8726654994438,13.4141011694994,17.4413189936055,16.1088340446097,10.9553704511924,16.7881547514046,1.64857130304067,19.0901667107793,11.9405587929442,23.356186440892,8.95072939754137,12.8119341437183,14.7908780333642,21.9133955509013,16.9296899930937,27.2951441377776,24.8170699777447,13.677831551673,15.6216533628072,-1.97032996127343,15.0515344496825,-12.0526847975987,9.50955484092425,-9.68455675772878,-16.8378283220564,-2.30568564111469,-4.99606599734873,-27.5748915476285,-41.875457594266,4.13880261157291,-17.1075808593889,-26.9382627820441
28.5167994951016,30.4822431708192,40.6766581494265,49.1628118841868,52.2267310570998,40.3550096831658,35.2294366083282,53.8495536321463,21.6095132590365,10.3639390703221,80.2137544451951,20.1741904834863,-21.0750474112215,19.7609199430391,39.2381665077625,20.5646775978985,-11.3271590639564,21.4462176673274,7.61791974663,10.7645753516657,-1.57805800971091,10.7740774773707,-3.55083363055491,-1.30863199381263,-4.0788522262845,6.70571649130606,-0.884059924191648,3.92146877131291,-8.62835220722313,4.03089534919971,4.69367923489101,1.24297279583461,-4.01142121401935,-2.64581277275641,1.77430097070878,-1.23710672858277,-10.9147637355822,-6.37701710135709,-8.94296808686999,0.0809973283758384,-1.73510017066924,0.902460095374129,-10.8560374233492,-14.2149413145676,-3.51802624831944,8.74152375021303,-13.1521713221237,15.4440867178809,0.566867682448216,-21.85945352506,11.7315068783781,-36.1075186063807,13.6741927967906,-21.7290188351435,-21.0015814406794,-48.435798726314,-11.2615720472598,-39.5732442823291,0.766843547307704,-40.1845327316784,-73.1767511322963,-38.4909739858737,-23.5178715354566,-50.012169230152
14.8299857066812,20.5913768479614,31.144814740024,31.1336157967118,37.7483530713479,21.2315418733107,18.6527997993736,34.3731440155162,11.6772147631666,-13.4584431935501,47.5187759222397,-7.29057979016738,-45.748924160642,-17.795651051861,16.0304204875814,-22.8996260160938,-29.4837894608343,1.50385632597243,-25.5643116665631,-15.5837061861839,-25.4742243517807,-4.16132013214146,-24.8043656576559,-22.0685966852008,-30.1845339375556,-13.4375095495341,-17.8570701216845,-17.0173953741674,-23.9944530622617,-16.2845636892999,-14.5071511771789,-19.3360305968285,-30.0271800444572,-20.9203138340286,-20.6764603855504,-20.6999189251387,-31.7662643677602,-34.4923424681338,-24.8197564170501,-18.6137277358475,-14.7081371696893,-25.7164273379444,-28.109682150013,-40.2048474249823,-27.4228000649735,-7.5313286399072,-43.3267879335469,-4.64746578940234,-11.3413963340449,-40.8930790701722,4.96016205876243,-49.5050534461487,12.8124037982457,-21.7792338960405,-38.2227679150811,-72.9230097358536,2.11546964715237,-58.0337551916355,13.4829928145607,-29.8405325816746,-74.7763371877531,-75.6138445907235,-17.9189814590362,-48.8981345488836
6.98681484883703,15.2486955780171,24.0270716471737,14.7151763286297,16.7112986405942,3.44381922154208,10.379337121275,1.14047558553259,4.07946772468497,-32.6009000091673,11.00680442109,-31.0778649296367,-63.0292854170063,-40.4069633418856,-7.54432235013436,-54.1353207954617,-27.6843817210835,-16.1744862749422,-40.887461017436,-28.7075592064981,-38.9677266562759,-3.95453660355464,-32.6064463739353,-36.2962270955403,-36.14133247993,-28.857874801418,-18.6161459691158,-22.7702712687953,-29.6001308174216,-27.928398963365,-23.1391529698224,-28.9429431404733,-43.6742616437483,-21.3816429127193,-28.1413246033454,-24.9668941536557,-33.6885016664421,-45.9835079433341,-26.9376952760499,-20.6228652017943,-16.2436794586638,-37.1151742396652,-28.8235181245532,-41.7360798661586,-37.9586713479056,9.09744820009849,-18.22614343343,13.0470479162897,21.0212929262002,10.2479975376845,23.8861538154487,-6.8034629991931,35.7669767953688,6.7115124389905,-22.1016914058985,-25.5532793640615,32.0945600656714,-33.2935909649909,35.6811241574726,6.93496704651166,-34.5609331737243,-55.0176177067246,12.1849940983722,-2.79151912244937
20.2285301684918,27.5377673218656,29.9705481712614,18.8507705377512,16.6448948894061,2.40706610425282,20.0862522650633,-10.9874075133905,-1.38808882503674,-25.5486481345939,6.09996552248896,-38.4984542509229,-64.6645808557382,-31.4104534851971,-24.273931986709,-63.2872966283133,-21.5067927459094,-28.3885426926642,-39.9308530374239,-26.4504432680553,-40.213675507761,3.47926787981196,-26.8886352832946,-36.4707297277943,-18.8075424995626,-27.9732783362299,-3.24575828926702,-13.6551280794412,-27.1596883192583,-20.2927224135184,-16.4365063633773,-21.4608451915091,-34.666018318537,-4.35015208353416,-14.6075691631701,-11.9708244282073,-18.6508913106692,-33.0534889874361,-8.27990761938348,-8.17653932726527,-1.09967395571914,-27.8671339709325,-11.0347313713811,-22.8233799504841,-28.4189355372528,40.4842700143417,37.3163727783534,45.6329067544303,55.7479245964111,90.9014211750329,48.5854857143356,47.96445870029,60.7942591685746,31.6793425872056,-13.959390759679,57.3259154580607,54.065711037599,-9.95040942227475,59.5284317018502,38.5764401355171,2.80073892842365,14.2321375686249,46.3443307209041,58.6319896644742
40.4387043230473,44.8037781397555,45.2356948490189,35.2793120872334,36.7546024728423,16.4015458822832,37.6280824344048,7.88470049817372,3.99302545400563,-1.83112396675952,28.6948445917206,-30.6097727350773,-48.9215985137928,-9.42117659954751,-25.402458462923,-53.1507931405296,-18.0287535686526,-32.1856472735582,-30.6811938253441,-18.3350148244241,-34.4699710222728,5.38243719707627,-20.106842355669,-27.8483873215099,-5.47235862973395,-13.3111259114105,6.79490210196332,-6.69413825937855,-25.0837714335628,-6.1328278105475,-4.41446328395003,-9.01536187831801,-16.8784976386401,7.91783446823442,0.292008492261347,-1.23511351298969,-5.59639270317591,-15.543482070812,7.13368049978282,0.80736461490197,12.1693828481541,-14.0488709855059,6.77836066406029,-10.0414806985998,-15.6068792506974,28.2945135320367,47.2593349493788,20.8173901018905,19.5400620560182,107.801602912642,20.425473172294,38.3031053680226,35.2031760606679,1.50098257873261,-56.1258200809356,81.0490408411152,27.8545466721414,-42.6511337077887,58.0553269293668,26.0768309817097,-14.9273508929081,58.6346057224392,46.2985306823486,76.5018967592613
53.5922993571943,53.3885391712265,59.0106515423311,45.490092198396,52.7504313757818,32.2722151957964,51.3023794276273,36.3364907618857,21.6808685419432,14.0075998379134,40.7805235878247,-20.5950257281785,-25.8960003037948,0.99337019684427,-11.2001775984256,-34.3756604271312,2.41629048158047,-23.3433596241819,-10.3429845128226,-1.52768381671285,-14.7307098930411,7.95777180284705,-5.52142195732156,-9.46829132969668,-3.26185227502889,8.15303021188742,12.0497479061645,-1.34105826825066,-12.1886754336071,5.56603600255127,9.41197078301159,5.36720095686827,3.72013020784233,14.1414589375869,11.5428601147764,6.59350866617449,7.04177269183835,1.92713431100736,14.1882705281517,7.79257505277043,20.058377831007,3.42467540400052,20.2146629124918,2.43184380378505,0.848967819027134,-8.9307935983737,34.830000723397,-34.2182837077816,-46.680132083555,80.9161068780198,-32.9731215806921,2.89189016956748,-9.78157636456238,-45.4230140149562,-85.9616954048019,66.5051499250357,-8.98946530268342,-70.9023230671268,39.6997609362654,2.21917039274457,-40.3589120730402,62.9290620601812,33.4414619313928,60.7663739629813
62.4066082242627,59.2912414169721,63.1636037222513,42.8576749348038,51.8985394023997,38.4083485333109,53.6893033819423,45.8341561664475,36.7096813968582,15.4466027725631,21.6491433354134,-14.993511097197,-11.0426484706771,-3.05740526113426,8.10883713762776,-16.6225854226901,44.1664484613248,-2.95417032812473,17.1999432329843,33.3403849509191,21.3233601032338,25.3294342301536,31.6307748791523,22.9227106737203,8.57243648302989,38.2963865712065,35.2601858360736,20.7367154402032,27.52496008056,28.8907870750275,35.1884440870209,37.6903137881797,42.4498749464152,37.7602951903042,40.6693025201462,36.9464480396938,37.4067211265212,39.7307011609683,42.697156883847,34.4176442926812,47.7263890282797,42.7183473603973,48.9998411601829,41.8886400938,42.3505148840015,17.1950399820585,90.8471799252134,-10.8887726353755,-19.4699123268049,115.408408412652,-9.88518791368088,48.6831169539164,15.396427222177,-15.4723397813193,-18.5027853968289,115.090933173045,24.3228393151753,-0.254652898218984,54.8394454847109,36.1399321826392,10.9036618079622,94.7639697118666,62.6186086941741,84.2507956536408
63.8715035393398,62.8603892438514,51.051247605358,30.2000205153155,39.4492802298345,31.7128065726992,40.1395266115724,28.7382535450655,39.9667421343252,9.81820211006767,-12.1580024243398,-5.69105650666499,-6.60067384870764,-9.98788595024243,27.1325754361229,0.687087701095248,83.2048868820655,20.7400374086658,37.1406465895215,74.4076751659473,52.1739708791898,49.5525898951063,74.5663086271831,52.7039436604745,31.7048028847927,70.3465883440993,69.1596833351556,50.7041663762071,69.9577930759835,59.7417647349097,63.9650082395755,78.3462071254095,85.6412085507956,73.1858394071947,81.3223362195098,80.5861959987682,72.5104923254595,84.1697672052593,86.5604671141867,71.483513827476,87.0733431494438,87.5668092557838,85.1496323740959,86.6435558180999,88.3098352934097,106.358988894024,188.149081461639,88.9119643150168,99.0459652802987,201.339805038158,84.4404417087075,150.875102509602,95.2215582791276,76.404729252418,97.0688949699477,204.759514429061,105.023057922683,117.172204275286,99.7172576648139,106.411564712162,101.364244188235,158.797813721244,114.700940595796,147.727209678073
49.435117020655,52.1626296418977,27.8588219903123,14.1655148861871,23.4093115202075,20.1400910384622,17.8198008735006,3.60838823182889,39.4797218116564,2.60083300492934,-34.5559740016058,16.2915414735872,-1.87321646132125,-10.3650483887657,47.0862236862858,20.4046018256922,102.303641395454,39.5043110393657,45.0444875651624,95.7726451932324,61.6379627345974,57.0244754202752,90.0152447239235,58.9983795261383,42.922107446993,82.5725201581115,78.8187682955883,55.1842049720796,76.9225667954941,67.3277364211697,68.4293050160336,88.0244261095068,90.6694499421682,82.6713237302339,91.2932596093173,90.8236661199262,77.4166085870645,90.0377119815956,97.5883462537113,79.680852472876,94.9691374164266,93.7309524629927,89.2135629675332,87.0974238161155,88.0730401102201,156.457614983276,207.608071191451,147.087084912857,170.346810684455,220.717969698298,135.408573267722,182.166693870132,127.07646392931,125.959013030564,146.895032581297,218.323517893772,137.935868363172,154.777136587728,115.798582210557,132.498622662298,131.149088481446,167.300022257635,127.349704149701,166.380918945377
28.4530019861228,35.4900060515736,14.9723090527398,6.47119960779625,14.4572430682695,15.2488305560747,6.32693654149267,-6.37898465640534,44.1353662875519,2.42217121258733,-32.484901914034,46.4553112918336,11.1075370204569,0.96248571642285,63.2134688981693,41.2096955673701,103.73668834622,51.5502121244338,55.1712598177569,91.8685827087978,61.19898030148,45.4791024907746,77.3263336041116,51.1563044613562,38.0366441509738,71.8420707677969,62.2815852571878,35.0185619507951,58.8211023268019,51.4788815811968,50.6961763500711,66.2740640563136,59.7877867354391,60.9362543687149,63.3683875790036,65.6242346233928,55.4073168420029,59.1626696805988,70.588413348397,56.7312617721745,70.3434394901199,63.52763426193,62.4669270565554,51.3104143595737,49.0982048042898,129.161396757026,135.919041443381,121.290760238201,136.862165242131,149.103264408441,111.586465802166,124.45918947847,92.8336915764243,111.267183389597,125.328330097333,149.318602165407,116.85432247879,112.387119906408,96.8243417169149,114.843935934673,107.526974742415,104.661092280715,105.694801396789,121.949005998853
20.8537752382579,36.1352741784586,23.5245861176925,17.6191657145604,25.3439510704235,22.1087300206597,18.9677655385453,11.5636105763707,56.6312443617358,23.7171899953362,-4.28840752797717,70.3953381493247,36.7926597502307,30.041521294556,66.2308303576543,63.2182597809343,96.1516275525085,60.4058001322551,77.0558305516711,81.2390156920574,65.0054085326364,35.7727551919742,65.1431558101619,51.0218167988969,35.55177926939,60.4182044738156,48.3490738486271,23.3311637376913,49.9933034239567,42.1006297311366,39.4592612840291,52.2224631660078,38.5010112318158,42.0066028004811,39.2650974128422,50.8101514263019,41.3781020375907,37.3691081435014,46.951358130442,39.4305999200589,51.4548489027187,39.6392250210946,45.7578256943449,28.8735200266747,25.5962973333265,83.6719752373394,67.0718329389901,78.6354672615209,77.7722566165308,74.2162678439717,83.0807554855806,67.0276304793247,57.8513143267607,90.9734229331059,101.418381932473,90.5775772584946,103.312580795881,78.4928257675579,80.9278958189388,108.743811597184,95.8668413685657,51.0488849771019,91.0164429743669,83.2893118283103
26.6856247578581,53.6773186226861,38.4103889762296,41.7966385844541,49.8208062921825,36.8933456237706,45.0646091842968,49.1872116967914,76.9324575122789,66.3820314391442,37.6097751113697,79.2174249829997,73.3951980612038,73.3753060316682,58.1350371209141,83.102744557327,83.7319030278355,65.9458093032586,96.246145546587,73.818205024621,70.1362337878782,34.3133975369617,64.977896463602,57.9094948105579,40.3754198349718,59.0713057210833,40.8059013336483,26.8591281439067,50.4640713873242,41.8090730630088,40.7106952270555,52.5314946097984,41.0499620612986,37.8182214487675,39.4765170815659,57.6053388507275,42.4891983260316,37.6226588019514,41.2458923924948,38.862414917948,47.5610565522102,34.9239874213239,46.6848174618075,29.7315860407269,32.3669001542291,57.0319610134359,42.1761549262732,58.1041850564527,49.1413188391057,37.9575860351121,74.976406600954,41.9858240450963,45.4730859681279,79.9812611355204,86.8872098759357,65.5200254548282,99.8557055904007,66.5863375965263,70.2469675466056,110.101182234947,86.1439889795523,30.0266615216145,77.2412862424472,68.6675410317802
40.2384554164493,76.5990826577542,51.1326826428673,66.8251985368516,72.7916464892738,58.3851889636458,71.9859552612414,88.2071789210779,105.100319744086,112.058509403406,75.6598927156483,86.1757229651522,112.393286539773,114.094463968512,63.9160061398731,103.739700542926,81.1508101727294,76.248436869085,106.185405834096,71.6531334932435,80.0831787908503,36.4685733837509,70.4420122697057,67.8841232172,48.3800923252314,64.8949095235824,29.9402255404307,32.8015216158922,52.2813002321463,39.3796438674989,44.2158577409203,52.8508265070845,51.5443193314089,37.545064577717,46.9731225566561,64.0453910789355,45.5957448867532,44.0830994091336,43.1458213730465,40.4501181624279,46.5306319650755,38.5196738427871,47.1777364431117,36.1503243062853,47.5047946215998,41.6257755794423,31.4176430614797,43.6104972068478,29.6795433609178,14.0336059382115,59.6790868619207,20.5683946372176,38.6676298098432,60.2976938409748,62.5875797741094,35.6043559560692,78.4335075339149,39.5206918754853,53.8772528389202,91.3160419873319,49.4791294506079,5.23962587043696,51.0415761301683,43.4579694198174
65.4282289920094,100.40600043953,67.5998959167837,87.2919366038995,91.5291386933316,82.4802482990421,97.725312123383,115.184465409729,129.74806669339,139.514620718643,97.9488328193215,101.77845150729,140.379831646422,133.040111808417,94.2121778263492,128.529384952117,100.441208595019,99.7880914610114,118.002812472354,80.0818556410348,100.571181976926,43.9493259752074,76.7988958842685,84.4368324728738,58.3936800397957,75.0546401890537,24.0633077922144,40.8714707423154,64.9930763560223,40.9319812765043,48.6222298649037,59.2431733130481,61.0889715648145,40.9034582084398,48.4949512141302,63.8035461865869,50.2881225493784,52.6947880787893,49.846801769975,40.949166364298,48.8862546389343,48.3926875634268,45.6787099507748,47.0453808458045,58.7905371703406,36.8251080197445,22.0729607068461,32.7700719730702,10.5183933522702,0.0111370987677621,40.1550452950603,7.48249448640436,33.5611481662351,45.7172604028508,51.0766744385721,9.67059058535361,54.0723173070587,17.0094383842048,46.2485878201775,76.9330305237392,25.07838944329,-7.7424579386923,38.4713385568374,22.0751217070046
83.9211922647372,107.980909028677,74.6986892163765,91.5185694562562,96.2377196130604,87.2683295378879,104.440033053573,110.78535499385,123.076601864784,130.783799802625,89.9609449582351,101.303449497971,134.445658231255,114.761197341969,109.196506759416,134.870365234972,110.69913289113,110.094216035917,118.81958768556,83.2408851445742,107.456470636044,46.9447540549947,72.6479769966888,91.6971298054982,59.0696631888994,74.3127621064608,24.5128538297534,44.5515738004382,77.3025443679888,41.3881777924653,47.086037856258,67.8425150079429,60.4904756751259,42.0994084539971,41.6430268365438,56.0225971824585,51.3327490047178,56.7073406996732,51.2964604718903,38.7369681351751,51.4506415447603,56.5469326763269,42.5477779709432,55.9010677445016,59.6655414711406,39.553730008241,25.3536952446672,35.9435896329242,14.8587590083851,14.6109440568728,33.8047907911106,24.2637608300148,22.2460583668551,47.9996592058502,70.9714519856771,22.7430512498668,43.9518030869298,39.1845553451723,47.3122326017598,92.8959431368899,47.7792232276762,27.9783033380001,53.8878798220206,41.7845959871022
71.3450294215401,89.6677501145798,57.9705373952217,71.5502618323793,76.6795864568603,63.7919580460205,81.1438997330405,74.1552905770004,82.7958905474334,92.0941239388331,56.7426966531973,71.1826674581819,94.2084032580943,70.820077682948,80.4398567891805,111.162037179646,82.7910428116165,83.1489034827071,91.7640240933774,61.8953632844509,85.118317097815,36.1123283342432,54.1510582923575,75.1885030033857,47.5546790601554,54.5379612254095,21.1340830754756,34.3829840305617,67.1792142417103,27.7921578445121,35.241336205132,61.6495859162123,48.5724030820776,31.5172936651434,30.4384989098128,41.507842234391,40.3680218950749,48.1780411806267,39.2878305989839,30.1541649432035,47.6366934701976,53.8350800382311,35.3770600195166,48.6033208775647,48.2331739601339,37.4048383231525,40.9540841589392,47.6556382269266,40.3106557553257,42.1294968448884,32.3825799433947,51.9573128876411,-2.1905134492586,50.1212463905376,94.5359873640037,63.0341369581506,36.1274309956564,84.5973997706736,35.0940568635429,111.937073576627,81.3032302246033,81.3650421754493,69.7509692065183,81.7275456561343
42.2560605067797,64.9895553617487,32.9320726170994,43.6808191435747,49.0766479280581,34.6063681335914,52.9822682932529,40.7944568673423,43.3070767231228,58.2548787408753,34.2226562844324,36.6946682304027,56.7339879505109,42.8788963742182,34.3211609513749,77.9301332910932,37.758514084721,41.4693529962583,53.822348310968,27.5311652145293,56.8864501900361,21.4626069945818,33.8379495110325,47.6559296768597,37.8411210903103,33.0291334199056,13.1711333935888,20.3723606581339,43.0644162769426,8.59421845295376,23.4173061777907,43.4053264924123,37.1434718235744,16.3891907580758,22.4392059077774,29.7924632759445,26.2933935150237,34.6867062387903,23.1072288375897,21.8153484437531,40.7538796844474,44.4895931993144,28.0113256832302,30.7030541370181,33.9956871799001,28.7495504027634,51.0181896307711,50.7477883674418,51.2989183171328,46.6702899860403,19.4547498718991,54.7755585006174,-21.8224365727645,38.0851066779898,86.0438835377565,85.5945903798269,22.0572257200132,99.2040671154189,10.9962340953871,97.0387620144697,76.1918040631735,94.2346448386341,58.2302138868029,89.3013226562994
14.9442628868676,38.7811177992659,10.8652329322342,22.0894142664179,24.5951284549392,8.57340491671119,31.212180910226,24.9909261961429,13.6852704408285,41.6653088672925,30.6003103520815,0.711324995849211,31.9969348451101,40.4063274461528,-12.382883469887,33.0096974391661,-7.2989451047509,0.772151119232392,13.6897423052576,-12.3983970045574,27.7397707787862,2.56447154031318,8.38248215421019,15.5378203083303,24.4398419009676,13.7738874390117,-3.11892685054887,5.53379264467591,16.452342593602,-11.52946426913,8.69367074774455,17.1495558212527,19.6714554179374,-2.47335471662933,9.6061860807224,13.5229470291383,9.9577854531886,15.6414243492311,1.12040750125751,11.0961999230708,23.7450395891223,24.3344178526535,12.6435646767888,8.38031285644353,15.676725272543,11.541072716334,33.736498627051,27.0619383836098,25.7544641370417,20.9520484999281,-12.9052889329256,30.063595275073,-28.8232772368358,1.39397641774838,31.142254915979,70.7569917368339,-0.859811106456531,66.8907518671772,-7.59117133215984,48.0892534853389,28.4433597038733,62.9899233606655,20.7572557455369,49.3004521237731
-20.357461010163,-5.95177971865325,-22.1991819853393,-3.46558826799514,-10.6405571826162,-29.8207619589581,-4.92076118699027,1.78902657999011,-27.44264407884,17.3578658290467,12.5600333588647,-56.0439157608732,-7.48699905644114,24.1986616757823,-68.6560969166267,-36.2060571981668,-59.2712155965503,-50.7866937878145,-38.6749334474907,-64.9500381481457,-21.0024431360574,-31.0129652317401,-33.3272996412399,-26.7067399036723,-6.75948325263308,-16.4237218450322,-30.7085268113448,-22.5218359111609,-18.035632612042,-41.5020202647539,-19.0378464037156,-20.3357229692164,-14.7704842716122,-33.5125645628245,-18.7453156952959,-20.2838968296549,-19.9348575242145,-17.2770240110832,-34.0485228867837,-14.1669765771776,-13.0639009496527,-13.0987815104584,-19.5206287959746,-21.4483694804834,-15.26450207309,-19.8504837733386,-6.10378343416344,-21.1826235036562,-16.8817532225153,-7.0581322483754,-56.7681490975471,6.72559449309684,-41.0035158607625,-62.2936522377956,-51.9478086938131,45.2133308817546,-30.7841230030121,18.3692211226495,-20.2266810534291,-6.90003159031341,-31.8205820631277,20.6238841843307,-21.6737394882414,-15.2710259448376
-61.3180095893016,-55.8782173034174,-63.7371814162526,-37.602312131399,-52.386794372874,-76.070649312539,-53.1372920044371,-35.680389034852,-71.518268866588,-24.4801110880002,-27.1322858743442,-109.842644225065,-54.551148730743,-21.5274712794819,-112.660320337251,-97.2560872282627,-100.599739133482,-96.3088822123638,-84.7131749241278,-110.693320032891,-71.0719003612978,-62.583452797607,-73.2231531228592,-62.4204995228113,-36.4097346112307,-45.443185435715,-51.0584471944708,-52.4034436727266,-49.2959312089143,-69.6749247155345,-43.2119003119704,-51.4244073750694,-47.5821124018207,-59.5974565437516,-47.1713894582338,-52.4667512719655,-49.0415407748392,-47.3384431436744,-62.4366862614056,-42.598117801799,-47.7486169335016,-46.9236067514786,-50.5148560584807,-45.4795533977422,-45.0962093512838,-50.7630207669487,-33.1218110968442,-59.5746082281939,-38.8964773538192,-10.1879668664188,-84.644044264187,8.96340250340392,-59.0598960348983,-110.563987883399,-103.592125737369,43.4825848480351,-47.4067942565237,-7.7674098915354,-28.9210551124075,-39.1161361155704,-72.1604959864044,-15.8618282642962,-48.1169030021279,-78.9002634241395
-85.4895710485026,-78.0026959444124,-87.2619846955325,-62.3846790993657,-74.0013755893204,-107.757389517939,-84.6772280645648,-67.9749801235686,-94.2120780928554,-62.5619935217886,-60.8122912418523,-126.874934755347,-79.4746141957529,-68.8565888832249,-119.836162613892,-118.729534787198,-112.247071341702,-108.909747512705,-102.813893346042,-127.785006838658,-91.2128739543135,-73.8708501936033,-91.8512672701007,-74.1903923303559,-42.8714096350809,-54.2371144214744,-53.9436432385957,-63.2072719612126,-60.7079528112738,-78.2566706099379,-49.3782767321504,-60.8709609547757,-64.7397830338593,-62.1309325962802,-60.4451676113528,-61.9503479954119,-58.0966497101877,-56.9616824350952,-67.732008234553,-56.7760064400302,-58.1975182634705,-58.1916522162332,-62.6870399776552,-52.1173528864335,-58.4068686977701,-62.4117095508108,-34.6877264986332,-63.8269783521613,-32.7118999035703,1.2589808278054,-81.3038351055309,28.0160088867832,-64.0278059218676,-98.9179558299291,-80.7179345000138,57.8756190268989,-43.9884554958218,-5.640450737273,-29.3782784802439,-46.0302994578634,-86.1634720520766,-40.1494504576827,-58.9188244474786,-120.866024226995
-81.9120080115859,-65.5076179332635,-81.1614230940575,-59.9810096338554,-66.4601678281193,-113.515067362171,-84.2873805807367,-79.1953425854034,-98.3927266209091,-72.7460035822468,-73.2097001478827,-123.535064716238,-84.494703381869,-90.4255742309664,-114.496655741602,-119.425956206667,-114.242130987782,-106.474728729362,-104.951125785669,-128.495177947713,-90.1800463827477,-78.5196667659749,-98.8964479152456,-74.4604868938256,-40.353709086487,-53.4979523224142,-55.5258277324789,-63.3802631598078,-60.8806631852,-75.4523074531483,-53.6399536159403,-63.349199661008,-75.8690134326609,-57.4532641831105,-67.0583732675657,-60.1712652933488,-59.1413358652847,-58.781291467509,-65.7092813677471,-63.8262036218088,-58.6435658183653,-58.607105895527,-64.1765160371023,-54.8590282868168,-63.1916173916353,-62.9723987603774,-36.3468733223774,-51.8282195954474,-22.838949742318,-2.67419380003429,-64.3697125595803,37.5622334617238,-54.1321162144383,-54.4777205092228,-19.0188402746243,59.0880070212794,-42.5949576404336,6.25886214900518,-27.4722893406219,-53.5237867905905,-94.0250926893428,-34.1816969930592,-73.4223773439982,-115.614761238511
-52.9927966102588,-31.6011331867162,-52.394005025261,-29.5913951209337,-38.8560212470748,-90.0849139147195,-53.1180968469622,-58.1288196961171,-88.4918402980248,-45.4265784063121,-64.5831412718899,-120.820407337695,-75.1369385450421,-75.4168268148938,-116.101055662414,-115.633669833834,-115.83724258834,-109.596885139426,-94.8565452112907,-119.182039734217,-83.5148889044426,-81.4166274913784,-97.252036877264,-71.2290674404367,-39.2467221469545,-53.4952766956392,-57.1960924217085,-60.3396278873,-57.5127929039958,-69.9620762948675,-59.948767914882,-64.8647428197775,-73.9352800641528,-56.5356303920335,-65.8578845535795,-56.778797925199,-59.6118484323679,-59.0316228649822,-61.5414329686818,-65.0416414040822,-58.9417222695212,-54.4515014254597,-59.4972971123881,-55.4505470019349,-62.5729713942162,-63.5611444033888,-41.837613643306,-41.8283319845182,-15.6946447862158,-11.299367899464,-49.5259806639643,41.2122618524367,-40.6413444638214,-28.1695590758316,25.3994048601092,57.9713692350263,-48.9251663800513,28.3904080141892,-30.2687394780957,-78.3557466981429,-99.2819329564533,12.1474872423429,-96.8112255323191,-52.6255027386128
-16.6913714777164,-0.739459396973529,-16.9561983911039,4.65283803227761,-11.1780789086909,-51.3538534855441,-10.4744489051414,-19.3271442565101,-62.897110663621,-4.78280377803719,-48.8093900407993,-106.082167785951,-50.1817061806839,-42.0246010241941,-104.852492228007,-96.1243605933965,-95.2648864820152,-103.086044597001,-64.8876957509302,-89.7681160693413,-65.839297394772,-65.577487810694,-76.5638758285589,-55.5274515887576,-26.7482588234547,-45.1241633193424,-42.8164153955922,-42.019207149476,-45.1955588377871,-55.8507656681247,-49.655448426535,-52.8415872984852,-48.6050197619261,-45.3956932263115,-44.8873714510874,-46.3919049231216,-47.3339873006037,-46.4369726069511,-41.4802895703726,-47.9262128465851,-48.7122252845887,-37.8035219224004,-41.6470452238412,-36.8947694082054,-50.5958624681605,-53.8639292411144,-22.3950465753982,-22.6152614206844,7.7458695227777,17.2817878381503,-31.0771864177582,66.4282345231317,-27.9723301965558,-18.6013782043773,50.3901864126319,88.1482280856836,-47.4857730733216,66.7595483000937,-35.0283753109067,-106.24760121986,-78.5819856952894,71.74217881268,-115.493014653959,27.863542738103
-4.09477514815569,-1.04934412974219,-0.247400024893518,9.66863466033416,-12.5475579641552,-30.1798976860814,6.15876261242053,-11.5311916968951,-44.4265163467458,2.30768198479993,-58.3007735485235,-75.8451407112185,-40.2473763289471,-38.7039168965483,-75.7569437549636,-69.3142271377224,-56.9073342309196,-81.994650459126,-40.0758927751231,-55.2616559300809,-41.7982107226486,-37.1194323854566,-49.6101692649735,-36.4844074803452,-5.8048707871941,-28.5197269053929,-18.0219696211892,-13.8090339399014,-29.5756640022206,-36.5844536440365,-26.6049446517565,-34.0110124031924,-24.3068754640194,-25.2134600865298,-18.7389628263079,-33.807283396976,-28.3655039208216,-28.2260362554646,-14.536513170524,-22.5661278303227,-33.5522112400489,-19.5998024517983,-20.2576004106193,-9.34340486405926,-35.5695660226591,-28.0278533811771,23.8025198224263,9.63207875616814,47.4899030742064,79.2744663698182,-7.81083455294958,107.6442078687,-16.4345291541401,-4.07081577898406,73.8393308995879,138.972794086651,-37.2335728481399,95.9610851133512,-38.176624580875,-114.1172354136,-33.0968360126051,104.810032249941,-121.282758124238,67.4749053905602
-23.7315774038391,-28.2432674594993,-13.0554985552372,-14.7125249527382,-45.9971038735472,-37.8324812572595,-17.3052502572674,-51.2007861160853,-57.8485470609158,-35.6338327556194,-103.743252018389,-53.9122703443341,-73.1130855802983,-88.2326267861521,-52.1415731031975,-60.649779155463,-31.950418543815,-68.1870135802364,-47.585862780005,-40.891791106109,-29.6071732928197,-22.0728411068639,-38.8432442745695,-33.3715302610319,0.508357929501378,-17.5958962348626,-3.51311663405571,-0.211934474463791,-23.1241766505262,-25.1729930737114,-14.7219849616914,-27.8766459188876,-23.4494849422196,-14.616233764642,-11.8352887150824,-28.2473778404955,-22.8702939940536,-22.0421192130442,-3.86597850065023,-13.7363078520147,-29.5047760090889,-18.6982617135073,-15.4951082099124,-3.30504314955645,-28.7841927261202,-8.67747059759109,53.9785663717765,27.6763000415673,69.3474274217682,115.715105246073,3.63739940318148,121.634614706297,-10.044520017702,4.91082925917519,81.0460144301162,158.166852878437,-29.719524350875,86.7072383382441,-38.6592476563227,-99.0632976436773,-1.98050896532121,98.2403685945474,-112.541428129917,59.164586582826
-48.1009678407343,-46.1754617555804,-31.6482305854971,-34.0462413620252,-73.6163408220295,-47.5860714176563,-46.9655294049603,-89.9615887354015,-83.7156887366129,-77.875142583523,-148.902550335471,-49.878469125995,-112.872024228043,-150.3612938771,-36.4814744785899,-59.4118601392722,-21.1684198818392,-60.9842108014107,-61.2651118464877,-38.7410401992491,-25.1719168657771,-21.0165595989197,-38.136657938706,-35.3145257983421,-9.72576839089326,-14.7741591036639,-1.39162535223091,-4.79117748384055,-22.0154862209051,-20.263472934892,-16.5940442260011,-29.8311853166049,-27.7471716632659,-15.2230723239474,-17.5506127587103,-24.7814662246026,-27.8710150688701,-22.952977814672,-7.92861535705528,-22.1928629630192,-31.9400451444173,-26.8564899321419,-24.593450836131,-17.2644854596592,-26.9714866930671,-19.775625657304,34.0294868366983,10.9115523435061,44.1407118115484,87.3370504507012,-8.19374294140271,82.0616209279707,-15.1927111402067,-10.120691643044,46.7933874112177,107.662499905537,-28.8326043027414,41.9987035041179,-33.1192416339047,-80.0357243936856,-9.59123092341568,56.8421951621695,-90.6679108199326,31.9470703458092
-45.3470750767284,-32.4377399640087,-24.3782552945601,-23.2021877702342,-59.4991328106816,-29.6017800850228,-39.4339781648621,-80.6111283889372,-77.6123526527368,-80.3427890000787,-150.501179135844,-39.1725035960756,-102.051866756352,-164.46569065057,-4.36456946210335,-25.5508464395323,5.71447142754715,-29.924784892418,-33.5598785025419,-19.8767507972184,0.227065434474806,-7.61893886904401,-20.0583291668721,-11.3420800675045,-5.98281437671385,-0.293907649961863,6.8613583496688,0.435648764261684,-5.65369076699083,-2.98345793623598,-7.74827084155226,-13.2612458589969,-9.23089747555149,-9.03457976115032,-8.09818491203733,-8.53297232101293,-15.0552302228728,-10.2364965804108,-2.47358399398688,-20.7311144124496,-20.8004695749047,-16.6982055308551,-20.5703549821331,-16.6752436295282,-15.832095806002,-41.5058172430721,-15.935654868612,-20.252537916437,-9.23880390166187,15.2160038135349,-26.3447445218984,8.0984460751189,-25.0701150540109,-35.2526328907607,-15.4587289439735,-11.0594336861224,-28.9490682607216,-19.4738956494314,-17.8703177716103,-71.4833838489887,-38.2344633326958,-13.1475193388351,-65.0097029123626,-2.77189462151129
-19.4043989481309,-3.46920356465023,2.26128738138673,2.17350759766825,-17.4888932534726,4.52925450489902,-0.270177277558395,-38.432893059086,-40.9995241769507,-45.0184645683282,-110.044700546343,-9.99500734027604,-50.5533160506646,-120.596474557995,38.0711877827547,37.7073004745644,47.2029172779088,20.5143248917416,28.3291034719197,15.8869399402887,47.1455186668416,22.00560334214,17.6145955801923,32.6343771228875,21.0338842177877,33.4223141448618,26.7679243838517,28.9014351357047,26.9026918215313,28.1356868336919,21.0132865848445,23.2710446720784,23.3566620056376,7.64393513559813,20.8033236426394,19.4428817504298,22.9744569104605,15.5858200104296,17.2249409068811,3.42131989028051,3.04254232386631,13.5795088432636,3.82734843661474,9.87370984949589,8.5379912850526,-37.4527670660554,-57.6592171692961,-35.0391852010264,-50.0672101640479,-70.4070737884794,-28.9058892495339,-70.1181450494737,-25.2530249910711,-47.341488360522,-68.2047385426889,-171.676834428339,-27.910669372379,-87.3643789007912,-3.36959388231888,-69.062752346405,-62.2219474374634,-95.5180664229767,-44.900453261148,-43.6091888780521
-6.33840891876816,7.89640667541989,11.1389820426034,6.4279578275685,1.94524265522913,13.4910271193978,19.6995076665257,-15.8983447178768,-22.8165711310695,-15.7056281142918,-73.6172041593653,7.71221814495532,-18.7663770144759,-73.1164849134493,49.1175567895838,72.1897155305714,59.2895442816085,39.4138041518239,64.8824049944554,33.4321325375525,70.429152565733,35.3545479134654,39.4604541288392,50.5707059222812,34.8819372507518,54.1858315663359,36.3777050191345,49.1478017282956,41.8077553137689,44.2357170319895,40.3010789947437,40.8701957671104,34.7362075567301,15.9463785113294,38.7701395048659,33.7117407408042,48.505014674397,27.3494000925537,24.1220042685296,22.9163361071298,13.3645702227888,32.412219997579,19.3044388261737,31.9119095935306,26.7452786793995,-16.3987861653397,-87.8442683228694,-35.2997660147128,-75.6737893314857,-172.661656867985,-23.8195789685365,-152.898292408606,-20.6047761405492,-50.4826388373896,-105.85319733203,-325.62458258826,-32.8035655337635,-149.302043555908,-8.55903494497764,-61.3439555792761,-76.7937577551348,-154.091879975988,-30.1944152564228,-72.6017486581317
-15.5803318182727,-2.72128553566978,-4.16055793812776,-12.0367163587308,-16.6645148258872,-5.18344952872271,2.11307136639129,-27.4589530489163,-34.4194285262172,-19.4591715409779,-69.1964187126604,-3.09000856603275,-24.48876531292,-68.6728822253315,23.3648829908472,50.8198997284028,31.7591994896815,12.0321347897953,46.6906856485625,19.6897379656938,47.5272906726779,18.840170504196,27.6034819843993,28.8610693837595,19.8425733976081,40.0297587097205,25.8442776357272,36.6107995946103,24.6049449731534,34.4834390396068,29.206210061936,21.7623573474439,17.2555382941449,10.1773540980303,28.5795248225666,22.5565198741176,37.003166686878,15.5329464815664,10.3510344368946,15.9507676445779,3.73078486902339,24.0105872951654,11.6299896460083,28.1063267044098,22.4826652888054,-8.42791024767082,-113.978591555981,-41.9833434162626,-111.306595243145,-278.363927449871,-28.6131968024673,-251.026537796836,-21.1854636997999,-58.2285668110418,-152.749671162813,-398.959008759671,-41.7156729427787,-181.592898937171,-26.9697432043159,-40.5761100260573,-82.2051564339682,-149.225868882042,-12.3062850600954,-69.5836083998754
-19.1617630995328,-11.7899675145794,-13.5164608960707,-23.0436390872509,-38.0058616749508,-16.4653036242552,-19.0142808286132,-39.8648302746672,-40.2038288031168,-38.2661875049781,-73.4099095605487,-18.4808937834991,-37.4862094887227,-90.4787136210268,-2.57446481358436,10.262095737361,7.30594818874336,-19.4235771778667,4.89403406816401,1.70502676842408,12.0010982976445,-0.784586271913263,6.63242779519236,3.37373068012692,4.69827550914925,13.6418429580386,13.6838146371257,11.4013988425727,2.75838481957349,21.2107300357292,5.97936781085471,-2.75695745425052,-3.46815853460938,2.91488689879071,9.51107965289022,4.26073349161268,12.336318175121,-0.268762077083379,-0.568404149802253,-0.443586555943763,-6.93367136797096,4.79562114342015,0.278345806915321,10.2220707783144,3.92461182199808,-14.7683968535422,-120.80733211323,-60.1797113349951,-151.39780929025,-316.828094575137,-37.8798944627357,-323.850529336963,-19.2563390283412,-66.6388127716205,-200.324125971676,-339.891482590866,-38.0465999263796,-164.776523457645,-29.6772555602299,-10.1570460522726,-64.9412417307682,-82.8104032315901,14.5839207098707,-39.0847948990741
-9.69171918781577,-10.3608301709557,-8.53296479251876,-17.5702268536977,-41.2849889974458,-15.2038886032006,-25.4355475679766,-37.6626556601621,-32.4467520147198,-47.5867027874136,-57.720917323836,-24.1490305514246,-42.2635375697861,-95.706781545515,-13.6505564656277,-15.4324606625368,4.2723770914197,-29.6789058803951,-21.9025107413817,-5.74333998786184,-4.52297340832164,-4.74809913061656,-3.13481211868347,-6.52605277196486,3.14413715472952,-4.96490155727168,9.63002100765087,-3.82064636459123,-5.5451534182197,14.8778752209412,-10.2256222059806,-10.0510389318457,-13.5002038799794,-4.61429143072217,-3.25202429374373,-7.59835407588394,-3.76942901171874,-10.7024763581255,-3.75154372558263,-9.17175643617905,-14.9665088133074,-10.7297960468224,-6.62066197324462,-8.65546613777553,-12.8479599357479,-20.4655825107637,-92.8625065468614,-71.5872915058119,-149.410169550477,-234.557771809943,-34.3939301875562,-286.294758371267,-8.67553480556412,-57.337268883527,-184.730524766302,-177.826563295697,-16.9598957174187,-93.8113238060166,-9.4297563075624,20.0660885608071,-13.1965324673843,-1.14515585955289,41.8422439829683,1.08885042285325
-6.1084412960187,-8.35981515773832,-9.75710606840101,-9.77025721052532,-36.3176761289815,-19.4714568666862,-27.9294740750585,-32.7373083000315,-31.8016263083192,-42.3522800851954,-21.5682520679783,-29.2947231550144,-41.8164186216916,-66.1272470570161,-20.9163735757906,-25.4542768723554,-2.14500186415749,-30.9074480159979,-25.7067313837252,-15.0539607202929,-6.85728464091345,-3.60610967101745,-8.13648591794975,-14.8874331430019,3.02432874547746,-19.9513193838839,4.14037035200969,-10.5402782028734,-8.78597428021949,4.76769309502882,-19.679364675759,-11.3298829751142,-18.3581763866595,-17.7268076778848,-14.4541148570019,-16.5090494977649,-14.0835176102321,-21.0445575990358,-13.3273171391,-16.0911453803444,-28.7303578490115,-21.4680085045882,-16.3342386470194,-23.6404932266309,-21.3762982362052,-17.526522523946,-38.2874950063687,-56.130613770174,-83.4498830747105,-87.2580871280013,-16.2544326910366,-135.121585227131,1.48866666540836,-22.2710323275852,-81.0486573682187,-13.0144490803413,5.54494586782309,4.30159512148566,10.4179824536145,44.2368409722204,50.8422815988958,56.5985990453877,52.4973307309832,38.3394473756988
-10.695317937088,-7.76548676875246,-19.6572348035004,-3.67863288583148,-23.1151467968966,-23.0573514293609,-24.3894975711663,-18.0974278974724,-33.7663223538629,-23.1833863206214,28.3836088659874,-28.1131855021745,-29.7482015833797,-10.7758597441488,-22.215995842685,-20.3060522923727,-16.4343164780206,-28.5615963592301,-15.7504672407777,-24.8828806402758,-5.7310966153478,-5.31940703632199,-12.284509437824,-21.2239685379344,2.87249096615368,-26.6374418266523,-4.57273514827712,-10.4631139754819,-9.31872121420909,-7.53907062826078,-20.8954600026546,-12.5496685409797,-17.4706091189774,-26.0018618992865,-20.7565512625867,-20.8529344656838,-15.9341618154694,-23.4522428828292,-23.4048980507822,-22.0841312495522,-38.368383327746,-24.7634961445873,-20.7573902732701,-24.289350207393,-20.417697075086,-7.51860964127961,13.2045348730235,-24.1565544750217,-5.86884707907734,10.6762298600737,-1.33837631375597,-0.274172117464623,3.37720322781256,14.4215978726692,24.7569019520381,61.85091393749,14.0231059913161,65.1988770677632,12.9505727590346,54.007812859357,78.9205805811665,73.9718264664437,40.5882481621219,51.8477357792485
-8.4331118782521,-1.0524366189295,-18.0359581686133,4.81294876856313,4.84789739373232,-11.4765622004191,-6.82244511146958,19.7634322763412,-19.7451411729683,5.6217550198714,85.7691237053486,-6.9587944603768,-4.41262199590589,46.9447154094775,-6.34128213626065,2.34542847213039,-11.4629298084015,-14.5314406030312,1.25627069182979,-14.8937946730551,1.535155584092,0.792468777467279,-3.85995442849013,-7.94353865580924,11.2197934863824,-10.4449943220268,-2.38205050095042,2.47586852129772,3.00332666953761,-3.19485529050207,-7.4804150827399,-3.78510305297196,-3.16508633208634,-15.0441377936133,-11.5143762141259,-11.6970477741057,-1.1527278827166,-6.15014107426555,-16.8907591479443,-15.7831366046621,-28.162782107474,-14.3359482249926,-8.63782855523051,-6.69645189547178,-6.23856754067619,0.67002781364741,30.2125084114529,-6.71451184422554,21.0041655402154,16.3098784604063,-0.417002766675607,20.0561200248334,2.27895611220003,26.8123320396902,54.0549621924047,37.3633158323198,9.23709449123444,57.3982238799906,7.86835748396854,46.3168824832622,59.1498994727704,46.7938454987281,19.2521110174822,24.1906023221516
0.297036452143526,8.43408502295334,-7.2127802327894,7.33989764766604,30.6889149347781,-2.05657320727459,8.37826914555529,55.4890270659411,-3.18678935606267,21.4470943026522,121.445528433496,9.89579440127146,8.83886646043972,77.8102500845937,7.2113359605385,12.4410398730977,10.6703084034855,-4.32505685506563,7.54223614168629,6.89668370453635,8.48420205297622,13.8176129094132,13.5123053416909,10.7584872989256,21.3891884919589,13.6374208556764,11.397827752981,19.6006869610966,19.9226836943944,14.748283587594,9.94324712745855,9.33996497401351,15.0089921432341,3.92990189401949,1.53019460157195,4.00465171751206,15.6185514439699,14.6948443798014,-2.98837726492825,-1.96646384371323,-10.0946960268863,1.29750525142968,5.81744670821852,8.72453069497452,13.5400967999908,1.32489390680202,13.0200061504424,-7.17215937493206,11.605031194617,-19.3072207445212,-0.503402106325142,-17.0110497351532,6.4303356509447,28.3689430526507,48.126401432741,-16.0165013860559,4.70920076463333,32.2737908821257,9.1293910028934,39.2092643285988,37.5172464353238,1.46523594094713,4.79576874785761,-19.1990249104622
-0.727431687767875,7.45212055459469,-10.6627053742354,-3.23657153492697,32.3400686364462,-19.1758199374926,0.798472329161147,52.719650219554,-9.01428511158212,6.75969223722224,105.443353282762,-15.6402712835612,-8.33500470019101,70.8742781116209,-17.9815506646043,-30.3790380739492,12.4736252342317,-26.5701967654524,-21.6367826814348,5.77355411144198,-3.97650052950184,11.9644198290651,13.0710910945097,0.376090815201748,15.2163081442653,10.4751547383891,13.6914538109278,20.6640091104765,15.3490814943931,15.8478961476295,9.4878107652692,6.80281444057499,13.0698261138711,6.8478656826608,-4.05416073923512,6.95154422607849,9.49158681051899,11.0851510919361,-6.11356462848046,0.517336698789476,-9.92784587652662,1.07972482604468,0.754148134389817,0.842168610312262,15.4224772387658,2.39675726830599,-4.56941023471293,2.40912818587046,23.8023381526268,-35.0378471545119,11.92697869879,-12.4248495404302,17.8495140715028,45.8575721308905,75.740131775774,-26.8369917077106,13.0837836215991,51.7169654140464,16.7467985333275,50.0973285298367,55.0444704574372,-12.039037401183,2.54975621199468,-29.3358831403854
-10.3548723856331,-0.981586378572022,-23.3793618289892,-9.740250855539,19.6191379032753,-43.9552481402522,-14.619442768206,24.5326190322881,-22.9490121721352,-14.5407639121306,60.7898911342538,-64.221541370546,-26.6192150958876,49.4607974389998,-69.7162317271573,-95.2112619977752,-9.81173746128268,-62.2406691413081,-65.0998501280422,-17.5091273395619,-30.9329496524084,-5.7123858729376,-9.70050683586263,-31.1990870963343,-6.1611316627266,-14.4765272414866,-0.648587244509261,5.10687500587751,-8.76182341094193,-4.58426287973775,-7.13491785284861,-10.7268863960164,-10.2498463897788,-3.03934234847561,-22.6172197950691,-5.57919823236045,-13.4692708936047,-13.1777023498414,-22.6185249937735,-10.4294418023449,-27.4589167249331,-16.0475064384448,-20.7200763120743,-21.5668432672915,-7.62091249453071,8.67655077820789,-8.24671664603755,26.6515688223509,60.7091507643314,-23.9811154429618,26.8908790474871,32.6158234769102,31.7354271951083,70.9845360297806,118.671458344882,5.47634239265985,29.4843416149117,99.5887935658369,24.2826842469286,67.0312858371845,95.3750316862955,15.7382052786466,8.2558505178282,-2.19411258325342
-10.3009219161862,0.401628360345728,-20.6263968026494,1.87198826031574,17.7082884622198,-42.864131200389,-8.96501632494697,11.9865048488162,-18.4587010221585,-10.3301135076258,36.9784799185114,-85.1100281913506,-13.2501145266157,36.4735309551133,-96.1669638801783,-107.116264089471,-20.8898385443262,-64.9094317513004,-72.2907770515759,-30.9350967247419,-45.0835223067001,-15.1839232117366,-27.951008138597,-46.2487768217922,-20.994980394788,-25.3711200103788,-10.046273163477,-10.3548977063716,-23.2479319228981,-19.1906531543819,-20.1166642847166,-24.739707779065,-32.6380186457122,-8.16387899268207,-34.6438137459695,-21.0299618888761,-29.0352170641569,-33.6988324590103,-31.4185430248293,-23.9700996946686,-44.5227194436737,-33.1285887201816,-41.1147157638899,-39.2068759618619,-34.2682426421701,0.748081601818769,-28.3571779400114,25.3655956480437,62.65701763531,-24.5865806440814,18.9783847385572,44.5720831941139,30.169990266436,67.9309392065726,111.459226447405,22.9547216073231,28.6736108134064,104.890991278971,23.5349031799669,61.6914584380754,107.228974216959,32.5191844229305,8.58157650511471,13.7735010094823
1.56901025010387,13.8235233649269,-4.07498901188845,15.0224572480271,29.3359033904822,-23.615974052857,12.8505215337623,23.5337945379537,-4.29382311622093,10.6235656992506,43.5545749447041,-73.8121532295536,12.1632363294286,27.2154638331501,-82.3831236234134,-67.7364747889909,-12.8105165197246,-39.3968387338618,-45.4394051994623,-27.9690701887394,-40.2184686498822,-9.67305478164345,-27.8742320643383,-38.50961939005,-19.3059534597777,-20.3547955663103,-9.23664718935205,-17.2379319374837,-21.2213157411442,-18.2553046237665,-24.6353851068044,-30.9310590096833,-41.7132180611307,-11.4108530941397,-38.9233420440254,-30.6949665911278,-33.8311008157535,-41.7735643124993,-31.9357941290084,-35.2246782327801,-53.202473263596,-42.0716772391781,-50.4499265439488,-46.6660784948428,-44.7091181347263,-34.022784686508,-77.5052178411217,-22.5685135498457,5.1645109031068,-57.095527087856,-16.0776941044377,-2.21905950606314,2.05481276437427,26.7261267168461,45.569008019116,-5.69270443830509,-3.10806847065506,43.2781233231645,11.5455376842282,27.2316671897633,67.3991809351761,3.05493301145183,-6.18263540441299,-8.89243085925139
10.2219702224865,23.4772498392669,5.71466175292116,12.089770186817,38.3646397496529,-13.7974337797993,25.1267741451149,36.8401416035606,-0.271816926807699,20.252594213306,53.2126674609957,-58.4484594111741,13.7749984699375,11.2592301440248,-60.0426002290065,-42.4567378179289,-9.96366650197434,-24.0279817232958,-28.6261610532356,-24.0591058776513,-33.8581504346827,-3.30261940463145,-21.9661288961031,-29.9873952239333,-11.9236945211518,-20.4298817332302,-10.59924067494,-16.0543000932386,-17.9360295880563,-15.6363044852895,-25.8639160089439,-35.2984221109297,-38.3335649909259,-19.6905556693738,-37.857382898016,-32.3770508749237,-36.5988723350379,-39.6837719862742,-33.1175565105875,-38.7197014155705,-51.8860318394074,-41.2466306494026,-46.895178431891,-42.2897116219844,-38.1162711120676,-66.903285754901,-111.741445514064,-72.4611046220116,-54.9109136300583,-90.3549290326931,-46.0631760546961,-54.564744765149,-26.5017799087965,-17.1414513639394,-19.6673990047254,-46.407531332021,-39.9873941590713,-30.690381840672,-0.796855363228534,-10.2578544567588,9.10369205643778,-40.7253621312871,-24.0255244546884,-42.7505550708397
12.2987423914601,19.4823047860878,5.55696104264231,3.14005189485177,35.767078548679,-12.4348863893406,23.8541793970394,38.7618323638297,-4.96172361698674,13.9853340948538,45.6377482946524,-45.5053821430572,-6.73821093662216,-10.0418648645506,-48.4613251530034,-45.9890933273484,-16.1687348055758,-21.3613991092222,-33.4973135498468,-20.9329585275622,-33.298484517169,-1.20352737433745,-19.8729527968442,-26.910153526654,-5.71679693134591,-20.7556826986607,-10.9086689776759,-5.69156218883193,-15.0120656954776,-13.9253904450924,-20.1292798834994,-30.8087010739772,-23.3592900996966,-18.9432404116547,-23.2643289992454,-24.4500326286236,-32.7070359125961,-25.0146484648524,-27.1564627533857,-24.0152964248847,-35.2332703214344,-26.9916723569771,-32.3218507417668,-23.8796610975896,-20.8879457537072,-61.6140796808522,-95.1361331256473,-73.9771832356042,-61.6483328998966,-88.8548238207134,-44.453315233592,-64.4995044335824,-21.3635547340945,-28.5820913812301,-40.7266331245398,-58.7243387460472,-46.8480396172267,-63.0782830325199,-0.98020515103899,-23.0422200655782,-22.5944100322621,-57.7429875225685,-25.3673783944277,-57.8023049624125
16.6291182621323,6.07887352992472,5.89682002194257,1.52006112172015,23.4119287952202,-4.45561620038172,18.1068894182209,28.7088493488177,-12.063158425247,1.67035738169928,20.4198274030578,-26.2620481210246,-29.8405860735674,-31.9877401276318,-33.4637798795456,-43.7914080368389,-12.3912571067003,-11.2854020135339,-36.717190774945,-9.11251204260412,-30.4252011549729,3.86284471158841,-15.5719935225009,-18.8222441780179,3.37609265298658,-8.55772880583293,0.51909365701428,11.3424829208822,-5.88407486746695,-2.19007840860675,-4.78092757617164,-12.756349007845,-2.89978615732755,1.44588218331734,1.43588512622897,-7.0457932837527,-14.1990072099697,-1.38948556215548,-5.48060737552894,5.17196664115113,-7.44115050188961,-2.11570499326731,-9.75762406704951,0.13752114334536,0.59108243355397,-23.77016042206,-50.6522558190926,-37.839676185385,-29.9643419579463,-57.4850306723655,-23.2274340429326,-42.686515017489,9.59840156029376,-15.1809557274419,-30.802037227037,-45.2380722355583,-27.3096407023654,-56.5051100756038,10.0149756906871,-14.651947409806,-24.3857574448708,-48.2572359120453,-10.505330146947,-57.4430493477974
20.308344745484,-10.2110378744782,4.24457649907135,-3.59182864551718,3.91265790752388,1.86104845957066,2.56445992496459,2.37941966196587,-22.3618057549161,-20.831429349567,-17.4643131863136,-4.20373496630987,-52.121431119258,-53.0757644080058,-1.76013466438959,-27.0348300384352,5.89576292195015,5.86773147151053,-25.8168466693051,11.8426000870269,-23.2529368158782,12.3116267582098,-4.05901178168018,-6.5956971948995,11.8800624179497,4.6427060135489,16.5868536799907,23.406974875232,3.72301383580676,16.2804501968658,9.50149699344092,2.44445355156881,9.89135561271233,22.6533228777578,16.599405180285,10.1764962536429,6.96541808698937,15.7360678514996,18.0052249472224,25.5505851032333,11.6610108744321,20.0185145873722,13.6093369345441,15.1216602715998,15.3909952394118,12.5145415077337,-12.7175310183045,-3.37606492097435,1.16556852041092,-18.63109581244,-2.89204811223729,-15.4172402164892,33.0678100122967,-3.16029008736621,-14.1384393152469,-24.0904042670983,-10.6010104525203,-35.8906746319972,22.5351374435611,-5.36012477019681,-18.8552315810255,-29.6428940758001,5.2181689215303,-51.7603248400052
20.7241582630732,-18.1286999950236,-1.1097533129478,-17.1962460326569,-10.5786949416593,-1.35973096646273,-20.8876598728431,-27.7391160197902,-26.1101062669851,-50.9590596826712,-52.4168062662815,22.3284096922335,-66.2736038385786,-61.4766491832375,44.1479971817876,-3.39423946181802,34.8288111124301,27.5713299662321,-4.12805161785137,39.5905490429649,-12.7692750603014,21.2447376074173,15.5038970065941,6.71419981864464,16.4725176487868,12.5845666175109,26.7617629749976,28.0079104808874,11.8063584856466,29.304443117848,16.0660370049679,7.25110056169074,15.4114547370833,30.2730700558766,21.8829700171206,20.9979947267976,17.2933198510296,23.3264988254514,30.4925464110768,29.6537011282004,18.2847496398318,32.8352931512378,29.344378338529,22.0128043595533,21.5938548107813,35.8848482694856,21.4634896718809,22.0780706585769,29.5010542570773,18.6758490053052,21.7629128012671,15.0085859131816,44.2662499024627,9.65371352831118,7.58810747347041,-1.04939384968756,-1.60449831901186,-14.7101998251834,33.9344616952321,6.00680350070431,-10.6502451100572,-12.8792170907212,18.3300325514014,-38.6822429111041
37.2305194463689,-0.206165231905246,9.8922207355994,-13.0991233243253,1.72933207520879,10.5876593250765,-23.8500293589081,-25.9963377460436,-2.50153683907735,-54.7664740684372,-53.4257909274841,75.5198876735278,-44.035274864836,-33.6433484952524,104.788430459782,41.748896497848,81.5243394791935,69.0095621491059,32.7163495015685,81.7508274068202,13.4242794066553,37.1029985249344,48.8221208776956,34.4959661881632,28.9504246669215,34.3469921355141,37.4990254671438,41.6717296568046,32.5461234340567,42.7723282692589,27.8460147216827,20.8420996708973,34.0848752205212,42.6089918289723,40.3465363059384,39.0748636519871,31.870817534484,38.4369590692937,46.4055958772099,41.4478836660369,37.2352106188129,48.1703674672157,41.1648064239268,37.9341866062446,37.491841857902,60.6851405576293,57.4801513790371,50.5447938301214,61.684468772175,41.0180200004747,60.0165939021396,41.5312625421866,63.7120424510035,38.6284075629896,26.8497825178206,4.33147716723733,18.5886694877991,-8.99282588274685,50.5927613252428,30.6373107099445,3.57834696582083,-16.8904835519234,37.8905912902631,-24.4664748644218
73.1572799461865,33.425563511252,45.5833170334321,16.6071611085617,29.6316983932899,53.0365716419467,6.30756460431067,9.22489555203012,52.1346107619574,-14.7065816130382,-18.6843578908878,160.207899252823,26.839164476284,26.2935633507694,178.353525399781,114.54511471305,136.645040512583,128.525440253068,84.4893615858849,132.621620260211,58.6490230208646,57.2983301128757,88.5541008658258,77.2161533272883,50.7847192763415,70.6951731917603,55.227356726688,68.2515060176743,66.8966149507956,63.911579755527,52.8214116195904,49.8233693273059,69.9054861796932,68.1240618448278,70.5270065756997,69.5011929045739,63.0178488804624,65.2420365628504,74.9331818135031,70.5695641085785,72.8449116698029,71.1890964185825,56.1096146655329,63.4214108142328,68.1089333029312,85.6229025996668,75.5024797852954,74.5015595186191,79.2430834671466,32.3198345136467,95.0350474656713,43.3839384621321,92.4604166796789,72.9730104215022,22.6817688419235,-29.3758364822008,52.0544932202194,-30.0058351446368,73.2948139933586,54.094943566932,11.6891939837359,-52.0545119850057,61.3132732006655,-23.8633242295375
86.6075920017326,32.8845387567306,73.2575545390371,28.6471116805298,16.9838110465561,91.4208596647919,34.9346113006598,24.290947562795,108.801120052298,27.5347371617722,1.44090308301928,235.57570491341,112.429468428462,72.9559711834661,234.821631619865,178.104799280486,160.390826130106,168.665618717228,123.001189082019,154.955703894558,91.1705653283717,58.731154922867,104.710361141975,102.349167558966,59.7141615376529,88.4057549842728,66.1818637501865,81.0014507110996,85.2873810308415,73.5324755958207,70.6239754014662,66.3548724907479,90.3617399857508,78.1521867619077,79.6551400261877,84.9037727585114,83.4455106834713,80.9530358840433,87.7611632343383,87.3710269369164,89.0752515595268,83.0653661505579,64.7733287562275,74.8102128159917,85.0837375296917,92.2400341841242,75.0446731736237,80.0335241945575,77.7596396962711,18.8254465630441,107.620299108744,36.1041324683716,110.943865318441,94.3859888824081,7.71843317931994,-59.5589279790484,78.5463508057483,-49.2447732110254,90.1452807662541,55.8109419898541,12.4039801252401,-79.1162694722649,74.6925057349636,-28.0067312841803
54.4181744282386,-20.152861680344,62.4999171455751,-2.0150268439562,-48.7672997154619,87.5309886838017,29.6545358852223,-5.88806753385162,131.25475670874,32.5745216994316,-16.0637675713716,254.304203532758,165.851127106514,83.4814802868932,237.9741192987,193.944645529126,132.818848141617,163.770068913026,126.161024509456,126.143594975767,84.4887581204641,34.0696667802596,85.7466162954334,90.154117425631,47.1093582149863,73.7354769486452,55.6774652788316,65.4188456751518,68.5950506840737,55.5928731870366,62.6890926255696,54.0807988015999,76.6416498507362,57.8200717154782,59.2741666586292,68.5343482762207,70.4272703536487,72.4033225142929,65.3480583962109,72.8160966000431,70.506019698988,72.1337792655024,58.957887989636,64.5000506137259,74.0337996979603,77.4538161011025,80.8537311541616,69.8280533033613,80.3533796787373,38.1768420423504,99.4840895170752,54.9930048168381,105.048396731762,100.002407079126,17.6587460389307,-27.8298971368155,79.7509102098452,-32.4947768336184,83.6659116391491,40.3477929966622,22.7690720197018,-57.4984372289624,71.7361115180375,-15.867329886931
20.3605840501262,-60.3813353320441,35.5779890370047,-27.624703534067,-82.5814526623915,58.2982786231173,15.2579582331111,-22.336966839769,119.114412007905,31.4034733072013,-8.22550931743146,214.832698193665,179.423552247145,99.6880010879226,193.583768173831,173.118151945268,84.4468117075884,135.470151150225,115.894411453555,80.3854392141462,62.2150307408687,12.4716497702674,60.0670322594616,66.9174040335462,33.1764008442475,54.9892331923974,36.2955649959558,45.9813213284812,40.7842034158185,30.2447258032967,46.0433203530156,38.3749754126756,58.1394126518185,37.4522339452207,40.0291058310275,47.3671211394455,49.3872833228729,59.0175287279183,40.9405549659445,51.8333870612011,49.5880395788928,55.1495174155644,52.6442072050868,54.9182184943575,60.4808471032457,53.9858330218947,85.7698411262711,51.5870660459708,84.93159122203,66.404617713307,75.4643332757938,81.5138736411023,74.3245376592737,90.0526265015464,49.2542794233717,28.564647006091,52.2739229468204,1.42449210718784,48.7488586979607,23.2005727958433,38.2940725564776,-15.5624118705875,55.7375368948277,7.92239482398946
28.1628467955624,-25.2613463252386,35.9513521400061,1.62791695118035,-21.0918605706144,49.1103536756726,36.8945778989947,30.1774615995021,107.214483140184,72.3948780239544,76.6630753662149,155.918184213923,182.523062923554,161.823334103189,137.766716545195,149.549404490662,51.0979521784187,111.291411418326,118.597493964186,60.0749913023438,56.4886179973383,17.2054458644575,50.5283391839043,60.896567166011,29.5864479008188,51.8248459388049,30.5174296411535,41.0223216897072,30.892065321078,22.386491592686,43.2934282158269,38.4758296207672,58.8290457189122,39.9455977212657,39.6407886485462,44.3927124472837,46.2815883938806,56.347035854178,43.9603668573742,47.0356976190956,46.4119321769242,47.9524364233638,53.8405079703974,56.9610484890501,60.6235816567117,31.1066560656096,64.5734183774343,29.4748536553241,66.4499238340597,59.4113569244399,43.0005433837842,74.8338966515175,36.4209793399091,72.3240718012139,75.2456370875949,37.2291572996021,14.6720021427333,19.8059706882497,7.33282098761533,16.2573782092318,42.8678120441488,5.46668332169098,37.053433649119,31.2195277990992
