2.82736107885246,3.26233970636822,2.3198860134174,2.10239669965952,2.60987176509458,-2.10239669965952,3.26233970636822,2.39238245133669,-0.144992875838587,0.869957255031525,2.89985751677175,-1.59492163422446,0.869957255031525,0.57997150335435,-2.97235395469104,-1.81241094798234,-0.144992875838587,0.0724964379192937,0.507475065435056,0.434978627515762,-0.144992875838587,1.44992875838588,0.507475065435056,-0.362482189596469,1.44992875838588,0.362482189596469,0.869957255031525,2.10239669965952,0.869957255031525,-0.652467941273644,1.95740382382093,0.0724964379192937,0.507475065435056,0.57997150335435,0.57997150335435,0.652467941273644,0.362482189596469,-0.217489313757881,0.507475065435056,1.81241094798234,1.37743232046658,0.217489313757881,1.59492163422446,0.652467941273644,-0.289985751677175,3.04485039261034,2.97235395469104,3.55232545804539,4.56727558891551,5.00225421643127,4.05980052348045,7.39463666776796,3.40733258220681,4.49477915099621,5.21974353018915,4.05980052348045,2.02990026174023,4.71226846475409,2.02990026174023,2.89985751677175,1.08744656878941,6.59717585065573,3.62482189596469,2.75486464093316
12.6183030021516,15.4072310458466,10.5003311452429,9.46834931299187,11.223838980304,-9.90332794050763,15.1172452941695,10.9168215272459,0.109472928944857,4.41791308068142,13.6872613254282,-8.72780977654982,6.44781334242164,3.33192305602385,-14.6837232107855,-8.01987709873782,1.12442305981497,0.77897257159945,4.51035430824533,3.80387817456517,0.761940870218501,8.90977914341397,3.35041130153663,-0.415033837871149,7.24236107127021,3.3148913546429,5.65035252530941,11.7882353264093,6.08533115282517,-1.86350605212519,10.6652688107261,2.01141201622744,4.58285074616462,3.54941236978173,3.40441949394314,4.038399189704,2.95240916504643,0.852925553650577,3.49540417737522,9.90478448463946,8.49328876141099,2.69939990439482,9.38027771782346,4.40088137930047,0.653924485405477,14.737731403192,14.321241021189,17.8706533909708,21.4541291635144,24.0255678934516,19.1911644307672,35.0873822965361,16.2402118098526,20.9651423435921,24.4775782223483,18.90117867909,9.12435536890818,21.6346419862467,9.19685180682747,12.889800508316,3.78247684078872,30.2160023428261,16.1847470733142,11.9843233063907
20.8573114466891,28.1830146650527,17.6878134095895,15.1287117985121,17.230708056467,-19.5125614764317,26.3720602612022,18.7640138275001,2.7544990647824,9.07500689346889,24.30449298216,-21.3949562157743,19.8667803345208,7.66714965033438,-31.1774953453505,-14.175777972538,9.60031454369424,3.52113451752202,14.0138231264262,13.1565685664053,6.86539469240569,23.8409812833668,10.5398202828275,3.54580875524166,17.5240422036664,12.6063314594425,17.3877828321476,28.8913826501233,18.5092928036988,1.36043548463953,26.0879704171602,10.6014710115727,17.1126817114431,9.85907448929414,9.24358303904606,12.7291976096743,10.8138653011048,9.28459845187026,11.0828152951563,24.2795635254225,24.5046953755191,11.920891083388,23.9834266470924,13.8691958267384,9.16788342829138,29.5187759119726,28.0075968665462,36.4892390353738,39.8772824886584,45.5910323714166,35.2948321841984,65.4780127145998,30.1904226250354,37.6596273095519,44.3107358610352,32.6864169632357,15.6289447693131,36.9038375659863,14.8129957066881,19.5781059042886,1.54735465304262,52.0463430274901,26.2846791923102,17.0092146864644
12.0323181737709,22.2587276734533,10.5971213097732,6.29349684227494,6.51113889261768,-22.7094920267849,17.2659381136433,11.9005602809494,5.71343017553169,9.04598941532222,15.3982293997641,-33.4724344372874,31.2093625780935,6.24557624800016,-40.9218734607127,-15.1541238447598,25.4511583676138,7.17197133652005,18.6227773027865,23.6257972782872,16.6117285917109,35.5171897073459,19.2941687968314,10.717186546233,28.274207840907,25.5005898485303,31.8843576866786,39.9685128010655,30.8632215636015,11.9175055513129,38.1627341559188,24.8149104997274,33.2242144689057,15.6135168469638,15.7980337259408,25.0365162390758,22.4380172282625,25.8836298502558,20.8680546734303,35.7080911840388,42.8320875837741,27.0093021163219,34.609484700534,26.0180934934605,25.9978377289609,31.7184645838423,25.7411901830691,36.0512615370713,34.2522243334197,38.2251269764042,28.8551287738816,56.3364320725228,24.6125963551544,28.7226312551737,33.3960978779332,17.686023377814,10.1927290738815,21.6523637078565,5.27603956653101,3.45200841793372,-13.955946213549,33.8330022627053,13.3361543559661,-1.02853075944173
-7.24940709512887,1.16271530528423,-5.63387376757965,-10.8336333027443,-14.2762952386058,-20.6952911851481,-6.4579072200261,-5.68405319815798,0.644686085212972,2.94361295006781,-10.5081709876863,-40.9777234203953,22.8612344810252,-8.10916520052363,-45.6597404551998,-19.0742950305984,31.2830955059446,4.28015074501597,4.35739137142501,22.6632149305978,15.1511367826545,31.0068143792335,20.1641464437739,10.5586163696015,31.7194239799695,29.6791684037412,35.4899914830176,33.0908366760883,30.0015316886254,20.434136176664,36.4869592319208,29.9398436089167,34.6514958732176,14.31914315547,18.4333575559609,29.862383045626,28.1703382649178,34.0238954676736,25.4385428237216,35.0590669790309,47.450061385304,35.1984757117391,30.6779218896359,30.7572131438868,34.8040131999529,19.6808342015044,2.08403554707563,10.8765280764334,5.75687841878685,-1.33415396703454,4.61224273108277,10.5928046622879,2.0243893505728,-0.572512828712691,-5.71586292658493,-24.5893442986669,-4.88056776070326,-18.0702964852696,-14.7552229089311,-26.8208007719801,-36.3487296070958,-14.8108449653899,-12.9733926808502,-33.5477287769829
-15.4496732758089,-10.1628010453006,-11.9647536325075,-17.7526662075251,-25.1853853131076,-17.3806634492348,-17.6063698525176,-14.6718653492827,-13.0318400278822,-3.98660217681311,-27.3619390247927,-42.6404601103518,-1.80821711764499,-27.9324378496506,-51.6777760914654,-31.7958633326459,13.3189046946186,-9.9394846728812,-20.251712903821,6.68176647450866,-4.39656794596819,15.0444226509049,8.30568155675391,-1.52383742811263,22.2299884662727,18.7837259259423,21.3037466750479,14.704207323261,16.8080328348434,18.3723100537988,21.6007368339914,16.5309274195611,15.6033693240161,6.27346216194456,13.1378850163515,18.2727901453136,20.7188765178438,19.8361359327233,21.1245837620025,23.5593456078332,30.4244436497603,25.1666528671805,16.684364659408,22.4565616651866,22.0669995519984,7.13801836204992,-25.3020647366789,-12.4993728424696,-18.390247589947,-38.404513748059,-7.63306975107654,-27.4760854376198,-10.6062809101688,-18.0583429635725,-36.2099343763067,-58.3802033151196,-13.050358713774,-46.1247275263431,-21.5852429073392,-37.35701666253,-47.7016840652891,-46.7627475169898,-22.7171084542833,-50.015150616486
-9.50377041027297,-5.61450045780145,-6.6835220251724,-14.7036394599681,-23.9057224061776,-12.8768446359416,-13.7086944598209,-12.3107322398532,-23.8637209016907,-9.92574927856139,-27.0027580612463,-36.9033013685595,-22.6781060356377,-39.2132928047849,-50.5725931462507,-41.2447879676094,-11.8754332499391,-26.4841605084493,-35.500207535152,-12.6316909408339,-22.6693087240248,1.87247555556211,-6.97275837124172,-15.9311362904851,7.25489259164907,0.597899500374132,3.42453879890627,-2.00395322714517,3.72686429186971,10.7161675580615,3.84790408217259,-1.45894214334615,-5.01541591785022,-1.5202637371368,2.48628274368915,0.796277735835779,5.10870252636171,-3.0853501813142,12.4472783685937,9.47288553406472,5.74561346189834,3.32978613361831,3.06143602566509,8.96268862244055,-0.0398158169750933,3.43546943805378,-33.8620306108908,-10.6392508832993,-22.6550729978621,-45.8987059013494,0.401676914635891,-35.9014214701757,-1.86799738949957,-11.8055623736142,-36.6574967257151,-60.963284342395,-2.88951598713534,-45.7386111482157,-4.7366100874314,-16.4419932297136,-38.9602860492817,-45.8317692317374,-12.0660499123029,-38.9241266139129
-4.07114157651918,-4.95384598766879,-6.23732935413761,-17.538551850839,-26.7971197749633,-11.7215416769569,-17.1795217242901,-15.7931249750489,-27.5290532174648,-19.0041907468331,-28.4084073724124,-25.2056447304771,-36.8085369024265,-41.7888063895088,-36.7767131777707,-36.3572954618143,-21.3889730686276,-32.27690442687,-39.5783050305703,-22.7644924787507,-23.4046058767047,-7.52939042640362,-14.5937552036865,-24.543093803687,-3.65758313084768,-15.8688772601665,-4.34589380603568,-15.1761711159279,-4.51873664054732,4.86044591063018,-8.79591155652496,-9.71828807687636,-14.2627946032285,-7.38721334757419,-5.95119801773402,-7.95109037315828,-9.85402654548922,-16.5347470390485,2.96610985138795,-4.26342701365691,-9.43062466499906,-14.4807155478417,-7.39717296986755,-0.829621932662768,-12.6614438739967,4.41881905978648,-20.2989212183574,5.30801715841098,-11.3749715606182,-30.4622268838297,12.4615834358585,-22.2561143656328,13.1284856985917,3.14130561148134,-16.0302616973852,-41.9604801512156,16.6485611481671,-26.2799133440391,17.5769692576294,13.5154836455954,-17.6275599776943,-29.0244280148387,-0.672920720409017,-13.1667326271987
-8.50204262990357,-21.1733868923792,-17.3112167606759,-30.0971313250386,-43.1492178576541,-16.1153901812767,-31.9732868508773,-31.271031977081,-31.6631323242661,-29.467454108172,-41.0984419628815,-8.95793373432718,-50.2014510398044,-40.205569878213,-18.6880985846137,-20.7364811545862,-19.1910206535842,-24.1713398906273,-38.0229224950146,-21.9822866320395,-15.8580878541917,-17.6700488719786,-16.1179481281663,-27.6967528116072,-13.8860967048568,-26.9327866046889,-11.0908558741088,-28.1627921942789,-10.3527785530093,0.484788972556458,-18.6233554804452,-15.3202642091039,-21.9377163222757,-15.2274179422746,-12.0835070535118,-11.859385861936,-21.7432879646876,-24.0870726680993,-8.3653565273684,-20.5954672645451,-17.7142256252563,-22.8043056239601,-16.3028867582504,-10.3007210704043,-17.7006953331102,-1.75489576748181,-7.50487861134118,5.92776547536537,-2.12566849550279,-19.2325434282969,14.7427726824834,-8.57107188393761,15.9732702993714,5.60852906671585,-0.480739758884523,-24.767572907688,21.5842945373101,-9.24287898800598,20.9566240667638,26.615082639319,-1.48000205550411,-16.8461637087004,-0.66100906405829,5.25689912618702
-16.1779814985903,-39.8816890385395,-27.8021067061592,-37.9791588089866,-60.1452970869534,-16.2238375057714,-38.869312198342,-40.6239031228655,-35.9530511794942,-30.8851150131004,-48.8058888740232,15.8459704326361,-54.6526793803768,-29.6814048936274,6.64365754362229,1.92716886403925,-15.7279719855729,-5.55225672865848,-25.9886222880594,-13.2414218318075,-7.10796791133025,-22.0496178584338,-16.0778698328498,-24.9005912823762,-24.5167473755151,-28.6946049718124,-23.7951273340792,-36.0206089654305,-14.3423701246049,-5.8887992205278,-27.0462575098952,-24.0666591963447,-34.2492640685691,-21.5825599616222,-19.0633722934847,-18.082522337197,-29.0900240061046,-30.6124427874483,-17.4807888187493,-33.7588584556413,-25.6358662066592,-26.6016676278736,-23.3413837396327,-22.0217883580166,-24.4626340027973,-14.7842987365281,-14.7271461676643,-14.542034605883,-12.0463162861356,-26.5517803840627,4.34984726738371,-16.0373647698576,3.09471625881951,-12.4421525670842,-9.45381799536287,-24.045968738061,4.74364082557164,-12.4363425454226,4.11203223579272,16.6874388041913,-3.77362985473998,-19.1578765514631,-9.29149179093803,0.0100321060621733
-14.2453218604639,-40.0751213098565,-26.1169519784016,-31.5431137084438,-59.8355035675819,-2.86118472670655,-30.2152239953044,-28.2033059334178,-27.8721483965677,-22.172654008701,-35.9540451579692,53.958988799248,-43.9490655496325,-8.71066141601646,54.1611294774159,34.4081074558727,-0.546355506379284,19.9987888778826,1.57541233786826,4.87030844896372,10.4765532963693,-15.0548603605655,-8.67024072860371,-11.9647689243995,-25.4187092416173,-17.611989300612,-27.3458966577308,-29.6629707535577,-12.5796077434243,-10.8060877522168,-24.9346359057799,-23.8115239345092,-36.104064872028,-17.6545621388693,-18.6881726994359,-18.9161920815883,-24.6688105333322,-25.0800285100362,-16.3590778468216,-30.7603700766871,-24.7854930137593,-24.4470547339052,-23.2962908251626,-24.5401090282412,-24.4763137819333,-18.9744528030925,-25.1565298124982,-29.9774588457107,-28.699610268832,-32.1557201010924,-8.86478641412193,-33.0776793035835,-13.425240793072,-33.6295880311213,-29.590741275203,-30.0398429918491,-11.9701414608481,-24.4624190968497,-14.3746749270795,-2.70992890310461,-15.4989043258433,-24.873226469919,-16.673736290101,-16.1418180283834
-3.52517461133645,-24.360932339489,-15.1838766399384,-20.3513536295031,-42.5748171647587,18.5267276714988,-15.8699355173399,-3.4415439176827,-2.69851476283882,-13.8712991551871,-5.69594687427137,99.9978266092778,-21.4466721771088,19.0958242041903,113.968374299674,70.4933596640628,32.6600205458564,47.3548922403483,37.3275195134313,29.3717789142439,35.8205832703402,-2.33315936962784,10.1529611182953,10.9441737333874,-14.3494521571768,2.44551837399489,-15.4051860292507,-10.7840830741812,-0.983466346332885,-6.10168720928457,-8.45235457125523,-7.94714730621551,-14.7181906851967,-5.54679272250095,-3.41583648839779,-7.42017627771673,-4.93850959378654,-1.60386577951919,-5.00636627072961,-11.0831390512032,-9.38338846466498,-8.67032792032529,-9.89442851335487,-8.43804703796936,-6.5136329121008,-5.91296978435015,-6.51142328753376,-17.3785129522455,-17.7069030890664,-7.12007003431872,-6.96364675198336,-24.1730519013313,-17.286353838243,-31.5036950258974,-27.5541297484707,-15.63532235321,-8.88027420527558,-14.5995599942608,-18.3813411996053,-10.1395876179998,-12.893163436024,-12.357094696554,-12.5815712374724,-11.6829085754286
5.52773292448511,-7.56551037377647,-1.69245835732608,-11.7317514613428,-16.9761658838675,36.6663625115213,0.642278197610807,17.9092514157126,30.1995555573688,-3.18375553577793,34.1789253371224,134.256250041513,14.8446727951941,55.1886948225585,150.671944782186,94.1084757554492,60.6072546059167,67.826688986173,65.1987675715809,45.0195744505015,55.0485541800943,8.5091654196249,27.9340567928862,33.2650685655405,-2.49578223892344,20.1759989693577,-4.10382572891303,7.02301541257169,14.976562651842,6.62021213236033,8.50847990610637,10.4545966224149,17.1469803028046,3.19766534707634,16.3320893988212,7.81445855006257,18.2075634474604,25.4427716999497,8.55479721250899,10.4978372455534,9.50400437126046,15.695240207258,10.13103723044,17.2598089568996,18.2178275932791,17.7794319284334,39.8215433126488,15.4453441529841,26.1234056941751,41.5256244631832,14.6984262802851,16.764470631399,-2.10101559035755,-1.63802315228641,7.20031168966283,29.2496741351423,11.3135944596475,23.1232497070795,-3.05648420045251,6.41613431539169,12.943400340804,22.418109823063,5.09007783125611,19.2101415032878
17.0823281705393,11.8992568054838,17.0506771610322,6.3273866796007,18.4206567501428,49.2506955405257,24.9717971321551,38.5023778623429,60.1477581646039,23.3381478669179,76.8868358829643,136.684970124455,58.7100238551891,91.987039477659,146.274936758871,98.8482475508891,61.701846389752,72.87080618482,75.3981266521048,42.0539376561542,59.6261464448621,13.6528896473178,31.7380308493773,41.9560731036436,3.83399829758146,25.2536567963561,-1.55080731272021,15.0507510687857,24.325350171081,16.6641130193752,13.1265539760662,18.5794199051354,36.8223531956897,4.9030720732315,25.9853400711848,16.5555428458019,29.7401827098033,38.8390785810608,16.440180763473,20.2136818704378,19.7719822405675,31.5359124066233,20.2402362944372,34.3109580341895,32.5379319778324,37.9142757312263,76.8270732512907,41.4841919735331,66.5055944202107,77.8604721728481,39.0898383188889,56.5489585908299,22.0524949247851,32.4447242568469,49.3426563071304,77.6880312055611,34.3348355268238,61.0481470789101,21.8846521975924,36.152418214108,47.6849288686007,57.5464788666356,25.8389443884582,51.682495794125
42.1949174466311,41.5546509147826,42.3684905718021,40.8266635261658,59.8489033625774,59.8656588657993,54.5655631204343,65.8236030639284,80.0418478147857,59.7498624643209,105.701540055409,108.519857826799,84.1963662398057,108.68475313716,116.311169308925,90.5546445059077,45.3562244456291,62.9393490440306,72.6516040879618,29.5843715971449,53.1435287179022,13.692557618589,26.5623861567096,36.428251386583,7.90164756466811,18.0607303016875,2.54448439415815,17.0132371808897,24.1451783724091,18.3667344610426,11.9559085701113,19.2019917507559,39.471684710405,6.25207806119251,26.3512098950464,19.6216005346238,30.6252631142127,37.9601551802539,17.3772267282808,17.9125118610199,20.82861044928,33.3294337734646,19.2197351777719,34.0766156512491,36.2065478596785,44.0195340101123,82.8998427098222,46.715489266167,75.7303504450468,85.17250333702,47.9661699377258,71.7683750692164,37.7543428984153,46.6313833149592,69.9031382236066,96.3470263022025,49.2033053336152,77.0476560194682,38.2400951817314,55.4829225382374,73.3659257809674,71.9125595626311,39.0172716053528,65.5249319275407
66.1084256368588,67.1548524779908,58.5094912737121,70.2182565512226,83.8166895976049,65.0053242483452,71.8753133817911,84.7147454495961,80.7488818063969,80.8779510772048,103.911502515099,69.4021915711632,76.4692925011566,97.0949098811382,78.6435859095201,70.999662953599,25.8473353902587,44.183627738678,61.2468189459281,16.7448868302722,40.0378510920911,10.3198886998962,17.4916412409497,25.0190343677827,7.82173642098063,8.06878254556582,11.8329858491283,15.054670068209,17.2386653666339,11.9973866260823,13.811359340576,16.7972642730431,34.4628454367892,9.59004859997626,23.7625213742418,17.7126828432467,26.9693559614792,29.6220306069964,14.6764087767593,12.1253496318673,15.5676681815426,27.4556096404294,17.8803239029733,22.6861048900157,31.7752073227849,38.1521592119108,68.4376931405636,37.5648445762191,62.9320574065546,72.4683102147726,37.308788892742,64.6193847343073,35.9705537966113,39.2055608514637,62.0118794145264,80.6243624888906,51.1671911449638,72.1801767947836,37.4554063283516,51.7158668028037,79.9005040802475,65.0398925304368,42.7750606091707,57.0788091233981
59.4746134847191,64.2206607285771,47.3957715494528,68.967837320135,74.0612043231688,52.9691758932683,59.6295938650716,70.4658925818669,55.3568647438761,69.0319948896345,75.7422282169187,33.5484639927304,47.7952742558934,67.1402465129353,34.6813772468155,37.9120348237782,1.49818566365272,17.7969484982096,36.0457719056487,-1.44830204720575,19.3198826600189,0.307376463045724,-1.79670608962279,10.9757712460738,-2.22994382531271,-1.07320975416127,12.2615697414543,5.02726746327419,4.5516933891307,-0.798037198369319,9.90883245028712,6.58907074444159,22.8211073455052,8.63131747055695,14.9431713090205,5.99804183906723,15.4295846649533,14.9012911866734,7.41872642286464,3.8420204160893,3.37428739464095,12.364526808012,13.1094478823729,8.03734448707429,14.654629260219,22.850931275433,40.4263782790604,20.3545343153554,41.4217239716939,43.3886749531427,13.1253429676963,35.4532214059473,19.4018283963381,19.8707213637373,34.1393920950327,45.3698664096632,36.0801173047887,47.9594024228226,21.5093516520281,29.3802486494449,62.5088513467946,41.6841268555693,33.6258321268991,30.797041140094
26.9593530368849,34.8465514868769,17.586723680762,44.8212898569159,48.3675802486437,24.226259025541,26.7475783788444,30.8543789453262,17.7084019528231,34.4107071987649,41.8616762634636,5.14477562302094,18.1963161303855,32.5046935078647,-5.31934847225587,2.83669442801284,-22.829245760392,-10.3693598772692,6.27758144421017,-23.1299686878872,-2.41208148550296,-13.4164464334304,-22.5265029407767,-1.82408492979683,-13.0948440334692,-10.1746103007203,-0.987790024847321,-7.78355813923176,-9.5097848688061,-12.7937027794646,-5.66812671997307,-8.75064972772592,3.74878767170009,3.36829107124165,-0.979780874413761,-9.51724178813033,-1.82599765658407,-0.33689935568674,-4.25707270001033,-9.18274749044881,-11.7400609248463,-9.41134727914786,-1.45040226921272,-7.53167523903022,-6.84316380520954,-2.14347178032766,1.47470001625107,-2.86903968777619,11.1325902061024,3.01925058435069,-12.3826687726341,-7.92634477255774,-2.72109116922626,-3.41609484662831,3.09611465908488,9.13738461370815,8.48958556510479,9.37499189507495,-0.942587038989479,2.9047504208394,30.8095332581522,8.90905187939221,10.6264329658449,3.43905321224378
3.26470697166863,7.54961537463679,-2.24465591833277,26.0789623526212,34.6376818835013,1.7780182412321,4.16310550523782,2.0985998339209,-3.76557061742152,8.62050658957454,18.2522275527743,-12.7559017969298,2.10339912800329,7.01988708466982,-19.2872929282736,-14.6945352408549,-30.0371245359123,-23.6226761030506,-4.87914410611754,-29.3988540596776,-10.923349477282,-14.8690858317851,-23.5130242363662,-4.75224551400154,-8.20327846162942,-13.2666055893705,-9.64515210424894,-11.0195811976509,-17.5573066708756,-16.4404285232739,-18.282291710391,-15.8161682489672,-10.4859904035422,1.51642470562952,-12.6560737519083,-14.9992310985854,-12.5732178835856,-7.60807311956154,-12.8613767434856,-17.4793393287965,-19.5583817156595,-19.8233906262096,-16.4947802590125,-20.4345701019339,-14.4718209032031,-28.5890719367024,-30.5451603724381,-24.6202981468496,-19.1866179430973,-25.9746868441734,-28.5930649185065,-38.908033532496,-20.4332467959859,-21.1506695513315,-15.2240796145117,-11.5184204642783,-13.9435324517939,-19.9709993386937,-13.5428051689651,-13.0654956653539,7.69969334439134,-14.4106067680617,-10.4677974805528,-6.66728346314467
0.133252097669599,-0.81195996138105,-0.853433592758197,20.911233610354,34.8000761792166,1.97957953800931,5.86159221188695,-0.686830883941235,-1.64861353177748,8.51672081218364,6.14120836526079,-19.9677135832584,0.94060487391274,-0.868276400743674,-10.4420908025871,-12.4862120089687,-18.1327174792574,-16.337169233783,1.03666570197244,-14.9724241222808,-6.27546499293221,-0.512760453230346,-9.04874990740019,0.808260801180522,7.3273924128262,-7.89391826998997,-3.71236657180338,-5.03816677452255,-18.718360846702,-13.2765294719378,-16.6918788926125,-13.6656647626009,-12.7265398177682,2.38880977478503,-12.3048036279272,-11.9194320793854,-13.8456167249324,-12.8034489434102,-14.9919561093059,-13.9456354852394,-18.8239812728435,-15.4498390245403,-22.7380341821647,-27.0667417717844,-10.5125417596271,-47.3132219413559,-45.8198528814466,-38.3093572336975,-36.1892656904662,-32.7374600986809,-37.0685208971581,-49.2337255997315,-29.9621815065826,-27.9456896756459,-21.385327437967,-16.7015303543099,-20.7815416219332,-26.4914645259413,-10.6882323303991,-15.7854041010902,0.262227245372231,-19.118262533534,-14.3038010047031,-5.04039458658017
0.0434667417013361,0.877892383692314,6.86657740455598,17.2281410708071,34.1508866859423,11.683774084984,14.5782923978276,5.23846062097183,5.06258103903493,18.2039770720946,-1.56251935622997,-20.2313248371498,3.77359397537351,2.32454486111208,-3.13160334038605,-4.65491078354985,-6.3034554420094,-4.42444795257325,3.01018331042909,-2.03078293170066,-3.04768437864864,11.1047151144434,-1.54772471223242,3.24856755762216,13.5801428556245,-1.16982522044146,4.56682485781634,0.316015268612693,-17.0478905114614,-8.40660090674326,-9.38192426895979,-13.2763243787842,-11.1919578691076,-0.128811088904542,-6.67676828061689,-10.6602891638522,-12.3351501670235,-21.563845751952,-15.1019765029094,-9.22894750132216,-17.954265669321,-14.0395164198075,-22.6829197768361,-29.8293728590291,-12.8435907952601,-56.9339188192749,-54.3115045582179,-45.2067388106541,-43.7249177429965,-33.2687003124241,-42.8955845282409,-56.2153853320345,-32.1781495252588,-28.0354592929393,-24.5680338137377,-18.4672506036888,-18.6943126163283,-25.2554291067234,-5.23346217980548,-14.0052721427231,-4.27919743833943,-17.8367847068968,-6.74644633135226,-8.61979679483984
-7.7725173766398,-0.203942930151262,8.1458487261178,10.65344037967,26.5132262094287,11.0075311677411,11.589612852691,2.81798055590252,0.906390643380685,15.5835322845044,-9.75886291129299,-18.7783404059995,2.97914667354427,0.272184828202762,-4.40137967864974,-2.7705782069061,-10.5185478450327,-4.18955370538338,-2.76535391172379,-8.3379190236823,-8.49249093262035,9.62648937167619,-6.19209498159151,-1.23610086723739,7.87875595134035,1.99679595919973,5.72631658811547,1.83218901695578,-16.6344368615966,-6.08401093846686,-7.38756096752965,-15.6059900937037,-11.8978697152234,-3.99660746163623,-5.92817890832398,-11.6771963765507,-11.7698517797949,-25.5974322106565,-16.0108243143722,-13.2174083539808,-20.6784766468089,-21.5015591907358,-23.0012047441512,-32.1516144438943,-22.3277763400522,-60.3444771246055,-57.9347282990505,-47.4573946744373,-49.6540333778806,-37.8198893227035,-44.2828079348292,-62.7318546188144,-27.3585238390042,-24.8606074627666,-27.1267445225189,-19.1266490108658,-16.4827062165503,-29.3646128864056,-5.61198077729495,-15.3279475028055,-10.6077974922683,-20.247129066051,0.720349480925615,-15.7862082899971
-19.1782359817459,-7.13987830531713,2.72050838876166,4.95570878584362,13.1935580025901,-0.604256476930995,-0.0991420430120424,-10.1936590766753,-10.6689544803079,0.0123612942311537,-18.9867558857437,-22.2349695454265,-1.65963777693599,-13.0573751270709,-8.69925842616959,-10.2701036789663,-29.0146124840461,-14.1517767482628,-8.43645895710845,-26.7000364553258,-19.0225900381019,2.97917671509294,-13.4055058690128,-6.27480069206221,2.15660164596295,0.196032710761711,1.52892707201667,1.59756994734077,-19.6230372831509,-8.26208777952697,-11.0360876224791,-14.0865897340642,-14.3080857422473,-3.83233998222404,-9.66988483019525,-12.2527798403469,-12.2800525161232,-22.4143703181258,-16.9868648650841,-18.2175983723371,-24.6357451326864,-26.86244067383,-26.2098040913384,-32.0816743201648,-25.2928154454574,-58.8063412333661,-49.0167880824769,-42.7574605327326,-47.711124129826,-36.5936596461685,-39.1623673938639,-54.2325221275574,-18.4165010221125,-17.9230021240846,-25.5351001722866,-13.6396204409165,-13.8333204422818,-29.8510796470751,-7.03408359746687,-18.6078272636545,-11.6627963809477,-20.0437624370315,6.94918713113355,-14.3300796357448
-29.555201198393,-17.6262491453009,-8.56260258707575,-2.73485521704592,-3.81092202696579,-13.9330332678794,-10.8320039919835,-29.7442338400036,-21.3884833772494,-15.2591554921902,-28.2792295573369,-34.2320218444406,-11.7708472402853,-27.506451399935,-21.1878053779059,-25.6721819715898,-51.8458598805289,-24.9812920909282,-14.7776054246461,-42.728585919311,-32.1699677432998,-5.28052791324579,-19.0508159759096,-10.4203439833722,-2.22536154148209,-8.35935610129822,-6.87159374703526,-1.07075156092141,-23.4987260961565,-11.4710609715413,-17.2331641571813,-11.7332565034753,-19.2083114674644,-0.651483875376961,-11.708838769201,-15.1209686752053,-13.4325154136773,-20.1058452424936,-17.7866688995817,-15.9171895724398,-26.1441988706132,-25.0346729667053,-26.7338852575903,-26.5248913148616,-21.3911344746493,-47.818015693831,-34.1523393900039,-31.3171591368664,-35.3180739953933,-26.4151682549518,-31.0941976551528,-33.8944675985218,-12.0478332328813,-11.4765342478099,-19.1680068479414,-5.34961723594557,-11.8335256538751,-19.9202170790336,-7.75185719644326,-20.7380956806658,-9.26759264310965,-12.7848310684478,8.51186345221952,-6.99345428967016
-37.2641200676268,-27.6041733053864,-21.6524161220748,-14.2247389101419,-19.2183164046001,-26.1232590102323,-21.2399286569086,-48.3784909209522,-32.0606169054182,-25.2349206426196,-35.0099095047021,-49.2625593840115,-26.2852229820446,-34.899702594334,-41.784926692984,-41.6887649603385,-68.697119676674,-34.6453222212261,-23.5488490414113,-51.0608752411569,-43.7147257853192,-18.8862450789828,-24.276579923012,-17.2413674608155,-11.669311428835,-20.4594298513091,-17.3065470651607,-6.816379494154,-24.9586359592894,-13.8545051819988,-24.278664810591,-14.4924372617991,-24.6687059936848,1.71729912145127,-11.3666581477978,-19.4655856886663,-14.7416315303311,-19.7904890221382,-17.6988988012855,-11.6130900463243,-22.4638145886584,-21.2102083680189,-19.2880276496153,-17.7538595826977,-19.3054536117283,-27.4053665244086,-26.9615925050549,-20.9717919378279,-28.1660630560822,-20.7742729503558,-26.718948465827,-23.9604820787184,-12.6689319456915,-13.5518172547883,-15.5421716632353,-3.06475247548785,-19.3124911872407,-13.9509274178881,-14.5119622996809,-28.3381734086317,-12.4215338671876,-9.23221906985946,-1.67075233399252,-7.0104201568505
-38.913886322334,-31.9943927994963,-27.4201876832241,-19.7598042818569,-25.5594510733863,-34.7946047213483,-30.4722088270656,-55.309163066248,-40.8652848154595,-32.2578112781148,-36.7250422700279,-57.1552396710284,-35.3350357441561,-37.137745571226,-52.4921594168342,-46.9243625283998,-69.7238841299807,-40.5353273850576,-29.7083886818955,-51.699259440929,-43.6920581473847,-32.8623386106482,-26.797017087895,-22.1708939216742,-21.5664217809737,-26.8223361126209,-21.5018674057958,-12.0169285046697,-23.1936032285394,-17.401662271331,-27.6174955637028,-15.9556008109775,-22.9859548339955,1.85389526405608,-9.88093015539604,-17.4998417874154,-12.8537339797608,-15.9890795157527,-15.25441023311,-9.40362579762996,-15.5117971408878,-17.6444263060283,-8.38436189384714,-10.0675358088619,-16.4333509909795,-9.88000428222598,-22.4555439596548,-13.9745787667047,-32.7314156052534,-21.3174118570677,-27.2835669360698,-27.4770528209827,-15.353439102177,-21.9749971665731,-16.6889358981609,-5.35720354693792,-31.3772988706945,-20.3545469809343,-25.9589419830883,-43.4826820575679,-14.917928272071,-15.7247304743075,-16.131553882847,-13.9893307119873
-31.872757014573,-28.0226857423273,-22.6763988388817,-12.988933443182,-19.4377898922195,-34.4460094266888,-30.8310855674102,-45.8986684741401,-37.8460848312666,-33.493517740579,-34.767128274593,-54.7618964537201,-33.7933584143604,-37.5551661127693,-45.7824499774972,-40.0340470703855,-54.2172533220587,-36.3948004518959,-31.1273518322394,-45.0038054820219,-33.3422055900539,-37.1161723629932,-22.1229926485669,-18.0388817640662,-22.2037696876831,-21.6715917033907,-15.3650632802374,-12.3691963609422,-18.5050779829153,-18.7050918356683,-23.3471771412488,-9.49487979111111,-13.2711583025745,-0.646655612646128,-7.47286067564138,-7.85219860134385,-5.07795501623378,-9.41698577811002,-11.7453516574148,-6.73471675811641,-9.33043972720309,-11.3431955689286,-1.2821346196832,-5.07369819552752,-7.68405139123533,-2.31814046381541,-7.06562105329962,-1.1269961443637,-29.6895974457514,-11.9410708336558,-23.4086429447064,-22.8146486266463,-8.40828019513272,-20.0964648080208,-10.0531240173333,-2.65470610751518,-26.6202973679497,-22.0197991302684,-28.5061918839153,-47.388788467465,-2.32413259694367,-17.20237819432,-19.9088146192607,-13.8528664852245
-21.6975904136145,-19.3408349885462,-13.6795102187589,-4.23783854376206,-6.33397269926402,-25.7162555118344,-23.3844735444009,-29.2182029862681,-26.2950535532263,-26.8815703221408,-33.7168283819401,-47.0491850168246,-28.566690941524,-38.2346626031939,-36.010548825067,-33.0177071010192,-32.8858215990898,-28.2862100130301,-31.2776448263334,-32.7797389414507,-26.5682877548478,-31.7387855190158,-11.6566271109647,-8.98210006110614,-17.0178179813557,-11.0341030496739,-6.85405519098539,-9.04843774063258,-15.01067504576,-12.7006921317666,-15.2780821926384,-2.9037151908001,-6.89890848444527,-4.32896478070145,-6.64787932961699,-1.10136770789978,0.110415910631406,-6.09852015053594,-9.0821868545428,-5.51111383140157,-5.33995493376398,-4.34763512466381,1.32756040822176,-3.53313104793734,0.466499825846511,1.72195807619055,10.6925667330547,16.2736896625526,-10.7780372600292,6.48900001704771,-9.48804291180736,-5.03858215379731,6.54626943669821,-1.59928847885046,6.25902843042754,4.12599986006296,-4.90665004735788,-7.51399924727369,-17.9817408112423,-28.8753581922562,17.2345613806336,-3.94195362595578,-13.7870447851075,-3.4704506969734
-17.6841925731886,-12.5633577716018,-7.64943586068088,-5.57839783650104,1.98792333945284,-17.0819055189658,-18.9618516950882,-19.9207377997296,-22.2327760843326,-21.2716676536584,-38.0630506027137,-40.2929710602971,-25.0810021032234,-42.8385252825777,-34.6662796520403,-32.1272445117627,-17.1430476968633,-27.3618155062919,-32.0828578673648,-21.1004217495065,-27.04613417379,-27.5465332010335,-4.60615425499754,-5.2218044476664,-16.7980096391065,-7.19817527771908,-4.92985891185081,-8.88185296074704,-18.626434233188,-4.27702316509039,-11.8538259011588,-4.24509029402762,-11.069484317831,-6.32268306038136,-8.0729594485937,-4.51792629253572,-6.61787915114951,-7.60804992406087,-7.90295497066924,-8.30962851575805,-5.48272258053155,-4.18330675728163,1.49792518052343,-6.25079075948825,-2.04958931016753,3.91114143931333,11.3636663316883,20.8120303634996,0.344024865363207,14.0851185539362,2.45298513716451,5.31090156102021,9.55756455846146,12.3027571730795,13.854711137093,4.97697988365128,5.17578304909348,7.67053536609161,-6.82045400486643,-7.73155760396523,21.7196431928055,8.0130162126367,-10.2478071282473,3.77785841075323
-19.8809487568377,-10.7653416686,-5.50955682938818,-13.5408631766747,0.338212845506449,-15.6211220037514,-22.3194353023076,-22.3347651823643,-26.5339172766358,-25.5260443547809,-46.8318727692761,-39.7604655926511,-21.4380991697785,-52.1842448238617,-37.301847149396,-31.663950439557,-11.2464849590078,-30.2044159454214,-32.675783605475,-15.9870348227115,-27.4175054828977,-30.6315673031481,-6.23198751109757,-8.41685793372203,-21.2211318370688,-12.1342144429027,-7.37989784658931,-13.5382047023196,-25.3519176037849,-2.0557287976625,-15.0402889459701,-8.79298104348232,-18.1300811782502,-6.20287850348422,-9.33153388546212,-11.0770566507824,-16.9866525170715,-9.3561703797434,-8.66934510638487,-11.6743116745924,-10.507818685005,-10.414543678595,-1.61635937892142,-10.5171139255532,-12.5746229382265,0.0446766567797667,-0.345527702119785,8.85400789173221,-9.481353040566,7.46139110778758,-0.0595665887588713,0.799619333497254,-5.719951148899,5.9958998218715,6.18705623742624,-0.895758814717368,-7.4971321981431,7.89084906041383,-4.5007790160766,-4.49758927264988,12.2803445232403,5.20179243443476,-12.4564910246008,1.81475698989546
-20.3199547937682,-13.1006627160748,-5.20375334134375,-16.9321892173873,-3.66436687974885,-17.7558543304253,-27.3059169308492,-26.970003746766,-24.1694695174417,-31.6206619511459,-52.2967571621393,-42.9291684668891,-16.0792907299415,-57.597752988655,-33.8270349837512,-26.6934154000736,-11.6303941934985,-28.8477384008379,-32.1571783679295,-14.2710974020628,-24.9096001155414,-33.6536271540293,-8.98495090286222,-10.6254565695271,-22.4764279821079,-15.1458711387185,-6.7241195502809,-15.1825762145949,-22.5727792332901,-5.46322959784379,-16.5208320160344,-9.99474404027457,-18.4324398118092,-5.75716254390823,-8.86229841755666,-11.800743021308,-17.4523089798335,-7.7855742352857,-8.66910687152591,-12.7347702003052,-14.440006653479,-13.2013775593119,-7.54496701022019,-10.9998114250002,-16.4723811781484,-5.18704678081911,-4.10891734792887,-2.19795316493165,-18.4293053499582,-0.0389262298698423,-10.8605074218791,-3.53934029363315,-18.4329501625419,-3.6091713066949,-0.83084777225433,-5.36599979055835,-20.933300625876,1.34594654621377,-5.90408097920242,-10.9226801423541,7.07797041017972,-2.57843211845288,-11.9718587289467,1.1682539377076
-18.4172707857404,-15.589785089915,-6.42219306107879,-13.7979065785496,-3.51807118366229,-14.3930213399114,-27.3826805000175,-24.5449687374657,-10.9866104140001,-27.2312557665988,-47.8541190637492,-38.6175139597847,-11.5693670092862,-53.0296521463472,-26.0409101879133,-19.7319253990456,-12.6482825627085,-24.3865952666652,-31.8089378610598,-8.19212174585108,-21.7225180875417,-30.3996213073232,-5.27556531855605,-7.42461886663605,-20.9250458784264,-10.4184829036215,-2.97634087342951,-11.0329972009579,-11.0271496406161,-9.26362640915277,-10.8833098639975,-8.28415654924729,-14.6651610240998,-6.49495420081436,-6.19963023033636,-8.38496900570375,-10.4926298847758,-5.76880801452887,-5.93234322254624,-12.4899656898499,-13.8593301600255,-9.83543078016644,-10.9064405911969,-8.24087793633078,-11.0641377626642,-6.84813618964469,1.22450529448832,-4.30514796767529,-12.0487489456202,-3.36915490871969,-17.4961002496002,0.0219154962694745,-15.9890020478871,-0.829579581118371,2.09063996702689,-4.46117472471029,-21.8212257809046,1.95837458850731,-2.19120019021717,-9.98165632144861,8.6475444745291,-3.85219279557354,-6.59876924396419,7.75944348984032
-20.5479636269774,-15.4163992121133,-8.39622355506398,-10.9257764915955,-2.90084205480011,-5.15138609016383,-23.8640355814705,-16.934470157314,-1.06074989649861,-19.4399760309329,-36.8688664219477,-27.0268761357089,-9.51131673030501,-47.5567215018209,-26.0301323312094,-18.0510798648287,-11.1345211050797,-20.1015825560656,-32.0105811724407,2.82090629447968,-19.9056252190089,-24.5267736912634,-0.303436379465526,-3.13780747666696,-21.6205011585421,-2.78119316201345,-2.49425670979463,-7.95196424227765,-6.55689296019307,-11.6219201015408,-4.17257263098276,-3.52419303666539,-12.895347847556,-6.26138665210375,-3.2873538832702,-5.0251852277692,-6.77771413400542,-7.26993101354907,-5.31761465659535,-11.4539998694431,-12.8602236478974,-6.856748714726,-9.28778949437094,-6.22218619619754,-8.75725193127335,-8.20407489120547,0.924491631333968,-5.32594730968357,-4.93514809697588,-5.24594613502049,-17.8159758269286,3.69216975702033,-10.9518934132444,4.21344525159652,5.47844668626776,-2.19156159715656,-20.7177564627396,3.7849083453448,4.24105839043458,-4.35576472148231,8.25271129405539,-2.62632810048895,-4.8498664619442,13.1891545671824
-24.95303371387,-14.8256688480783,-10.6339323331121,-13.2868362619889,-5.18031147768337,2.91262081559569,-22.497078019668,-12.2746543854312,-2.89652333595769,-22.1058619454496,-31.3286280198574,-21.0871769828448,-8.87141004103331,-48.1908729536052,-31.2745161186726,-22.3624184716218,-4.74220850458207,-16.0534400758023,-29.2708831193208,12.5933882024779,-19.7722961052838,-18.34161581313,-0.255149401532866,-1.05407977941215,-21.7383947646632,2.66948901770026,-5.65161952960492,-7.69913856348664,-11.2793933812685,-10.2486863307973,-2.26774701744235,5.86277763799695,-9.92307777908274,-1.50840357489782,-3.01219005063952,-0.895171415698504,-7.16883782175834,-8.1910975470292,-8.53249915947553,-9.10007175015925,-11.2245760233035,-5.53807469678889,-8.1113759625173,-3.4874544002221,-10.4603139945206,-9.74113457896935,-6.02534492766733,-8.34355248825984,-7.6362866197693,-7.77039534833442,-16.8151612736552,-0.384511725172611,-12.1123076219986,1.99989077542883,0.621560288577816,-6.00794046855912,-22.8350652355667,-4.75429239736714,2.60588289879202,-3.77287976231845,5.41967517744789,-7.19408898106241,-9.42667688042648,11.5849791738175
-27.5961797732656,-18.7897615116143,-16.9659021164293,-23.55230815293,-10.7416391424976,4.76611247039115,-27.9442282049417,-17.950243064102,-9.61849148701065,-34.9515430464871,-40.0344607816527,-22.5921338138554,-12.9054290240882,-49.9368619713008,-26.5940274904162,-23.6781583196519,3.24674270919058,-12.7443795330797,-24.6755568989174,16.1470992539794,-21.2169453870133,-12.589668581996,-2.07156232912046,-0.31394040552375,-17.7535894477752,2.56924980288852,-9.18904649486822,-8.73615045343532,-13.4509504834534,-4.94645140704232,-4.07626530929131,11.1704145570157,-7.00768173917067,2.79291270867482,-5.75360887508509,1.15406466206569,-7.98413541920864,-5.33719078687412,-10.2635681129772,-8.28588527328405,-7.68293504843906,-4.36187424865098,-11.8952585596744,-1.80956067588917,-9.79429923627323,-12.6168460047595,-10.5727711749737,-14.5743080673604,-17.0123861520175,-15.677866911855,-20.0566983055361,-14.5454775641683,-16.7961207512672,-6.11808989864385,-11.8800909197652,-18.7477484590664,-24.4401048247806,-19.1434161174603,-8.97980634988128,-7.16259726590239,3.51290659869253,-20.8420781362684,-16.6566519291118,4.36668574890476
-33.3372201049175,-32.5599180898709,-30.0063773493729,-42.2858043721518,-22.6037255653256,-1.05814967343003,-40.4843053450125,-34.8660624441945,-18.7540806336736,-51.2647078030417,-56.6539896560697,-24.4688359102361,-26.7275761614142,-50.4881849857822,-15.3520372219056,-22.3865729365526,-0.332655472077498,-15.014165982002,-27.4010779369074,11.0484536511964,-29.1069709089673,-13.2756506233838,-6.76671998533926,-3.61989387190499,-18.3271556927578,-7.10946990673,-18.7180923889114,-18.5875864761338,-15.9940700508291,-4.37221790421189,-11.3831865772048,-1.42352414777388,-18.0078286948667,-4.12100672633555,-13.9743147773393,-7.36366115589735,-15.2188410811806,-10.6310181985433,-14.2323527062416,-15.9583482894792,-13.1964394344841,-10.7027211586642,-21.2507788809143,-10.0721317103363,-16.2507777318279,-25.3626505503511,-18.028026631087,-31.3311103064539,-31.2645062686902,-32.4432728039821,-31.1043725898622,-33.6314366760257,-27.8540922204297,-21.674689378912,-29.473827107977,-35.2605351015615,-30.467384826814,-32.0212157687596,-21.2688398975856,-12.6596454021463,0.201889009275847,-41.1460742741096,-27.2548779644574,-8.65272227754196
-40.443270639034,-47.29087873157,-40.1441435354888,-56.6603294888355,-33.6483051403867,-9.27888410854072,-48.8033725460963,-45.4999119704403,-29.2042883708251,-59.0500476375285,-55.5488018453999,-24.7012001368066,-40.9967614120128,-44.7204775103704,-14.9666189680703,-26.4000537012138,-18.8796513991682,-25.5778976784378,-37.2780776228877,-3.1831764655896,-43.8525627899768,-22.6829167116097,-20.3198713956152,-12.5490469110363,-30.3940512241136,-23.7622259122284,-35.4927582803521,-37.8981550907196,-27.154075638169,-13.9857866607913,-26.9411838901065,-24.6089341930233,-40.8807369700278,-20.0517595144159,-28.1979830124345,-24.0447384142449,-31.8874344920459,-30.5448310196452,-27.970797537511,-31.6383014728799,-34.1065077331079,-27.7465170494866,-34.5844377469686,-25.8307433533225,-35.1425486268288,-42.9931379654457,-32.2371994570677,-52.1727980983386,-42.3954237543639,-46.5969620343669,-42.9668427481938,-42.1315357336569,-41.8728770346322,-37.4106666818473,-41.6695601332002,-43.0812375589205,-42.2802013917808,-39.4922903209221,-26.1460695580495,-17.044074005421,-5.6947110617419,-52.8107300260383,-36.8251203879463,-19.0909642610835
-34.4412092209079,-39.001483008834,-32.8963601352404,-45.964347527273,-23.4820261283156,-10.0338999281024,-35.4013385233061,-25.4854127966937,-25.9131760188844,-38.7784585582594,-13.4011082472109,-19.1884973207132,-32.7103564566122,-15.1419843480354,-22.4988640337191,-24.7539869396988,-31.9512476177731,-33.5435540278212,-36.2574262970506,-17.3287788305985,-48.6113833099656,-31.7911573978278,-33.9829063536992,-17.3621850818531,-41.8172263998144,-34.2642082406066,-43.9662979843655,-47.1215435453541,-34.8856674893455,-23.2555655225734,-39.7819533504637,-32.2845482440436,-47.8689128162267,-28.2918026123906,-37.1324666784131,-33.2345465183627,-40.7721807837718,-44.0316348743917,-39.6098905344644,-40.2730468691027,-51.1085081363686,-39.064264332114,-41.0817599030341,-32.9824619587239,-46.2159950353532,-43.9752250065246,-31.8624316055189,-53.8603644148536,-37.8166913821431,-38.2534757636704,-41.0045121444665,-28.8603275860671,-43.1406002414806,-34.171105321555,-32.8105626848998,-29.4291784162763,-44.8160486054251,-30.0094939294926,-19.9439973214509,-12.2093372064921,-7.0707374282128,-39.5698673789209,-33.4250485745765,-10.8739948208188
-14.8787239277663,-10.9491954292853,-11.3263184368697,-14.7011984508088,6.71323416931136,-1.28166435473797,-3.51415014580346,16.6798613727221,-2.40763103922871,4.63401289360506,49.4706921259806,-4.53899797290377,1.64248860988907,36.5477548272042,-20.5049826531511,-3.19914876958434,-23.4562079631017,-24.6034561499477,-14.191362761446,-15.8702841931463,-31.6153044258469,-30.0921043838935,-31.3601302262655,-9.98592886167765,-37.5524082047579,-28.4420794748226,-35.6443125124979,-34.6145395931356,-25.5150317451391,-20.482278324553,-34.221668331834,-18.0195572512508,-27.8724453632537,-23.127325272407,-33.0519763664748,-28.4043960529405,-28.696390474246,-32.5801897253041,-32.536611319493,-31.9139640818976,-44.1461705174055,-30.2124627010256,-29.8502644542374,-26.2371300857345,-34.7060060685165,-27.378607634959,-7.42191408165386,-33.1127015720988,-21.957522512953,-12.4083134205051,-27.5758493596287,-5.87247087693899,-33.2021397813703,-14.7572049612428,-10.0811556499746,-3.27760511506793,-32.5289061430222,-5.35716116883995,-9.01563657437755,-6.50210161482953,-3.43657186065353,-15.2890872831986,-20.4632720178783,6.81813605601962
0.291417236654868,3.71147922429502,7.18543248675322,9.94985270378105,26.7414982437002,10.4111661160914,22.2587409049331,44.9807478342233,23.9716190302707,35.0336002560736,81.1845000994022,10.6343105490007,34.4477862897922,74.2471010127336,-7.60626784625816,23.5746717781959,-1.94936397525641,-1.11225078427167,14.573337711815,3.39711047258403,-6.09092703510142,-15.2791058886279,-12.3278328560622,3.54428992871764,-18.9994639762496,-9.74147172310435,-19.4047507063353,-14.0737149293851,-6.80176199395613,-9.62402808003939,-12.4206416826937,0.0798468560237691,-2.78561391062571,-14.9998591836117,-22.6907065156322,-15.5358985682585,-8.36687586702521,-8.11543003366253,-12.8542762878036,-15.680224912249,-21.0772902152373,-9.27239387267786,-8.27785413039967,-14.8665320517477,-13.2867779368602,-14.9979541152164,11.70225955369,-15.9344896743884,-9.4796820480632,1.34457135252401,-22.2171734714902,5.45408652618662,-28.7429120416803,-4.35717951166576,-0.0846844789753124,8.59132326351095,-23.9552304994705,6.72256950440768,-9.68102969107875,-17.9368642826245,-7.76719814782149,-8.69157349369757,-16.6201819387253,5.41916195926416
7.3218773403847,3.61459584091337,18.8864078393636,23.8960562923677,27.8813835304377,19.9602749947068,33.0037017011958,50.1978546271167,37.9942357017926,39.1964619366523,69.9324368263663,17.7838816831686,46.6823234594688,76.1490403423887,7.85801432960853,35.0821914258076,21.1810989336229,22.2645543736849,33.5845354554708,26.4034081660952,13.6382787869397,7.48624551766128,11.3450405359388,16.9107914604596,4.32667548379087,12.3532760763891,-1.68950914309301,2.74594775820108,9.28785984573681,2.07584834983736,9.6250557867572,13.319646873074,13.3939029331067,-5.9938918823023,-8.839460186616,1.83528975370871,7.7647115564527,11.2291541553684,4.28292102558624,-0.554303922305881,-0.00736069704975756,11.1995638469407,9.62489377667469,-2.06550364700429,4.26811098959958,-10.8433564900556,9.28851331551116,-13.8375294959052,-2.5983840424603,-2.81775722237283,-26.8252768672205,4.31939539952943,-26.8947418126983,-7.29677362794076,-6.53731585591001,4.3786785561373,-27.950913465534,-2.52996824104303,-21.4706532300124,-36.4563879908593,-20.874972839428,-15.817562312701,-23.3310732391752,-11.8662413239275
19.6358649224489,19.6803340363917,32.9271736281635,42.3938877904683,36.2739191184908,29.1019667429161,43.3103682491298,55.952903277126,43.8033677814578,40.9087918444031,55.3089886014382,20.788694589807,49.6770941174568,62.7990067758746,21.7821118483359,35.0299597381872,43.2445393729768,35.877534111774,42.0910835836309,40.5176766430523,27.7037936917509,29.0353901514037,31.8526446630663,29.0798762779176,25.9770712220738,30.0810948798714,16.9457074480517,21.2392154327254,22.1202928065497,14.172193727421,23.8946655477847,27.9783610661856,29.2485258851747,9.41428589725713,10.9869620040586,19.372224029913,22.2007733238294,24.4475185276303,15.8044081823128,15.9345567559823,14.9450745844191,27.6230573163654,23.0249384861819,14.2750295658078,19.8549406374247,0.720989653980066,10.1672824101918,-6.52242420948531,7.01563750163067,2.75670837654557,-20.2086335165086,8.03576680872496,-13.2523730758787,-2.87796307150323,-3.68907685640233,11.9959065747786,-23.5674118248714,-3.51549492681258,-19.7302726861648,-31.7219376595594,-21.9484667066995,-7.21084580208236,-19.3412035855478,-11.848613939798
38.3303937596656,53.2058963705733,47.7116118835533,59.9407070559121,60.3301455947043,40.4024738092078,60.0334529195616,69.5226441585756,51.8294682559214,52.0587605612396,59.2771525666832,23.3011728823216,57.7532279799755,57.5157810855362,24.4784519086646,32.0067858440317,58.0698081361925,38.8049506226208,45.3375837756856,45.0002216363947,35.9661791670885,42.6254438359688,44.6235402625337,36.2362123347693,42.5014622643831,40.8961515544543,33.6636111845073,43.0349812256579,33.3436774853148,23.0804266135795,35.8812542019012,45.0594102112864,47.907884175561,25.8105968138412,31.1951853148235,31.2852273060924,34.5793645088723,37.6035042347717,25.3504354110642,35.0224253923277,29.2424054025179,38.4320821570271,38.1617470898309,30.7227364149978,36.7237976151357,23.471854553734,30.7057898507012,17.3229595470411,25.7082588789509,30.3728538610752,4.67245201521814,26.0444887166095,9.77235210709598,19.8675838648126,22.7965605996339,41.8552856913493,4.48781490496328,21.8273917415428,7.41138591171844,3.2915838689545,1.7652757679911,24.9010001998937,6.74038380527766,15.4763981039027
48.9367334402841,73.2906560098243,53.5260001018621,61.9108859201057,72.7227253087108,46.0318382882066,69.6917225808438,70.0067712889754,59.6962394425198,58.9608723736155,61.2195489710487,16.3001925137714,65.5766492625557,54.352051005236,5.47567331020611,21.0204499821251,55.5313951356558,31.6701536567995,41.9126815691508,43.32069772637,34.594565713428,48.80673238531,45.4106316466643,35.9299266260469,50.7949979174506,47.1043797075204,44.5083856673283,54.9202329774788,38.8687495715579,25.8186016224691,47.5565088596569,56.3415389493681,59.0110074879315,35.1139974482944,42.3636161473144,39.4763757489395,39.835120582994,48.6215217326485,33.1180046434809,48.8073591065231,42.8821044111231,44.5872943154034,51.7508721195749,42.9395964332259,49.4056762757503,41.0195541563754,52.0547959477985,37.8302928019184,48.2294762186335,55.7241220256712,27.372993244552,47.7422932123346,28.6572292950523,47.5704287057323,53.9521608464669,69.5924750085069,34.8420754231506,50.8254771239098,38.5577324100119,42.4896714238015,33.0410165620541,55.0092413879508,36.665368264798,45.9520927477409
43.1498636715339,64.6418472506455,46.2529135783105,50.7490917143701,54.8034070952559,36.5623931945091,59.9437291258566,47.9709096493598,52.0871518643863,51.7716471037101,42.4783164228575,-7.93926130312329,57.1495628575657,36.3983350189,-26.8586092642646,-0.611597994505941,34.7483258896377,14.2744285076915,26.1058294126262,34.8189709311883,24.3610834041413,49.2226998846267,36.0532114335342,28.867057065273,47.7513877927156,45.2214914681085,45.8690405462353,46.5242630397276,33.1657816966006,25.8950637748595,47.9721665136527,52.2793571733616,53.5445435734,37.1397447525131,37.5172814265249,43.2428796147909,35.9927901219341,46.9229897838007,34.5224121844582,47.2059000022629,47.3002589326146,45.704730595934,51.5121265987498,45.4393304925626,49.2316640796127,36.8069044130529,49.8943049203225,35.0435716465462,54.8545390296757,52.7445596699457,29.9767635205266,52.3496786798808,34.0583822727646,56.2082280376279,61.7302196933849,69.3507539491179,37.4322581739782,52.9007334777083,48.2187354147704,57.4938141506673,43.1532643892246,56.5482113880578,41.7567803321396,53.7148829502638
28.6709189357481,41.0689399912061,29.3552039572386,35.5734989826136,20.8767035228284,18.5046086985981,40.4004336375271,22.2147675869625,25.5805466879801,35.4092341073526,11.1938668860279,-37.2059391237567,28.3568670340638,6.06319974338539,-50.5479836284872,-21.1130990577304,10.6613527053535,-7.32026773248735,0.884171284392474,21.2578437561444,11.7777968491479,43.1043575340159,24.0849980485359,15.8118172659221,37.1068704572209,30.0745310977825,38.2041650480983,27.0483366412313,20.6351111970409,21.9607916884795,33.5223711216812,32.089213036769,32.9667630173106,33.0840240000245,18.4935175544654,34.2789828815549,23.771146469093,27.6985134071643,26.7086786178929,31.5598854556269,36.8030832242711,34.148415160573,34.2327591436273,31.3085363462073,33.5488363155367,15.6476470026757,19.7897840795493,13.0517024272386,30.4123750580615,22.8544585959088,15.74706350289,30.4648277613719,22.3138167006161,35.837967465735,38.0294180180922,39.2049790507327,14.1651334430326,26.040333338185,35.3876164104398,44.6265053704593,23.5462994509371,31.3694194615712,18.7487084897199,32.3461457058957
16.1654797317894,19.3507973311022,12.8504747216625,20.3181783153689,-8.4027077105603,3.13738212406673,25.5768476292835,6.5902634429976,-1.35503083716404,15.7447716736654,-17.1997153879068,-49.6702652304337,-6.10130281234599,-17.2259202613584,-54.7517382111452,-29.4299362183914,-0.985609490709548,-19.9404581895644,-21.110141049122,11.9692516743003,2.05077461016077,34.4484502868531,14.3512650601698,1.6776596014258,29.1421295955151,11.3888983904079,27.9349474203721,12.3982613648933,10.9268073253535,10.2847784886026,18.3927332438846,9.36662039449898,7.7928935206502,24.3935322841844,-1.59837880597715,14.2745162557145,7.2819413898727,0.493240359619968,14.1533285954929,13.24710453664,15.8954769052786,9.82768237632511,11.6208716894047,4.37475508144865,8.0758927450756,-6.34112197247743,-23.9955533525175,-13.9926123182602,-14.5804442960527,-16.364332813888,-4.41810707597644,-7.4055031881239,-2.26962386634793,1.14946462277235,-2.75803093808862,-4.33340445117098,-11.8312638360623,-8.33427087747684,12.3526641823875,19.5105939906733,-11.0084828562184,-0.0201129826661559,-7.6323965881077,-3.00662928755896
2.43703937614521,-1.24025166999325,0.485651241068891,2.69854618485262,-31.2456963310109,-11.1235488197636,6.31640394494964,-12.0633225529623,-17.8450786634133,-8.87302452447303,-38.4077311161123,-40.4336224135595,-31.3527018151616,-28.5138620052394,-48.1064298948889,-31.0406999149701,-1.56113821069897,-19.5210805237743,-33.2944784419865,9.52031632791699,-7.55074036337404,28.0296955244256,5.74773943292687,-9.31835448203118,24.3474038916021,0.871933744083739,16.9227296624685,1.49219001179838,1.19645991489814,-3.79842596077289,8.12913903882109,-4.43764060737289,-14.9324421712781,12.5334644650758,-14.4837549943157,-5.8110565879566,-10.3936686902053,-23.453162365212,1.03863451253607,-3.14691968954066,-7.0689993452178,-15.5806387505691,-8.17454297539403,-22.3995924230861,-18.8865368703765,-23.5609512251053,-63.9504265866136,-36.9352038576747,-54.7102622572868,-55.2006704049946,-23.6276335569552,-46.5759556003218,-24.495777339767,-26.5062518169278,-39.7872534498944,-43.1498532801602,-29.0378070779813,-35.5615354584344,-12.1603977358539,-3.80368349775611,-42.7612440781742,-26.7251139918207,-21.4982520684389,-30.1637788360537
-20.486100248819,-27.295071337803,-16.0952815273333,-22.5318871257198,-53.6717347624802,-27.5808659048532,-26.5732082479698,-41.5683331569517,-31.9086925358895,-36.7967635880965,-54.2532911983923,-26.1344156236506,-46.1669106004288,-41.134760506563,-42.9089840898639,-36.7637625142825,-1.13187618371367,-17.4754857142832,-39.6600341948827,3.05100226634783,-18.9372248337481,19.9244809303412,-4.85582267973422,-19.5618297801255,11.8593790421157,-6.52036733865296,1.08092034463397,-14.7853279911334,-13.3645979749948,-12.6361978620048,-7.3254591765469,-14.4855613351502,-35.9446730405591,-4.23338769380654,-23.9118282803625,-22.6061211573117,-28.3120565589578,-40.4805883861478,-13.3675487777436,-19.4984378318194,-26.1461770820548,-35.8657567993532,-29.1065604773384,-41.2010026413972,-39.8881869415066,-32.8929715055753,-92.0343435526496,-50.0657688984802,-76.8945944396381,-93.7249791026071,-34.8923638446523,-78.7497189038695,-31.4195758457602,-40.4391864538565,-64.8997445452799,-72.6051819933748,-39.2325769791081,-56.7483929518355,-30.0005470067721,-20.8284321955901,-65.5849339279063,-50.4482651511131,-29.6926468453423,-42.1579015677327
-43.9423190315514,-49.413044031685,-35.9183789658472,-49.9998529819932,-69.9961109527098,-38.771702706811,-50.6480249488873,-60.0580526371521,-43.5173707580761,-54.4922709276359,-63.1367044190284,-21.6236078423278,-54.7540553775722,-53.419761528647,-38.4765733645664,-44.1585241907948,-1.62009994866389,-20.6754921472567,-42.4347778856453,-8.630294593827,-25.9066972141791,7.48957859408145,-15.4401794993737,-28.5099557491503,-8.71587599274706,-16.9143825668897,-16.1867671034576,-29.816294569868,-22.4706450972257,-16.4306187581272,-25.1072779095175,-26.3158260942477,-50.0459142820432,-23.463068637024,-32.783233752856,-34.8019525514478,-39.5458434093317,-47.9557025746088,-25.9226095494889,-30.6573008750134,-36.4560496169462,-48.0382874995642,-47.7167342142441,-48.2151796544067,-47.0902009989342,-28.0138168921207,-102.839772742549,-48.8313237912781,-83.7839473641764,-121.623261817135,-32.9097648142769,-95.4848419955596,-27.9893040042054,-46.2565259146717,-81.3813130912126,-96.7065089042502,-44.4238037308217,-72.0055651314207,-36.3819988790352,-31.2452009426682,-81.697392011901,-70.9128063867406,-39.4070496833969,-49.409990331487
-49.7755544571525,-51.5520881325265,-43.7782091293693,-63.198679062222,-70.1600622874278,-37.247138961256,-46.7810257246534,-49.8970271638305,-42.8583754403249,-52.93694895568,-61.9409322125803,-23.7746263535361,-57.7738585646875,-48.406560396993,-26.7139814075922,-43.1021822675114,2.83381504251457,-20.9187568876225,-39.5130741201075,-10.4690528390328,-23.4843645175113,-2.07589359300317,-17.764845422489,-29.8849165518341,-22.8963785460724,-23.5116952544353,-26.0704439604348,-32.2293009428986,-18.5893250664515,-19.566990077067,-29.7907935108916,-33.0169453699285,-47.1751745438842,-34.4867308811997,-36.7513525246935,-34.233317984727,-36.7862366304527,-43.1379288387423,-29.1473951404022,-29.8361085103606,-33.0371069972181,-43.1114331871007,-46.9769388565404,-38.572293476194,-37.405051942338,-10.4353604942688,-82.5968024188555,-29.690242317815,-71.2021138281399,-112.788751566378,-19.8734649190654,-85.4362866952893,-24.4776331147248,-44.9171262932613,-82.3454082076429,-104.432789438464,-42.12739573465,-71.0108347390333,-35.0947658340309,-33.1818559882674,-87.7290097053373,-79.16847746204,-45.4229616876957,-58.5837271334562
-32.8733200758071,-33.521523937074,-32.4931425946246,-54.1351259092877,-53.8924194381843,-24.2658605960483,-29.0988015437136,-23.43975722972,-29.0665795357984,-40.1012697224681,-49.2378347416194,-20.4843465909148,-51.6992418755735,-26.3270075411405,-9.85509901606542,-31.9340224226507,15.6761506561508,-11.7932344445034,-31.8526021006741,2.81717839863728,-12.0703013069944,-3.05364619669941,-7.82561787882561,-20.7996951067629,-22.0121512302089,-19.1489310534014,-25.9310505287773,-26.2011208080459,-7.9335857474015,-19.8576228215013,-19.0569879761292,-26.1889817914913,-26.8312158577049,-29.6147499910575,-28.3478477638298,-18.4343968526172,-21.9284092294292,-25.4519966216706,-19.1785793623748,-18.4064297307603,-15.3661263689822,-18.0885840106953,-21.2598495083533,-12.8063339410825,-16.92273797721,18.9838303670281,-20.9238261484791,9.84259745734471,-23.6995851414762,-52.8964814081103,6.18002982968563,-38.6477172674475,-12.0326017515905,-25.9150608835921,-50.7888274824708,-71.2336489107992,-22.1671366881058,-39.7202919267196,-23.7688007081501,-20.1522176564613,-70.8125883885131,-59.0884530501024,-33.10908736479,-53.8631970323151
-8.87435363999259,-11.8848576457956,-14.2887920956332,-35.0362834951768,-33.5345361774096,-11.1345908208312,-17.4949406123381,-7.37232675485861,-11.3922165060353,-28.1682417925086,-30.5765278354176,-9.976762428866,-38.0243511844493,-9.26079270393144,-1.11536560827342,-21.4518874213056,25.0542585299928,-4.2697470271134,-26.4001998658824,14.8724797454985,-2.28645826377365,-1.45714032788539,2.27678117741401,-10.1260231714626,-15.0174981373676,-10.8345765092675,-21.5052566870402,-22.7180751088724,2.53809528620169,-13.7213669613404,-7.42259806944815,-10.4319807314418,-3.05220011056315,-15.7070950583465,-11.2416445454345,-0.351973973573068,-5.07520159433638,-2.61976818327847,-2.98293329825833,-4.25966148079143,4.42211325091127,10.8652617516223,7.95950368360799,13.8939534335564,2.14446270370405,58.3768905384279,59.801630557025,59.3181308741851,48.0915569014441,30.5453555608864,47.0301211765357,35.5408721759577,20.4563831719375,13.4538007378937,7.04751308818134,-1.63589755814181,16.7895150201916,16.1008223602905,2.79367935453263,7.69133248457041,-29.3381789254481,-10.0889864476476,0.988199302540058,-20.5708976393919
-3.40461965579463,-8.33937769188948,-10.847096269691,-28.148699442211,-30.396444376931,-14.8800422946189,-21.0148423329984,-22.212444720012,-6.43419243527564,-26.273096511264,-22.281127400937,-6.51708926843884,-32.2749658997545,-15.9864915462765,-9.55888578078567,-25.1221070484167,7.93839458389047,-13.7914021453557,-33.5722312278899,4.2861407683525,-12.8732841813947,-7.74704348166921,-6.12883834016747,-15.3429776506778,-17.022621404101,-14.8378376781044,-23.8592966115386,-27.9326044623834,4.06288447114642,-11.2686588866991,-11.5892585730236,-5.8762450440623,0.546211895855163,-8.90304498227193,-6.73780507587139,2.21581558662481,-2.03345397795059,4.13258584808363,2.55941155941455,-0.637681602702755,7.22901875096101,17.3728264399987,12.4891268109877,17.329884973166,5.23300902345997,83.2185015006616,105.577707406504,87.6771861670049,93.0920873644407,80.8296582730142,78.2901321172633,93.0515603446354,49.7974700382404,46.5259221846244,48.7168866695758,54.5071967841723,45.270624775449,58.4093152523342,25.9189100287639,28.8202597951275,8.66577446048499,33.8502530286168,27.3841166403998,16.8021211561679
-15.366837211153,-22.7388744201461,-23.0004139999589,-35.3230519699528,-44.5115424149352,-29.3902785661417,-33.2663336171331,-52.0102356307649,-16.2111649775326,-33.5820360967003,-27.7385959477144,-12.6819520854391,-38.5022184846038,-32.7603506721598,-22.436137003334,-35.0069792568265,-24.941400843048,-28.5666783971669,-47.5115573189672,-18.9409985571635,-32.9159044022645,-14.9693231725732,-23.4595575736816,-32.1486765450518,-24.5715586553269,-28.0277673613703,-31.4517824015971,-36.6549488734163,-5.74164041214713,-17.9266764853797,-25.7059181709597,-19.1066917542683,-17.6211552423653,-10.8352630303935,-18.8555672902277,-9.56981767954547,-14.3885272495216,-9.7093502838549,-3.27394245768664,-8.14401493002783,-4.73131996347713,0.696213764147617,-3.26142049904587,-1.04666883708946,-6.47838575088747,72.9520401473188,89.9321723300485,77.5423673235074,82.7806942708844,74.4823342972095,75.056046313195,97.8301834242694,47.5920203556796,47.1099496197274,45.9789605572925,61.9834648455958,41.1562656384213,60.45703277013,25.2164845932171,27.2630553278292,15.9359899328999,44.6597443568015,20.5802922357567,27.0918191031521
-9.60569750270483,-23.3807255779289,-24.8887081260531,-30.0860685648031,-42.2268673202022,-24.5594966832882,-29.0041281662476,-49.4491689670367,-13.6348510042081,-30.2423641705724,-23.1491240441445,-7.50143490173894,-31.2738875921435,-24.6598431772299,-10.7740642918159,-22.174182542633,-24.5553298481313,-19.0531193193706,-39.9850891406399,-14.7006484168759,-21.8076275030007,-1.74268488945155,-16.0015404523892,-27.5920328381063,-15.9645550003823,-22.9485885553945,-23.7237949460849,-31.1361005642436,-5.5366793957534,-13.6619313200214,-20.1674286319264,-22.490850624321,-20.9321486670442,-4.11657974734971,-17.9735329032141,-10.9321173739374,-16.7765598952973,-13.8191148470241,1.44911781144408,-4.32147849265781,-5.06450856548695,-4.84596410127091,-4.53440979260405,-6.16354725621853,-7.00769338207919,49.3301177548519,48.8518334200191,53.877489700081,52.8902792362076,48.4747356166526,54.1654228322138,71.081202619031,29.5267522872028,29.8568067811705,26.245617833054,44.0274886791429,28.652984723105,42.8677497411127,15.5631574597505,19.6723879927768,4.18862643486615,36.5916839951163,1.92509870650581,18.8789422410595
19.7537883633218,3.02815820114634,-9.75890223575792,-1.83726555412641,-11.2078791010328,0.910154332436253,-1.90114944867443,-8.38839529633611,10.3575436919494,-6.97285995070669,1.62636115377266,12.5802150004195,-2.3014530594747,7.2837874470014,24.8368629966976,13.9217198486311,14.7758775155615,11.5745461048483,-5.36420223618209,19.1528215766222,21.500794330549,27.1455433616675,15.7985776168929,4.97290384438847,11.299038985985,6.08875030595599,3.15332370452695,-7.24761900178479,17.5500822179875,11.2292058473066,11.4027725634741,0.0803661132271396,8.52010509298798,14.0394966094499,6.75087900269308,8.37037559000086,3.55602166033925,7.43048113197955,20.9542069026837,15.9106098819119,14.2129769802264,15.8272483968719,16.9787052694573,13.8230389003796,15.012241245095,38.2569871990698,26.7566727469382,42.4940285736088,40.9263440791446,37.8072860144386,43.6762994406502,51.7082480613886,22.2984867748058,21.1669289718324,22.3806829444519,32.638349071506,29.9074573193608,32.429627784233,15.3835086913177,21.8517623381357,-1.9920294848716,29.45182897485,-1.20020953512015,10.055654008361
34.1114065724972,25.2759430750704,0.40392231046562,22.0715455954742,15.1727039094189,15.2627528803123,17.7168966978344,24.0415572361471,26.3535571577261,13.2435503484085,20.8143784746887,23.7759880512798,16.4401724838734,21.7402430621499,44.5120255862506,34.427972727683,40.0646056811427,29.0246772635714,21.1137624406186,38.0068407710459,49.3738291185913,39.1944928675342,33.0950563154695,26.9634779174646,30.191576316462,26.7089006945362,22.3665990650981,11.1874562302988,36.4756660932679,29.4450693834336,35.7026545348476,19.7704932256949,34.7185830078818,19.5472275951449,24.6633955127843,23.6585020125796,20.8797400264939,26.5373606433121,31.3721933298304,24.077789922203,28.3217667169701,33.1463956605422,28.3158489732259,25.9601019848411,32.1035678095093,27.2203064245957,21.3715418508502,31.685041521848,34.1891088238742,28.6316276685816,40.6960640459611,38.9711564257313,19.1150914516467,19.1192565610313,22.0960079267855,22.8150996116191,29.6906447675281,23.7533820287476,15.4938287849468,24.6767700723641,-3.19667131271945,19.2664673833141,2.71884201246395,-1.29819067327785
24.0777185711164,24.5217994837236,1.59426691359367,23.3033872126946,16.5369998280771,11.49869717082,14.8602828275066,27.0944778452229,22.2727250675516,17.7073114745288,21.1091525660865,21.3991277509656,10.9492453667377,9.43391825293665,33.9971849408073,26.431807865051,30.5286736486576,23.7560170171036,19.765058471236,28.9853736575717,42.5063759512299,27.4879062338014,23.2869952282291,20.4315863756079,28.8926344248684,21.414681552971,19.8687550325419,10.2186076852748,30.6424804778762,24.451333064592,34.021114074136,14.9150614200303,31.2579804083076,3.94458672082316,18.9412288831883,19.8717671598204,17.5729749305323,24.3882371228051,23.1894831990807,12.3879525044317,23.7074248232169,28.5274497400576,16.3530139946931,16.0304390913129,25.5337764139447,6.07263638918869,7.70966127810576,10.7193564389357,15.8148082214165,0.630115965381495,34.9945979394709,17.2914810299479,12.000693381302,13.9809254932668,8.46509136956525,4.05793772339384,20.4505782943816,8.04339094559963,11.4464007672908,23.4586936410194,-7.6407173726837,4.65420824586978,2.4236170397231,-12.412104175618
23.65704708896,24.9152406389812,11.7661909036917,20.1794266632724,14.5883970269046,13.6133429114119,14.3688296434683,26.386459664511,20.1180124881876,25.6567474395086,23.8808252655927,25.7887902279189,8.86747770474858,8.47346828188802,25.1181177458259,22.2830340994776,19.721553716992,21.605187430922,14.4718722869739,22.2664401342009,33.3469407681736,19.5700723509584,12.9830073831542,14.8133863756296,30.680630425773,12.9010104192475,14.2614418874207,10.5940357509911,24.3011896835671,22.2736812991143,28.8782781072628,8.25259382970654,21.9289200808299,-4.1073297888139,13.0768025018312,17.6957081365832,14.9848999229581,22.2867617940392,17.1310876783242,11.3072253064821,19.886751035048,23.9809858341804,10.2492997184167,13.8039374758941,17.6407558085341,-0.365701430056565,-12.6614984630015,2.3104287134675,4.16827870292471,-28.171412799753,37.918495725747,0.859589453861398,16.1318372916482,12.9862083553041,-2.80803006092983,-8.80532364174228,20.4257942487295,-1.58253732559703,17.5287325832166,27.1302305324305,-8.50413309314881,-0.174104762068132,9.26748377895273,-8.49331918464749
40.1276880680297,38.059581798863,28.0334753670282,26.341020937275,24.3549368002246,23.1128150209931,29.6232346618891,32.1479172563818,27.5620001204434,39.7830667277227,36.7341834361018,37.1201232578108,21.0785927273096,26.3562374607,31.1253309410845,33.0676344525591,21.5011319427086,32.9606405402952,22.8048500158121,24.8157246095355,40.7141204421351,24.4069746161341,13.429445055588,22.4847401100399,44.6302611519436,16.0015944981723,17.2065989072432,24.8361636387936,35.1353642055565,36.2190771052634,34.0175721661034,17.6525575587682,26.1844037072204,10.5195975871363,22.8405072264209,27.8881737016655,27.5635622830495,34.1050661212222,24.3874301611991,30.0461408704883,27.9802646913444,32.7680437652432,21.8835691780683,29.3951351991265,25.6255518327822,18.845901367799,-16.3827765015536,18.3859138697551,12.940595854054,-29.8587699217731,52.3574680243517,7.49857564167553,30.5091782235901,21.3187871320282,1.1292526263619,-1.57956466699401,32.8233290490282,3.55034489587966,31.8573458095694,32.3506567085814,-0.905629217869974,7.84804155430232,27.8345908399506,8.75789796688107
45.6130488096879,42.1051376632535,29.206014799293,32.9145077239955,32.4356283821914,18.3615720698644,40.0834485049525,28.9867102184853,29.5905155234065,38.4996973630306,41.8277590667009,37.4832146069549,26.0708862605943,28.9815603373088,32.9848787089759,34.7522885442452,14.7717923648896,38.3341156779644,30.7297704586653,15.60395058391,45.0640437771694,24.6526389249985,10.4325931669454,21.3971118225949,48.2028590656569,19.2380597347603,18.2320102016127,33.3500486704247,43.7429723491606,39.5248802438027,34.6879837468992,25.9593163063351,32.0739114571567,23.3185003551061,33.5536261670201,33.570281766616,37.3056609599498,41.1436802922713,30.8809461238299,41.8084104181471,32.6012483348059,38.5359125399916,29.5655709359444,37.9665793474205,35.0551427380882,37.8583483346927,3.52573558496917,35.552721522099,28.0763999081491,-7.51296051345453,58.2357999992894,24.9469168370389,36.5236153417148,30.6802769745106,11.2020140586085,16.769726268944,43.7876763644896,13.941371956117,37.3296143479457,30.6626012039453,10.3040564597759,17.0118400957303,43.7974498675643,21.4968878934613
36.2052648092811,33.3070614023391,17.0701037801229,36.751618758131,32.9933443370074,5.06816926385806,34.7275861324976,19.3409999846182,23.8429327844528,26.649229424661,36.4494885575171,31.4042913345691,20.3813167579149,15.0199024339148,29.151351800382,23.7063195719736,-1.68349712444335,31.5592121177471,30.0851269217282,-4.72484895729915,38.4064914610569,19.5387837602761,4.72612898239663,10.5389691931589,37.415083936589,20.4347551885789,14.8821794632098,28.7871294583975,40.6450506293329,24.1135219618978,30.3965828130714,22.4802930937995,33.8508067972042,19.7698555697946,34.7379130126353,30.9169512614183,34.2787451755458,36.2301174142422,31.1987280465589,37.584733770124,30.0681447163125,35.5424956276286,29.2537895540304,36.2585162802488,37.0307173017053,41.9468829665005,32.9752786427231,40.6604470510214,44.3453605934895,22.2552073405161,55.4909219882466,41.1157694802838,39.8370153502703,38.3156386557436,26.0239604032333,34.8487373141413,54.1839972392958,25.8371936496459,35.2870655929711,30.4372117722564,25.7950199812842,26.8379794730578,50.1682970700728,27.9083044356786
30.6428204812712,28.2695117090573,9.20305226419349,38.4544711009099,31.9452847220569,2.52788781209759,25.2079831099793,16.7745010799576,17.106813768182,24.3110216452966,32.1607456512621,32.0136862185304,18.4014102997491,12.6363865301686,30.3655415801575,15.7194015683411,-9.87751794162651,26.7565799502335,30.8396441927364,-18.1277421358613,33.4559211557393,18.4785730285866,5.4961846086863,5.68686868979997,29.1325458923884,23.6386607350014,13.2674110492521,26.3425815212739,35.510977148051,14.4920523625507,32.9843402863513,18.3120362004646,35.7116331652652,14.8632552762539,30.2660103257712,29.9712181474923,29.5293091294566,32.2615923465431,30.9395261303544,31.3103042802985,31.5317170307559,32.5976452024225,32.547493899722,38.7180932141633,36.5929730270303,41.3258275019353,54.449982754944,42.9088238548661,64.8967300311103,50.9607731688592,60.7442431581127,57.7129046698784,50.3878596619506,45.3018901704093,46.913240658583,50.9198549968046,65.8354580032927,38.9545712554275,34.4804181578177,36.2400938722958,42.2386429281127,40.7173146378682,51.2541339296826,36.1458880598916
30.5109586719407,23.4078973864953,4.88100186908085,31.0737621005723,26.8013847528718,0.676043013506878,17.6867424084893,17.3137039436303,5.44953097615985,22.7033459173518,29.423972802082,30.9454830350394,16.3219480823175,20.084078317253,29.8268126307774,12.5418961001064,-9.61649963296069,26.6015754950832,35.227605067995,-22.114445805857,31.0959490794004,15.136535273097,4.15320683297277,2.10100952774481,22.9603997972374,18.9308582063339,10.1197623499159,25.7140068192783,27.4539486173205,15.9492222568683,33.727490344018,15.9883563070554,33.0930501114848,15.439286256419,21.9767082872812,26.6958390550519,25.5552673288604,29.1354941168544,25.0366024647099,24.994437723919,32.824809773843,26.638726701103,31.0966550072889,39.0351291860859,30.6502053438284,38.3252768841681,53.4006802535828,41.3211494255899,69.4626954773696,63.3036163766094,61.813955022007,62.0195020657166,51.2700083506483,41.2740829586209,53.3263214897622,56.2383730415446,64.6440338794552,40.1160917611123,26.8749458158647,34.183980566623,42.5630950149534,46.2697347702732,47.1309792508838,36.5467980449779
30.1934017872097,10.9384336544408,-2.63135760241805,17.3410900873409,16.8717553460279,-11.8790705375694,11.3102014873531,11.2415395181219,-8.38104699917269,8.28400565813651,22.652302935325,22.3674953551622,8.04915925350963,16.9988282760902,23.8946464585008,12.7498467957187,-5.98508924155053,26.2363939706199,38.0269178833043,-21.1172183726869,28.5311634408515,9.80474471544408,-1.30142554932891,-4.12646768790584,15.6856843985126,5.95953969292774,5.53198650662769,19.0432315236728,17.6586321047464,14.6230755738249,22.5834937801945,9.98725463975885,25.3706215132071,13.1761100606025,14.9216413122776,17.1495968736066,18.8819840631663,22.6042136647236,15.072782991794,17.1695797122843,27.3414739365326,15.1492691274697,19.4945384990304,30.8874453777673,19.7415442689222,28.1749917689887,32.7176417508086,30.2977305212781,46.4795672657651,49.1918814149158,41.9721033040887,45.6410010469957,33.9058433042799,22.7273226074064,33.6861166563306,41.8529890418077,48.3277892852569,28.4943218330605,9.52797067406701,21.8534387976451,24.1053646489151,35.7911912308532,39.1433031375376,21.0092802116736
34.8722837785896,5.29734062637222,-4.58044173194192,12.8101993569687,9.42852385957936,-16.6257180509469,10.8908872842145,-1.17278326870969,-7.41926452096863,-3.42683550370437,11.6420794548201,25.3564882210923,7.38238921253296,7.42454085774074,28.5580343451596,23.7301646692724,7.74327613685294,33.1465330714057,43.8724373966751,-10.946965477999,34.6613807028088,17.8003829885648,6.07792050236099,1.6561241657575,20.436480378052,5.11808825960128,12.4949423567443,19.5206197927783,20.6211552576456,16.475205647895,15.1287976716916,9.07173535794942,23.124946817547,10.1808577727434,20.7883063304495,15.6168947507916,19.4249541099567,23.1461511917427,19.4682196392618,19.0617535415978,26.7519168276612,13.7632364202416,18.6555707389003,29.3041926719847,20.6609271177869,22.7054555226022,21.1030126220418,21.630294944891,29.256046061468,32.5135360992184,23.1762705198376,33.6672105261883,21.1050587431372,10.203335103662,14.921555922161,27.0389632781683,38.1350726611928,28.7182002542419,4.56493354927824,18.8501569015299,11.7936938427392,25.5749613926481,36.9878601286381,9.10393810034026
38.2646973508364,8.24349179900879,-0.726821265763981,17.1091743390061,0.895356579227632,-7.01662974875297,11.627901870415,-15.8074463050929,5.63481936417179,0.556260597348537,-2.30206285229263,46.4985025932874,17.5665563058652,5.9404887518266,44.4454576137473,41.5270451991882,23.8195247532574,44.6549406099763,52.3062824718033,2.57804416163765,46.6267690918919,29.2661167710888,20.7540505236603,16.2921931727588,34.1547839096992,16.9043215450206,28.8517060663522,30.9892617845926,31.9214519836442,27.5409050247732,21.2079821255133,17.4272959214858,25.6170595260562,9.18671491937681,33.485352930405,24.9903072177044,28.5511096381167,30.1348497114374,34.0191259215493,28.2417042428273,32.4656353652171,26.383793325961,31.8926209451203,36.4349171089251,32.6837507256695,28.5250493382166,30.6577741367047,22.6868119304964,38.1512287193206,33.1643979237232,23.2573663717738,37.2419324449761,23.9300341744988,12.4533038772756,15.2555423282756,31.6744597337738,40.4211184465006,43.0467979821223,18.966286233129,25.768024234491,17.0436366628617,24.28661587478,40.0087058473967,13.0466727394061
23.5043162069146,-2.42847826135126,-7.61118426504162,13.4764532165288,-15.6747592004999,-6.73307249373295,0.684793079057247,-23.6257546915729,8.7197973569258,9.17822222014721,-9.83278270220192,58.4570948318757,21.7394233585238,13.2619970998797,47.8694317767504,49.4357061754438,18.4958361919124,39.1385366180349,48.7492655668293,1.01224155141113,46.8932079454617,14.2824615297847,16.257040388681,13.4025790425206,30.4243458205373,14.8419592963457,28.9334964803082,28.2064171256065,26.4013149942079,26.9679551967435,19.7653417354702,15.9813015892674,18.8494903346851,-0.0269578917472635,29.8494301259869,21.7254641806611,27.1331203834611,23.967271127703,29.4208231115695,22.7908538224908,24.3438469117808,28.2138686638762,28.8784539283984,30.5746261364509,28.0894193313487,23.6556088003625,31.7483107680898,17.0110078641454,38.4317125143994,28.0426094494394,17.0853624851324,26.2241274855614,19.8483432879632,6.2770490390895,11.1714218410042,32.096786873287,32.8838586586645,39.7270378875365,20.4390577041442,14.9881733207205,16.3055600090097,12.7674344620349,31.1977878563452,11.7010978106729
5.60896432517288,-20.4736143247946,-19.4883949780449,7.873652256705,-23.6720461003271,-16.4128264791031,-7.28419089569304,-9.90165305591761,5.40315407196563,20.2872047694949,7.39292844357086,50.4640503198535,22.7752115111549,31.1722396227109,39.499085993927,49.6382474703491,-4.18710737862457,21.8027869770792,38.6771441417744,-12.1319852249855,37.0864204966649,-17.1546517108906,-1.56793462580575,-3.8788478877955,8.0384222936029,-0.901016730358893,8.29852316698391,8.36243741108331,6.04018220173755,9.66715539184025,3.42348606989965,0.936397880637201,7.84297287401949,-12.2807908810045,12.0203611896097,2.3537601695801,14.8958957204617,6.86870623499832,8.50543828451499,4.39823837027256,5.63163524675481,11.8605581325949,6.08760423765722,10.5467463804437,7.29171970230849,-1.27010133143632,7.78879023942762,-3.24619340116461,8.09686797217771,0.394739089369162,-9.36164166468668,-8.57484320764854,-1.11827654878201,-16.5079004278698,-11.3410904048487,4.8286104299374,10.0774269933611,12.342741832307,-4.6645556405605,-16.0150227617189,-2.77950848062377,-15.0974181344593,7.86356758904524,-6.98264718894014
14.1410723371807,-16.5183654142748,-12.5355084038551,19.5145837965073,-8.60571984861113,-11.4809270097734,9.04336934448803,18.2346026106941,15.2377776784662,38.1252174787623,36.7967250438138,45.4166089768481,36.4705040892801,56.735027587192,44.6711769575806,57.390309437865,-13.7421097935792,21.7721229949432,45.7495340894476,-14.2385833770465,34.3331197863355,-26.4559905974215,-5.12642984321201,-3.69097689724849,-4.47792828850035,-3.19637781665635,-5.23924920670508,1.12808620965751,-1.34937320525384,0.227875613341257,-2.22395174722896,-2.72000421402237,10.5224904501422,-8.55727145536554,4.9741402605627,-4.90197602866211,12.5577598797786,2.14331190397166,1.09934728752401,-2.63844667504134,4.06647817312419,2.1493378055704,-4.32115514934154,-1.67214036142004,2.34001779208658,-21.0692617510113,-15.7657039554329,-19.0596120281619,-20.3436761458137,-23.0285552137283,-29.1915031823088,-32.8032577396445,-16.0887503842003,-32.9467554641745,-30.2909687749572,-24.8567846048022,-4.66379340625371,-9.61861782991453,-24.7766724720323,-34.4980706249523,-17.3753465469037,-33.8070154456147,-8.6055541591301,-24.2422754013974
35.953929513006,3.70596692509877,7.58965101670708,35.1801743180334,6.37991317591635,4.36118635791298,28.5709398974058,29.0671913667704,28.6661429104178,45.1657083208391,34.5521472651116,49.7413782857444,51.0500199355676,65.0782877350722,62.6210889051704,65.2772878467095,-0.826122540514889,37.2412856254381,63.0510343805945,-2.48261952449474,40.2197569619878,-13.2952115160842,6.85989415860219,13.5166331127511,1.29167957253276,8.29463740016732,1.11270088939174,11.5603266628485,7.78637681885437,2.83180245121814,8.67585287941465,8.41443784976017,19.395188979109,4.94035146947389,11.1097890254768,6.70071499641122,16.638838749519,9.85698685139904,6.97515177355952,2.24405845155515,17.5476775647951,6.97642377850043,4.386216232939,-2.63734622102314,15.6541993222729,-20.8471680030035,-16.9971007739986,-17.282621015595,-16.7645024359022,-14.7386812738907,-25.324112868006,-23.54087480518,-10.1880946486382,-30.0386422618387,-26.8595237931421,-24.7571912997135,-1.2365731670897,-8.74284175328877,-20.0748693468191,-23.080381162284,-9.30453224757622,-23.7593173068299,-3.76200581020403,-22.9180953615196
33.806002663412,7.62724402867763,9.64535847792755,24.3735456934567,-7.26956346592966,3.06426956753876,18.1262898338694,10.2487622733669,19.1269669793189,26.0039682298649,-4.37832082203782,42.9303196928466,41.3118800334681,40.0365646204109,66.5221875622378,53.0379857059887,13.8075027451903,40.0517734540733,58.2110596379014,4.60288177221721,38.7783242890231,-11.2562429654401,12.0071458484099,14.3173837774729,4.46922781791231,8.47419816905207,6.36913053839958,13.0422913409997,8.59214691243691,-4.44892203471817,6.64672843405943,5.64423297010934,11.3399623264555,2.87248870072673,9.14622074585868,9.62202791438401,4.20873739044322,8.09857931548855,1.23739518894145,-3.81534908489695,14.7119441213165,3.50875305040009,3.67350981611727,-7.43071014441265,16.3640839034981,-20.2303752718811,-8.88562653782445,-14.4126971924564,-0.174733723406186,9.94772344236354,-19.0399080160296,-2.19297633861563,-2.61069252924059,-23.46473454377,-12.2642703666473,-8.08273935180575,1.60612721346679,0.999599965765545,-12.0398975382188,-2.75470637613155,5.71321725017047,-1.54336132343846,8.11023121038864,-12.2135263386286
5.81280365687022,-9.59556541842021,-12.772405281351,-6.23268314869577,-35.1113068708771,-18.8289285527597,-12.6002640725813,-12.7729894410181,-10.0000209905924,-0.576690171788786,-30.8046955517224,23.0395125267919,14.3397141551687,7.10211631349295,50.8649261527596,27.5794714630839,19.42963155282,27.0092467251115,32.1965708217392,1.24942106323852,22.8323631902353,-26.6525957110517,2.28443703727966,-3.77878153138499,-2.44602072958624,-5.86636102737776,-4.04179044713887,0.131990967450235,-7.13031656205368,-23.5141600375151,-15.1839373303205,-17.3326687615541,-9.57472708604017,-14.4312463508509,-5.69099861838357,-7.74917341861035,-19.23094809422,-6.1099003066969,-17.9291970088295,-21.8646763651337,-6.86569914080251,-16.1474434917865,-17.0529310598119,-17.3297040960836,-5.23428843413077,-33.6938238580958,-12.7086872790292,-27.0725290696998,-4.27278396904925,16.4130214373084,-30.298157711697,-2.17891139775509,-14.3960493597238,-30.5992706899229,-9.68713384574438,-8.06453389692413,-11.1412139431682,-0.0780758166899091,-19.9217066179849,-2.37288427826988,4.12061918804588,2.83982030675276,6.47298369889341,-11.8329298502563
-12.9809251414703,-18.3120567046817,-27.1795913143327,-18.2067707034793,-35.7847628092073,-30.4596155531804,-25.4093524191402,-8.59995438757583,-24.2441661729355,-2.07903999416477,-10.3375296333303,18.4407100378897,7.26516056111503,5.05718699087247,44.1854192447308,19.9429220950335,31.6042745127527,25.8636215476471,23.0149106438403,5.83780007724933,11.0554793431253,-30.2044724292758,0.0858461025184816,-5.07849813510051,-0.176026236918704,-8.97151812471794,-9.30922905414155,0.14930668092201,-15.2473961101404,-27.4285628654238,-22.6662934843257,-27.9223674038906,-14.1934755014937,-17.8152408224864,-11.5954066392736,-18.5094902846717,-21.0126597825117,-9.67193297844712,-24.0254022096775,-22.0833510357004,-13.5954523209347,-24.4001672144324,-28.8738711434953,-15.929701574059,-19.7431871805779,-40.488680952624,-18.8806965481696,-36.3760898486771,-19.2651269911492,7.23646475111795,-40.352705857997,-15.8118109069612,-28.2475709404716,-37.9838495748084,-17.3917736456133,-19.3361870801111,-22.696371520243,-5.06603297754288,-24.8829996759774,-17.8904404396728,-8.75257213611603,-4.45366475582001,-2.40852219927133,-16.7101034972086
-8.39759648224494,-8.94152828588531,-14.2432235856395,-8.77556183961715,-7.91803839874514,-17.7685352739914,-12.6451862969567,14.5568344349496,-11.995783737937,17.359727424628,29.8768439265811,34.0015732261313,25.0137557857573,25.619505537962,54.3183539350217,28.8699907173302,46.8430167170505,38.8878312378252,35.0100935065077,20.4451428172595,13.1094012708325,-18.1992533143212,12.9621739024725,11.5509630355192,10.6482284312035,3.77501748729103,3.42371414477355,15.2624750342161,-6.33748823012333,-11.1649674736306,-8.14420862090698,-13.5866270864497,-1.15220614111596,-4.29034805658659,-5.06138487123046,-9.46578524799067,-1.28241978359792,1.54491766810826,-11.5769715769485,-1.7002527430364,-0.314496389891054,-10.4730612961701,-18.0874507719581,-4.92673116111127,-12.1311407131713,-30.5031093043293,-12.5837453774711,-25.3174247534857,-17.4698047020194,4.43671699914496,-32.9645924893128,-16.2543518852938,-22.5207985565298,-28.5440802101456,-19.950098502427,-20.0852251267849,-17.8270291550413,-1.07605603848459,-12.3032671274976,-27.4154826470722,-17.045504799554,-2.34896206285839,-5.55733653090604,-13.1802482894524
-3.47386936325257,-5.89877525978703,4.3714207748591,-10.8148281979918,8.62250667220794,-6.70917563808753,-4.74656072454351,20.1413916026617,1.26515362355176,23.9525596386968,42.4572109528103,34.4166726854345,30.7411234920608,25.8994508552173,46.0208658615133,18.3522366928216,35.7548341693985,30.6691421507394,28.9877043942358,17.7546970953233,6.21800730732087,-21.3385213174582,12.1372418721537,6.73416255920625,2.5642591136349,3.17209534299765,7.83450495163818,11.8172733686621,-3.25800194024592,-3.57772166640467,-6.90215981481003,-6.22850972847598,-1.9608265165481,-4.32318934764476,-12.4065892718124,-7.79634992444699,1.60295489236533,-0.343829659264711,-9.02556341079337,1.22843530515138,0.358510083832145,-6.19984201152002,-14.7864795905793,-8.10489976963039,-9.70696227771988,-29.4608408937371,-12.8153571194644,-17.3917438425109,-12.7681444283175,-1.20255978119599,-31.0628778453356,-13.9246143748693,-14.460718657738,-20.3106297186282,-23.4119670068236,-21.4798597507877,-14.5328656706078,-1.93795091111403,-5.05111283457475,-29.6953944632882,-22.3590598986479,-2.918677320057,-9.43468572426089,-13.4367174310859
-3.79618015802013,-9.33676624506287,13.1542613795713,-19.6172983474287,8.50870849342112,-10.2027010417058,-10.4799039325488,9.07509386377943,2.89950037299979,16.1373701760108,26.8531220320377,10.4968573822702,16.3873143761329,3.10885962594704,7.22882579539932,-11.027662832593,4.09650788204386,-2.40998983299819,-1.26065403395133,-4.33354916990832,-17.8965383539177,-38.8632369817931,-7.36473539458351,-18.5025523983653,-19.7121731671707,-16.1004698837435,-9.16320506174737,-10.6704601277109,-12.58388236006,-11.0967805982678,-25.4837176460372,-20.9547782238258,-20.4981006395541,-20.3790365370272,-33.3298473362519,-23.2652270309285,-19.7182509388218,-22.1700055234901,-23.9786419507018,-20.6028400098252,-15.3674571325052,-23.7774972952043,-31.7163854675384,-25.4514143645941,-24.1557047286144,-42.38183045155,-30.4059889417905,-26.1309303872451,-26.3704473839251,-19.3376075427182,-43.5107467899882,-26.256625367484,-18.3163069156826,-26.7411304405798,-33.3046841133186,-32.3523750797607,-22.2898261886497,-16.3502807412043,-11.4819902521074,-28.1791782875456,-23.6298843991402,-14.2964818900688,-15.8559120368759,-24.3320423850893
7.32300363297718,1.86349168046504,20.4111039502676,-8.02809324566409,16.8574468945282,-11.8159870058656,-7.53676987128921,10.1772290601892,2.80993834995856,16.0810979398141,12.2895653205262,-8.93047860255647,6.14606218917921,-13.3248914519578,-30.2527577178272,-27.0438305365057,-13.8101867499769,-24.3883162754638,-21.3175196302512,-16.9919228898657,-35.3154383550214,-41.5671057924008,-17.6630044794262,-27.3050619629517,-25.6693054657973,-26.6693524570637,-22.6283559775445,-17.0211716497029,-17.4404137074318,-13.6634686706603,-33.3998216637695,-32.1110220561163,-29.185925817069,-25.0119845528555,-36.1940479530268,-30.802492429386,-34.6826300491749,-35.8532640245154,-31.9533007289196,-33.8872572084328,-18.9226445961461,-34.8619252095693,-40.8516134877974,-34.8776165460103,-31.1736515172633,-43.8558468095559,-40.951183567795,-28.3478336013264,-39.6151223640369,-31.4477239928796,-45.1977701838662,-37.2921049223865,-18.0681765433097,-28.9436784208997,-35.7249348940498,-36.8750446274786,-23.2232208902499,-27.5722130328345,-10.0270990212328,-17.7786754606894,-13.7098456760742,-16.9540598480132,-14.5336812548355,-28.1387209241415
19.6638185430468,14.2492994220224,21.6796455411889,5.46343179073609,23.5310593355243,-11.1111988481688,3.18945467968961,15.1329544796304,-1.72161396605476,17.7304099264264,-0.058468287588695,-20.1064996756717,-2.17669919358594,-23.0590865498825,-49.4410769317551,-30.194947766487,-15.4509598766186,-27.1611455744899,-21.8692344183594,-13.7251129726789,-35.2255785240328,-29.639465517172,-14.7905388991165,-17.5906007589867,-18.7348056100413,-19.522244419135,-18.4350252121224,-3.21439220678825,-13.5881689623466,-9.12035406974149,-21.3664323615414,-24.4929000535783,-21.07194382759,-12.9156710592854,-15.8426877960337,-21.3250376235577,-30.4755043057691,-26.2105809759111,-22.468942494891,-25.576143968861,-5.23390586603388,-27.7466311252973,-26.877252840582,-30.9127479178119,-21.4103203522748,-28.370989334032,-30.8314064589099,-15.0247417350707,-31.6510995909233,-26.1535424908886,-32.2386386628606,-31.7438444784772,-6.97758718346057,-18.9597725442278,-26.9501010329605,-33.0740627103359,-14.2036405595967,-28.3569300020327,-0.111727458816724,-6.17569624829549,-3.66810898940661,-10.4319523912471,-6.28856446297094,-21.7266841268886
6.43759898220424,1.73292935522937,2.54003530733089,-12.2522259882238,4.10195803820153,-24.0519828651747,-3.83643110932781,-1.58549665027722,-24.2565804411629,2.84444622682027,-22.5630198695124,-41.0342536488787,-26.1567453471508,-39.8036122202999,-62.0420785097304,-39.5425863392197,-22.7408682415283,-32.576101696583,-26.0378373256221,-12.6950759161529,-33.0562803928921,-25.2066371483807,-15.3246097198642,-11.4529112048189,-22.8349577434666,-10.2783546662088,-12.2887454126004,4.04106792079699,-11.7424970100596,-8.78443667783909,-9.8686965583077,-12.8099140096668,-12.6999174831014,-4.31266114273999,0.384381714230123,-11.3909483225364,-19.6104993145044,-8.82113010771727,-10.8462505515374,-11.9983292870782,3.72391584847286,-20.1479536962632,-6.34765572865431,-20.6616235047626,-10.3955980770952,-12.7641285659916,-14.9273671586638,-5.70629277799447,-15.3617608599171,-13.2180684960386,-26.911525091577,-21.4343550542769,-1.46294238290587,-14.1138023658519,-21.7286217071791,-31.0830408160402,-13.2550397985826,-29.1647707657355,-1.07278726868618,-7.49457837214322,-9.81191703160781,-13.463168339286,-5.40025858860629,-22.1537359566061
-22.6405750250034,-21.3039985153527,-22.4303476095066,-43.1390196917732,-21.8619887492512,-42.7163605098048,-24.7293553575971,-24.360612286463,-53.2979061342071,-19.2318915718704,-39.5184633956305,-58.555078684698,-48.7729579517859,-49.4761401341325,-67.20862832025,-45.1341525876858,-33.7622079997583,-40.3705368830261,-37.1635508063379,-14.4167392554633,-32.9395742735307,-29.9090220472736,-14.5754638708295,-8.1624653649595,-30.5411840845243,-5.27234650950316,-12.5899405437968,0.161009365738778,-15.76856145351,-9.98789831663303,-11.1183721186794,-6.82936671675214,-8.14423306035143,-7.94752465444506,0.36837431490266,-7.62677915494162,-9.36387980129238,2.12462883818799,-6.0553285886123,-4.02676066150458,2.08197062898248,-15.621771072092,6.45585057818564,-3.89699757855974,-3.26239544818764,-4.12246484196466,-0.999575961114302,-6.64135233959228,-5.8717996940779,4.59038063636205,-29.5050234948106,-14.0157102515347,-7.93879900464216,-18.6806449252577,-19.8571068269785,-20.9466019798405,-20.7260016963087,-26.2599724964105,-10.4664288947212,-15.2970377179806,-20.5108567096208,-16.0506037976883,-15.6476395168463,-25.4817694440453
-24.871197215804,-17.9469210183605,-17.3713527448313,-42.6222398789305,-14.6760847821284,-37.5562950298683,-21.8524474510596,-17.7595127838349,-50.8650667025996,-20.4430797059429,-27.1149120688391,-41.370437955008,-36.4124308052992,-30.7300936109211,-45.8192221510728,-24.2080438542456,-24.0923081002662,-27.9863714122246,-27.4027832887203,2.78952968274453,-17.2905873036492,-22.3419297787447,5.39869500582782,6.82933574999277,-13.2374440346348,7.32098195639437,-3.38779074588598,7.34490346381177,-12.287891721716,2.41157966321943,-9.42461785146183,4.73640064431651,6.86202271439048,-5.46005641908943,4.30659362945031,5.21863672926958,5.7432006603869,15.0639540593367,5.34669647160807,6.9459200256906,10.3401501466897,3.01930957441002,18.8526984661335,22.2524807358405,11.0076897074901,6.11773791559971,23.998307445969,-0.410313245751077,9.50476288083174,39.1660847802612,-16.0320755573959,9.08950827626681,-4.64975755808398,-9.38220611817321,4.61069857354419,16.6147361402459,-10.4101860811632,0.952943071712278,-4.86537758034676,-4.88454308757196,-5.73763429958346,12.5908915594164,-13.6482735353794,-5.6065205074695
5.13569080740113,10.8657095500559,14.8593288523943,-13.7310934733052,16.2004259539627,-8.2675046046119,7.63936252547527,7.14519333133583,-14.582416848719,0.363272761755976,1.64513200949859,-0.673815143962113,-2.72429997509254,0.194519150282397,-9.02176808873624,8.39979935897868,-1.09010847571478,-0.875458764304633,3.19484140148871,31.915880700888,7.01898207164707,-0.392013280438787,31.2128793198503,24.6511373658232,20.0219136236904,25.4592979402596,18.4162715700613,27.322831655694,3.78275672036133,24.7635972231696,5.42437038868671,21.9989406443703,28.2810314103681,12.3973442261216,21.2956201020715,27.1601550923729,20.9972740902187,29.1525030344101,23.4612767007425,22.8942620989323,28.8545418254715,28.6993411893466,31.6153305699833,41.8033183398974,27.6828981465008,14.3879856659778,50.928423210705,12.5338277190599,31.7150505794532,75.4850712485309,9.55702421020141,45.9886711518888,15.8024438199242,19.9318614356152,47.7308542415314,63.6339914162154,18.8947426303215,42.0729878140498,16.5211245784995,23.5001568505788,30.5997251632229,60.5459466175135,11.6086608884644,30.603261095796
23.42191832534,27.1077839322631,30.845342351258,-0.738593429187325,26.0636991789477,9.19047829300737,20.253960898426,10.3012385495862,5.96694180651197,11.6991806670248,13.1031011372617,15.7299201542678,7.92023652731386,7.79331501126526,2.14495124100356,15.1595687234158,-0.856098670784777,8.70155676601231,13.0131378893886,33.4924427587605,7.08476028337012,7.6235900933862,28.7211006602174,22.2464211865618,24.9957550246081,25.6704057980544,26.5962165490566,32.9433061519443,11.091228273336,28.6320924913044,12.3367506661028,23.017592268181,27.9338602116499,20.5047791453994,27.3464554243174,29.0558999453384,19.8196224697046,21.755224917025,22.719054419768,24.2934590535761,27.2447188757484,29.835085346162,25.8367687390695,30.3451034965425,26.3462181661554,1.76492034878238,41.3571317429011,6.69224569621132,26.9889220183984,69.8322237149514,10.5858084271092,51.7435569859859,20.8176035476345,33.540206801232,57.4600941570646,71.2749405585098,25.9852021581858,51.2091857512682,23.4175278851326,33.2587976356776,48.5562066325731,73.4828439840944,27.832362151525,40.852824690886
16.0909523451952,20.9163487830794,19.9512909342722,-10.6998961774109,12.3493433847977,4.37611530349304,6.51655150131695,-0.773237101728219,-7.00530133074732,4.17668704799356,7.2224596834601,0.237759168117364,-2.80611917906146,-2.85741481222249,-13.2560436327329,0.55176409497043,-17.4171178676742,1.01782288156074,-4.81063302588487,7.54020796592843,-9.99317469545265,-4.29767580748398,4.89448621336168,7.07000667269056,-1.07835510699234,9.03763972639796,13.2291716390089,19.2037055628369,-0.62828705933835,11.6174129962817,2.49997431020645,6.97458271406428,7.18818240885495,5.42105411887484,14.1068462964882,7.38694482435001,6.14908933050373,-0.509975445244905,4.2874559235223,7.49121042591832,3.7104582314248,7.83535753498567,3.98067298729262,1.3808502173796,10.1351500509768,-25.0438742482536,-1.27208556588141,-18.8481969011844,-9.77898398767799,23.7731700071719,-16.5714490141306,13.7999360788087,-1.78826394410015,12.952482244406,21.2509559739341,34.9166159577038,-0.487545065364341,20.6420361070616,5.19634202608584,12.8866096795086,37.3194075848857,41.575324105971,14.3898760425552,18.7167053757331
11.4443950157643,16.0033497925871,10.9382498344769,-13.0572545675723,8.05512481500196,2.91534130528157,-0.920739655928921,7.43988384586748,-17.9260924436037,-1.75696194566596,7.93645736325477,-9.43948787293288,-2.83141604304353,0.359246328952182,-21.3216642167948,-3.7087983275899,-15.5062843750084,0.887462758296738,-10.6887988239922,-4.58565328121241,-7.50394199481958,-11.5573388868107,-3.35117938976651,3.81466556900109,-15.8677605573716,2.26817906944759,3.67039144883469,10.3189597355843,-11.5365951913713,4.44150903953278,-0.890733156794204,0.266943296064581,-1.62508420284386,-9.45704209122224,5.53155392693531,-5.58208044503321,0.952995836192797,-2.52827015809875,-3.0013655940515,-3.92341688022999,-9.92476900272778,-4.21419090157094,-4.82963124650849,-5.39520516666911,2.23640633276112,-35.765609923131,-25.5567384536939,-35.3544040734338,-35.569010322978,-9.46809862425502,-35.2014066050564,-19.5788914519046,-20.1584674480825,-11.0150431370297,-7.902398625206,1.9547214824645,-23.451754862735,-7.10142756389467,-14.4693738742328,-5.14748379919744,23.0353413879576,12.7100589618873,-6.41025232142464,0.412746260283731
11.6926645662141,13.4763988440046,9.77293515607724,-7.78500561204477,14.7290912627309,9.68326351570903,1.7516167414366,23.5443564946264,-14.7064881943835,-4.09765551823377,13.6871670284745,-6.2187176168523,4.54012904943071,14.3515183965676,-21.7307932527551,-0.939433541821306,1.07074248995397,2.88393454726083,3.6036282325217,5.78763937250372,8.09537287923611,-9.5655612986168,5.33187121656475,8.02657086881212,-8.69131257004554,6.3461251953549,6.2773407851996,11.8244347626881,-7.99734443156107,11.634971680688,7.61199383773492,9.2496337182006,5.02792852722431,-9.65513718914726,11.0618286321211,-1.27968754115268,6.34466061034855,15.7925187549156,2.04708048176388,-0.3330663813648,-5.26289355887041,3.21090644174959,6.82820416369477,13.1963697425009,8.55985431343835,-20.1573708855172,-12.4334372003869,-31.513404494249,-28.2731076166557,-5.52534349623344,-30.7196774868192,-19.2755513819781,-19.9178085298519,-15.3719175713797,-3.69678759200979,-4.77772584900101,-27.9309060843802,-11.6469879288054,-21.1800848763393,-3.7906168421262,16.2479273760215,7.24876556337969,-17.4498086725401,0.363983834687006
-6.66473439023046,-6.51195305902093,-2.19542978762071,-21.8455656909056,4.71064907076228,3.93876628027117,-7.6696928473196,15.5702355430296,-21.1886835352719,-18.9563463125325,5.121702860356,-15.5458220669386,-4.44895212150338,9.90571175006576,-33.4249137219483,-13.1597338034948,6.48399123074986,-9.89211531126083,4.90226881969081,10.7632718491833,2.24899444712005,-14.3708891998363,2.53319678479682,-0.269632045076459,-7.00028191682657,-0.203896919804374,2.0102100067239,6.34690975368593,-3.65403485696005,9.35401486991157,5.4506915661211,12.3918949885679,3.18986609739805,-9.03317758810072,13.7359689873243,-0.953495454250181,5.97974489999371,20.2137594734784,-0.0936321088042508,2.59459711311928,-0.0796009474755459,9.15721527421861,16.6279737655942,23.1552867624752,12.3523702045593,4.58863724495596,6.37311226843293,-22.3493476839007,-13.6635210987206,6.90136235923367,-21.1298274161859,-9.96195339823338,-20.8478628635058,-15.1215426304417,2.27440618871774,-7.84289350327256,-32.9971679163822,-10.8452216533134,-23.9495931981572,-1.86732739616946,6.54805833658938,0.814773371894244,-26.7559134755768,-0.155692668906513
-36.8094394309843,-35.9990696520301,-20.9789830078437,-50.7072877516657,-24.430787975433,-11.6871501425028,-25.7883225875501,-10.588685608094,-37.2400675750729,-44.369882647597,-17.3487794067365,-30.9472520120992,-26.1619662428453,-15.1054160240078,-43.7204480658714,-32.467932235125,3.19983250579645,-25.5373069652383,-16.0436850933276,3.84459432389389,-22.8256498039019,-25.0616578453975,-16.6936420384889,-19.4190806651324,-19.5837309367406,-18.109350577312,-11.8004798977856,-8.9000607927272,-14.2042043133492,-5.97029521678916,-11.959035663394,-2.52171699275073,-13.6575735865252,-16.267662653039,2.28452384409323,-12.3784838146784,-7.65144032641195,-1.69930940803611,-11.396039954184,-7.38811265557799,-4.41547280639334,-2.25372400789092,8.64295484130702,6.46127357644461,-1.65290038173029,14.4839766388082,1.16250778105785,-20.322113499405,-22.0113251298887,-4.50675261092922,-20.7986145596694,-18.3995807813094,-30.7274172439009,-24.72000305841,-14.1346944831624,-26.657295913262,-44.7617853330407,-19.5661301704791,-27.9840397165002,-14.5375734935707,-9.98390752766806,-17.9443423038094,-36.2878733680245,-12.8292150206566
-44.5958246168502,-42.3936904101126,-20.7616113062174,-58.7514597017016,-42.458493885303,-9.55826096487202,-31.3515658224026,-22.2001534789628,-34.7374908766947,-59.5151947042271,-35.6057062251755,-23.267646064519,-34.9883484566657,-33.9248963620996,-29.7157248535715,-35.5886037218098,12.1605013258429,-24.4855687399284,-30.3238633937028,5.76829145048123,-35.190083966433,-26.138600020476,-29.3308437614362,-31.0713817633537,-27.9673149093181,-28.5929968750446,-15.7716207501622,-20.1839154163626,-30.8491966494342,-19.427028966996,-25.6601209791526,-23.8383249582466,-32.7839791050299,-21.4450093430482,-15.3277357496449,-25.9740341397401,-25.8797558395848,-30.4143517661687,-22.0644889224486,-24.1105047685899,-18.5501532243441,-25.5958904052695,-11.1836281134084,-23.460217054818,-27.5783166653017,0.0348009477437528,-26.8232146024255,-26.3113815406441,-52.7874621432956,-41.3030445315441,-29.2543950961166,-46.7989927262882,-34.7676514396128,-37.1604562148079,-42.9265819467241,-58.4787712896715,-50.8359919754646,-42.5524465095199,-27.6874494236193,-33.3235722665776,-30.8824590273571,-42.3321318327779,-36.0866794127031,-31.1899552893917
-22.7127368642067,-20.2310389656776,-0.510360806544341,-37.7377668031124,-33.358031759036,13.5650019262991,-21.1002383200366,-7.22200794919921,-10.47354896976,-52.7346054894661,-38.2278035364655,2.58559323111119,-22.2753194116002,-29.9931567132413,-0.422094076485438,-23.3928409870058,35.7821781316494,-9.80805456514737,-22.5285640785996,20.2886765169062,-25.4545394658606,-12.4038460524075,-23.4055303222645,-27.0525208190127,-22.2600571207586,-25.3522897773479,-5.95395738590608,-24.3234652893422,-36.8023750162014,-27.6869006443574,-29.0282837404376,-35.9348064867087,-44.2491980979162,-18.7483365041349,-25.9679207158759,-36.513499139194,-37.5301607444403,-50.2513807682114,-28.3415859396267,-35.2939550446245,-39.0003252974177,-47.8804798253167,-30.8572572479745,-49.2252884042753,-48.5117537220106,-25.8578570340149,-60.0629509045585,-40.5161177590222,-83.6573357917979,-83.8840672299079,-41.4537292034577,-88.4568194785098,-30.3746210175487,-46.0575398316433,-72.6852655073396,-98.0325927803727,-47.9649726977236,-81.0360251475502,-23.7672052696746,-46.7581691369144,-57.1319082610744,-75.4896715001432,-29.0640225375609,-50.5551586077161
-4.911402309954,-1.72407118412371,9.27500785961188,-20.2378268165309,-16.7449405559649,29.5721357910743,-8.98177823206258,12.158787004447,8.35515580113658,-35.5829511798105,-27.8980312585097,17.1819271843876,-6.39717717559229,-13.421347842646,17.3586766615193,-14.4182517688115,51.6650680276887,1.65017341292456,-10.5204329371866,26.847966889761,-14.217741095854,7.46840761986788,-12.850778913827,-18.00104635532,-13.6645196308438,-19.0030978674369,1.01564301552736,-27.3361235905383,-34.3103862585047,-35.3113219111606,-31.0919677565874,-36.7337157783508,-47.2608825813939,-15.829651599936,-27.1235133942066,-44.7403002624769,-42.0977336264353,-60.719416206728,-33.0365364848437,-39.2391959937668,-54.8646595712815,-61.1653482715524,-45.7801196655746,-64.6225850951972,-59.053887606958,-46.5614192125115,-81.6316427543611,-60.4791178499738,-95.5373458070963,-107.14058895736,-51.6279666133278,-122.089198979844,-34.5492753599428,-53.0455159215242,-95.1796720952486,-128.738442465565,-46.1033240734032,-112.457120709267,-23.8144187248233,-54.4352482923457,-81.7918932125029,-105.293403152605,-29.0048871786442,-66.108601591688
-14.8761847624108,-7.67947091614645,-3.10054591180844,-26.6804252009366,-15.7291299573653,26.3740526993506,-5.7103145610421,13.1119857331604,11.3455908456761,-22.9737942844033,-13.1796584815178,15.5089800481655,-1.03079646304196,1.10773407679507,16.7910071918822,-11.8041722026877,40.8620395966139,3.06977693324716,-5.40878778213015,15.8073921630716,-15.1893333978871,21.3620460996064,-11.0767131805247,-14.8177364255328,-13.0808505741344,-15.6796504998749,-1.70997886145623,-26.3916342633551,-31.501009229233,-37.9977624794075,-31.704981654873,-32.3691441248295,-44.620571204245,-15.6885477839941,-25.4434813075994,-48.938381052571,-45.4332429144479,-60.2416147274859,-38.3697512369925,-40.895775896637,-56.0599637671126,-60.9882050964084,-53.3116088640496,-66.6877380427242,-60.1300137363337,-57.2013044067461,-78.6603842457825,-73.069240010156,-83.3579788615318,-93.4513072749463,-53.5408540785921,-115.891952730871,-49.2058001590057,-53.7591388580505,-91.7190226620468,-117.488286732684,-49.7445189972029,-101.675831847528,-29.7252220401458,-57.0535618435722,-85.406585916612,-96.546285413176,-37.3004819996648,-62.3367992004131
-30.6695084908231,-20.9827540232546,-11.2958602582253,-39.1940289321072,-25.7498153186771,22.5971763369368,-7.84694356967326,3.66117006941146,14.9039407827684,-11.1268548566427,1.31474105177152,17.2289401433821,3.80138285963484,15.6333079063654,13.725177362189,-0.85118316869588,15.4795073954235,4.76408789736803,5.0821135666973,3.23806006972005,-18.7054503330808,26.9900436802441,-11.9028966541308,-11.8569846764369,-14.2915767986851,-10.9620548434226,-4.27039071598912,-15.5509620619695,-23.5921137177464,-28.1917355586721,-22.4566432920016,-25.0833968256513,-36.2589788399782,-10.5584506631172,-23.2012278791153,-44.2507049535236,-43.339041935196,-47.3901778619653,-39.6674076290023,-36.259335179326,-44.6494303163928,-48.5181129862884,-50.3198861119917,-54.8749508803133,-48.9231565396098,-58.6422008437648,-56.1465168186467,-68.1501997086471,-59.2760796982592,-56.8697934430419,-49.0644507838363,-75.1846377783318,-53.1104027646979,-45.9534919386508,-61.5971211384341,-69.0387632848616,-53.8026937521821,-60.0958003673919,-36.563356222046,-55.1533064302596,-65.0706249131917,-54.6897185138988,-44.698205459659,-40.2667155364211
-23.9453851926376,-17.9376491791816,3.22672969319222,-33.2458556362956,-25.0898986861548,31.3662536391298,-3.30228606220752,4.76183697156053,26.8669734388226,7.2470181721301,17.3566267731245,27.857499323642,16.3106846013975,35.8127742311732,19.2450855422111,22.2896016052798,3.93035733930061,15.2537971275764,22.668603343464,6.38948037000017,-13.6553632638125,33.4331637019068,-5.29493382697595,-0.183688806163486,-6.37650600416597,-2.79161272114548,1.08002010272306,-0.607149158011209,-8.11676879068069,-9.91081085001873,-6.77666791417123,-13.722642447002,-22.1033758036588,1.72302403173747,-15.6838435239595,-31.5220019654843,-27.0779437486895,-29.7921673258853,-31.6620059772801,-20.0023313952151,-29.0180142895369,-31.8642849159539,-41.1703255946465,-37.1824726996296,-30.0650122343383,-51.6022329227287,-38.06491346209,-51.9289481839982,-40.5297726264606,-31.0099735165048,-43.3802895753083,-41.6244584802989,-36.0423903104373,-35.3017604926082,-33.426554802573,-31.7730620763036,-50.9382475335847,-34.8534777932362,-35.5383219284666,-50.8205165960481,-41.0437336070393,-25.2275496281942,-43.7523104912991,-23.5624208548758
-2.63364810331218,2.50996022992712,23.3841980689573,-7.43975214154717,-6.03132398625436,42.3785981881921,11.0891468467132,18.1004656624468,35.887496515463,24.1502716524537,36.3645008702176,34.1642600296,25.3655887219423,53.6301632693834,27.0610082187606,40.225594956856,8.59291681139057,25.39334362773,31.2254264538813,17.0926578123346,-4.10911331549536,41.7231554773668,5.8711954637333,15.4441941682013,7.21379729152454,6.9150709405324,12.2464942137197,8.02466861809629,5.96449355450379,5.81383830286704,4.7541641836971,1.43440633188651,-6.54321963770421,14.5881087578608,-1.90285033459056,-18.2869219632045,-2.81268585786505,-13.7021329105823,-17.3149783032447,-0.286921644336715,-10.8727522567342,-13.8168222211058,-29.061254946515,-19.1418781329839,-11.581887816137,-31.591507479599,-27.8809427785308,-28.0310865573908,-24.2524187532625,-16.8316418272675,-26.9512697542107,-26.4417505233864,-9.07159976620208,-15.1875270694438,-18.1614564406344,-18.0081694642574,-33.622815158576,-27.1458584380157,-16.5807222968225,-35.2044178222944,-19.6085702643292,-12.9711156063765,-29.4907024148691,-12.7257948520774
10.4753455988149,26.4259022439078,30.8600611788431,19.0343628573982,15.8472193549949,43.3571108746289,25.33498956968,29.5984065095276,34.0243229496129,29.7126971331784,51.213087484608,31.4930273021205,23.5913342056979,60.0136491015843,28.9260711470877,40.3939789659025,6.86368334874496,23.1690201375653,28.0241532133359,13.8903882772017,-0.180906804267176,41.0419236566869,11.3350433110667,24.9537249070199,15.1586229158575,17.125743107964,23.0421015247877,11.6815911283423,13.7737087142396,15.2969606109743,12.4138098256745,17.6965456807928,8.12083561886476,23.9606968145057,13.359643449599,-5.00664857450514,15.6837150162688,3.97179833218859,-1.42578739919423,14.5098660168935,11.8288944180489,8.5257150165274,-7.15423737227153,2.32599907449595,7.70268894800218,7.01164023075156,-1.59250726800115,9.50494013995472,3.08861315195676,10.2784124306312,10.9034304247724,-3.35253607698802,17.0430066126636,21.1791511018944,2.63381421135166,2.39310513888099,-3.14090021761877,-2.88161921207842,17.087958071872,-0.302203940863949,9.89688179673114,12.0184965636264,-5.3275337816744,10.2106900088365
11.256394078859,40.4879750321139,34.1348697711348,29.8825262747189,23.4994546044708,36.807348387629,30.9741457668114,30.7977397244127,25.8913481602528,26.2266060876453,52.2289168263042,22.1074919351074,18.2807532234287,57.9252994704466,24.976922328931,32.9479275536959,-7.98055107844443,12.0298073680442,24.1472314783819,-4.05316615360069,-3.81001200952772,30.3991292661774,7.37141936277299,27.4336494161103,14.7234308396909,24.4638632546898,28.0939354995817,17.8355710334188,18.1555527857828,20.6602834795443,22.8669169048891,30.3038997331808,24.244084907289,28.5308659165193,27.4000172714808,12.4198078518739,26.8757163475539,24.9720487834106,14.9784002175561,27.8516400455978,33.218275703558,29.5424660979243,22.7202047691003,24.022383305649,28.4757591999057,50.9012833285152,44.0150742053423,51.735415138888,37.0780750853672,47.5497193042551,55.4377932703404,33.6770744315504,39.6384189470263,54.6369732752071,34.5752459233134,34.2440285176253,28.4976425041876,31.9743958913771,44.7815381081014,35.9787091213359,42.7633576954794,46.5759011365437,16.4823969714593,36.1761093288809
8.36030481015558,40.1459814105481,42.2391310448476,28.6434593286482,22.3670206487891,30.3635921438839,28.3645463448383,28.3579422918366,17.8242480573293,23.3305150146438,44.9712777457329,2.8648934624794,13.1575904573999,53.3481428678952,16.4823763613443,30.242657355789,-22.4908791629592,2.62654822582739,19.5388371791192,-18.6136102061328,-6.91816009418409,20.2976725216169,0.651954350297314,28.5618157228104,9.89796843808135,24.5551256530165,24.361317265039,23.6721159981547,21.4884209721859,23.2733215066439,34.3131951399771,35.9389789995972,41.2726894313652,27.3948268254278,37.8357930565548,28.1699065638419,38.3796469448084,43.0089256887875,28.5003744681102,41.8770261379597,44.6448675576215,41.3615641886118,44.8316590882541,39.012596682428,45.4690735543869,76.5729163817926,82.291823417163,79.3084504245717,63.042205381422,74.6154748830169,81.1607002395153,62.8143372594421,56.2312154847019,67.9071180905096,61.3394690339519,56.9820571535323,51.845294738824,47.9957724670794,52.0265840026,51.8250528892066,63.5893525742584,65.6857948339586,29.8510145021374,46.2196154175029
5.67775670364407,34.2521527007786,43.0535653621506,25.718474474137,28.221296426389,25.8817277435056,22.8978861025219,32.5069727756843,12.6181733810733,28.3976107604509,44.6048997128715,-19.7313856638405,5.93072439672789,48.4008545963849,4.94788437423269,28.6124569430192,-29.0420972093596,-1.69016732258841,8.36617719537028,-23.3011065645063,-4.99810468597662,13.7579832420551,-2.19667388640013,29.4290418553495,3.39168194716968,17.6676134247183,14.4831598544233,22.0490727080374,24.7078412834033,25.6745088479749,36.1842070656641,35.8644798724649,53.0083326872122,24.9057579316527,40.3113298290927,34.3281141013897,49.7286357693926,51.8779970027116,34.1765722995112,49.347998066316,46.0411435003719,46.665129909645,51.855259530952,48.1816529421818,54.7943665831274,80.7287800696463,94.1386568431771,87.1561866202049,74.383555209697,86.2222792913789,82.2758922752444,71.9156976125836,62.1159204566134,69.9273312310103,70.5620940391394,64.2538433990557,62.1020396492542,45.5715324280642,44.2268508794928,52.3649755225782,71.5802210356005,66.3468684511452,36.5365552376855,44.8377153477699
-1.00351852784107,31.0478735055919,28.3340176647639,21.483382296353,35.4825109320322,24.8115185808288,18.4928169323704,35.7686467818641,9.16014889126113,36.0300072991152,47.4624083244662,-29.3067944321695,-1.91593208229386,40.7007266620725,-2.4443070145295,21.6826355605077,-30.8065977870663,-3.21061154072678,-3.5601301170185,-26.7387543293402,-3.91052241165194,7.39159925816695,-1.56499129661851,26.4753979794637,-2.31674206334535,10.758886000873,8.36444446819791,17.111796160551,26.2204627666441,29.0853002217218,25.9233663760966,34.2287280562514,53.1121932260076,28.6623884449118,37.5521106311345,33.7531843052128,52.3786922915849,51.6684807573783,33.5617755335165,44.80891766029,41.9093523131315,47.9896670294073,50.3975292862103,51.2850745327514,56.025512641198,75.3003947168969,82.5330346124028,80.9354365167823,70.5769425521865,82.8069800842678,71.2436754525018,65.2343613739479,57.1334713509636,69.8843702731475,64.3621805964656,62.2115407080056,57.480215871481,38.868512069907,33.7972659237617,51.4138788139188,73.0558208232002,58.1868009422384,37.3511582293543,43.3899326937598
-17.0874280180298,22.022406319018,11.1763976080872,14.7888353382807,27.0520051978237,27.7350690728055,11.4206183492303,20.5651618226047,1.29013388658527,28.8277125010088,31.5566607689713,-25.754828228552,-10.5958318447666,21.5658010856422,-0.95487616562275,10.3574746070682,-33.1227119918381,-5.30708346988388,-10.1547456125491,-33.9466180115331,-7.63282272343402,3.42853863916936,-1.25219450976964,17.7162893776843,-5.26177400366047,9.10176415415305,10.6243934974598,16.4495759004013,21.0400568724915,28.0549749541812,15.8112875247062,32.0618739293281,41.5755859124341,36.2405395230205,35.0226754159538,31.3664415137512,42.6810473974472,43.4462840166928,30.1740953620842,33.3461150556039,32.1289111045328,40.3975342053133,45.7785724171663,45.6164421813702,47.7123916189219,67.4337467118468,61.6563385207452,68.3353749585743,57.8540913372752,68.8739330954502,61.1966167419969,50.2354076353871,49.7400145712527,64.9695628414086,54.4661343715731,57.4307032007716,46.4950875509346,31.486981893091,28.6227145329919,51.2455999144138,67.6539563690723,48.5202177504153,35.6537598187654,43.5862755963835
-35.0853663798749,3.85670455660623,5.37459517372853,10.7962162528011,8.88804770977463,27.9311933194782,-0.990143148350365,-8.76136083425302,-11.1697349110768,1.50874594380228,-5.90297136995197,-23.3366622938165,-25.5232028395922,-10.8362316765581,3.99600522912909,-3.5871708052979,-36.6622513464708,-10.0538672157615,-16.9380046253906,-41.6967743727697,-12.9401671795942,4.43574891669381,-3.17004868819393,4.23272441786771,-6.67402459812555,4.49359270282734,11.421796592575,14.6741384084591,7.04347835593788,17.5633260404153,11.9294889622948,23.4512541313712,22.772984747532,33.7083852935095,27.3249302356901,24.813500243729,23.9539730739869,26.0946525835007,21.5525298230566,22.5072936758834,13.4756347693785,23.3425634911757,33.3137602941415,33.1922386829456,26.0270544615707,59.1796225923729,43.0820512104357,59.4333050317547,48.3107355914596,57.791854552951,57.6109626415283,39.0706037063356,48.8379486066561,58.4957978726385,52.839232514913,56.8633288029358,42.2130983057994,29.0364901040506,31.3357351934586,52.7697488018125,61.8635033141021,48.5558867686496,38.3284176069682,46.7775773257887
-37.9729170828786,-4.83862548061012,7.76364318361573,11.4920041949037,2.32184837317414,22.6342131869995,-10.5682441147045,-29.3515749510385,-16.9089139981542,-25.3727666743835,-34.9040892895073,-25.758470531365,-43.0209935752748,-37.9437712053901,5.39409756474205,-15.2712758694873,-37.3516689300292,-14.6040311070357,-26.726077015918,-45.5289381949991,-16.8531707387552,6.14882656653485,-5.84040537035959,-8.60327597950542,-8.19120859857671,-10.5703618752062,3.22262420159948,3.0223171013411,-10.1495414452532,3.40920587432511,6.33797224434317,6.75105893919077,1.98884438459498,18.5923694348267,11.0797779760018,11.8791847056426,3.96019292056644,4.37588780783082,6.87187837656676,12.2089653418352,-9.74798237089322,4.72520519491175,9.26352812546828,16.4739960241911,-2.71302160907084,50.2996880168112,28.7700543932997,57.9911757912079,42.7639426684055,51.4184917333333,56.882561847491,42.2105292691542,53.8026185678434,57.1555383938596,59.5710879264395,62.0233291561157,44.120075194465,37.7341184329937,37.7890600021904,57.7192867162091,66.6892286833985,59.8080518368279,44.4278279917167,54.4968814391898
-26.8544369616085,3.3239680102585,7.90166038098076,12.1152084596113,10.7816218051369,18.5962304870999,-9.35637055462636,-33.1676263233782,-11.4868614781353,-30.9384765302022,-32.3079303811571,-25.0742992906154,-45.3016151269077,-38.8374327546016,1.49901802825132,-15.9239647047034,-33.8334037962744,-16.2129314108639,-31.1044953171552,-44.2598518547465,-17.8594661461726,5.27249891903192,-7.05300151933496,-12.7101721723703,-11.6487255476042,-24.040104311859,-6.61769513381882,-10.8480041906869,-20.3459891920322,-3.36768681469563,-2.46669098329171,-5.7073998766042,-11.3474443888937,8.11995674459303,-1.37690789199016,-2.02851262159218,-7.70853613760979,-9.95097126974953,-5.29769158983735,1.62712424097805,-23.5228036823834,-6.36269216280764,-13.4785828397849,-1.85737013043653,-20.9517195777691,38.7932640904023,15.7819005809741,53.6190708988434,27.9911707771298,38.5637868042455,51.6798989912708,47.0374688969981,55.0856675822178,54.3291498262787,61.7909668128972,63.7388372983212,40.5893622916963,46.6376970348977,37.8788982696731,58.2882480008703,73.2983792706967,63.4499617198581,43.1887401740551,57.8517762815755
-21.0831086266959,9.94440258255696,3.76545940033579,8.52097824165721,19.5251057394348,16.3129623384132,-1.77525564731308,-31.6752555482731,-3.6598834255402,-20.443969185556,-12.8794376504968,-21.3927104311914,-26.9842716544525,-19.9972395617502,-5.41745578724014,-8.32156046393764,-30.4075744558296,-18.1459329163737,-24.8317153375802,-39.7077414149531,-14.9159562483737,4.09462217254536,-4.99240593225919,-6.84071080937488,-19.0711319611444,-22.1907903846939,-10.171269956752,-13.3520410416329,-19.5879152881028,-2.23728525666989,-6.43028266584488,-4.46299503317124,-13.274702743078,10.8861971408167,-2.74326496787058,-8.6591065240419,-8.22342498742435,-12.7269532260634,-7.61716060060418,-3.22583485398782,-20.3678133885926,-7.41960182908768,-17.5460048903914,-16.3733349753731,-23.3007689314401,24.1771226870157,1.01398235892936,35.2352709945514,2.35834806139718,18.219186882171,39.4942226720851,32.6065637173378,44.275776926451,40.9086545476285,50.3915211428695,51.4681038799454,29.4231964074386,37.3192929789224,27.6194857084935,43.0127343826468,65.8354901735181,47.0969275863607,30.0168395921874,45.2578523743426
