-6.37968653689785,-6.88716160233291,-5.50972928186633,-4.6397720268348,-5.7997150335435,-4.34978627515762,-5.50972928186633,-5.43723284394703,-5.72721859562421,-5.94470790938209,-6.66967228857503,-5.94470790938209,-4.78476490267339,-7.0321544781715,-6.74216872649432,-6.74216872649432,-7.0321544781715,-6.59717585065573,-5.87221147146279,-7.90211173320302,-4.71226846475409,-4.85726134059268,-5.65472215770491,-6.52467941273644,-2.17489313757881,-5.36473640602774,-4.92975777851198,-6.30719009897856,-4.71226846475409,-3.18984326844893,-3.98730408556116,-5.43723284394703,-6.88716160233291,-4.71226846475409,-4.6397720268348,-7.39463666776796,-7.24964379192938,-7.10465091609079,-6.59717585065573,-6.59717585065573,-7.17714735401008,-7.10465091609079,-4.78476490267339,-5.72721859562421,-7.61212598152584,-7.61212598152584,-6.23469366105926,-7.17714735401008,-6.08970078522068,-7.17714735401008,-8.1196010469609,-7.32214022984867,-7.0321544781715,-5.65472215770491,-3.69731833388398,-6.9596580402522,-4.92975777851198,-6.01720434730138,-7.61212598152584,-6.52467941273644,-7.75711885736443,-7.97460817112231,-5.07475065435056,-7.97460817112231
-25.8491843662875,-28.8371134782277,-21.4312712856061,-17.5208332703598,-23.7497007548917,-17.1598076248951,-21.9387463510412,-21.0147809036031,-23.5506996866466,-24.6551779568169,-27.3701530184609,-24.0752064534626,-18.3538140343657,-28.5826476734443,-28.076629152141,-28.2216220279796,-29.0901227388793,-27.3161448260544,-24.1661911368947,-33.3630429437221,-18.2998058419592,-19.4952687955616,-22.7717271150471,-26.3921793786163,-5.60754985775652,-21.3957513387124,-19.9117591775646,-25.287701108446,-18.009820090282,-11.2209258920404,-14.4973842115259,-21.5222559690382,-28.1121490990348,-18.8072809073943,-17.8833154599562,-30.3026173938627,-29.3246437540181,-28.4916629900122,-26.228698257265,-26.5186840089421,-28.8356569340959,-28.4191665520929,-17.0488781518184,-23.2607139349694,-31.0446134744366,-30.6821312848401,-24.7987142885237,-29.850607064966,-23.8207406486791,-29.3431319995309,-33.7425568346996,-30.4660985152141,-28.6551441113636,-22.3367484875314,-13.2664013110297,-28.5286394810377,-19.0418019225331,-24.9991719009006,-33.0745137361768,-27.1171437578093,-32.5300621797162,-33.4170511361287,-21.1797185690863,-34.0695190774023
-36.6358739432542,-44.2232850610352,-27.9958456773011,-20.4588391373864,-34.3816427148268,-23.3608785901203,-30.4762997238061,-26.4121701939553,-34.6999063187637,-36.8780374947316,-39.8177090992136,-34.1985823799815,-22.1762613456919,-40.8532945460048,-41.6899137901047,-43.2478589333035,-43.7687272200255,-41.2589392188336,-35.6753324464952,-51.3582854082147,-23.9074772169892,-26.5474083286008,-32.4112112458695,-37.8472776302566,2.64080172612891,-29.6273782264003,-27.6961051844309,-34.0017283821446,-21.444054871865,-9.79910065814468,-14.6479534445433,-28.3126527371061,-40.5658563064404,-24.7205131913505,-22.3238017336435,-43.4268803463501,-40.3690023086035,-39.0865587278139,-34.7215977371118,-35.8800841996886,-39.3837865741251,-38.9600540974881,-15.4043988488312,-31.8015053461237,-44.175027553577,-43.2525186502709,-33.2340019614239,-45.2871483600861,-30.0311310478387,-42.2267228102266,-50.4589593329425,-46.3350709257369,-42.4297279347164,-29.7672760780131,-13.2770726924342,-41.134581658916,-24.8006173000546,-37.46525109272,-54.7493116808711,-40.9972313194162,-51.0907919582953,-51.8019626744965,-32.9274198156243,-54.2454402299761
-16.0413324918192,-26.9865148768015,-8.55183167556398,1.23655426203688,-16.7719700521691,-9.58791777549403,-13.2238101193241,-4.47795290620489,-17.8626950265864,-18.8786150237199,-19.1041440848347,-14.8148859355735,-0.466303022521964,-18.1952618738789,-20.2944716469724,-25.6693226098724,-24.9312039821405,-24.3032171747631,-18.67241222808,-29.8162936336776,-7.62132339213967,-7.96884021628484,-15.161188419022,-17.4933624516891,23.5761201683958,-11.7518353698096,-9.68876956946446,-8.27559598895299,1.04738316777794,10.5251851743332,8.29374506460632,-5.96300116978046,-18.3424825546035,-3.14900167734704,-2.38750161607236,-18.1389047748683,-12.4556605492564,-12.9617598050382,-7.79918526063907,-9.3335471340993,-11.541525075805,-12.9715494117854,15.6828543727908,-7.05752836424741,-17.667228996315,-19.9650231496799,-8.6834280994291,-27.3873034981533,-3.6896283061161,-18.5859411812568,-28.854940508925,-28.5410146437303,-26.0078048417564,-10.3358840368082,5.56630628070046,-19.1953677410153,-10.447507266848,-20.8642563325612,-42.4234422227998,-24.164415792817,-35.7182796099865,-33.778552403684,-22.8097374544973,-36.1850186025845
7.5978488281716,-3.12901036873017,9.2811449230571,21.2086622121315,2.9440487198333,4.68795473985945,5.28939396009445,16.0038840917695,5.54047307094401,8.17607925722545,7.01587476431374,9.19365440400438,19.4733924317182,9.17117455143418,9.62236932110823,1.0878906623349,2.52609925557494,-0.197781471213306,4.16650827598296,2.96684540977273,7.52141244116423,13.4248158533161,5.50392033271763,8.48829980840449,33.647448483141,9.50124033417225,12.3987948659836,21.7495322830597,23.1789089010392,28.0357030609455,29.6762537416253,19.2812806426471,10.7956818294139,23.8984214122267,19.6030618393741,13.6849656006717,21.0530750288304,18.6495717710656,22.3239751151597,21.4182589404862,21.7978034015648,18.1826713095092,44.6198191779971,26.0801951937033,16.7412648307083,-0.22659097553916,17.9792117650293,-6.78614187683817,19.3333955103022,9.96162800392708,-7.95103136954422,-7.73237013891768,-11.0728973708632,3.20118939339719,16.6062823197573,4.50857694894132,-6.46032653191375,-0.438884624809691,-21.2967813134826,-3.17237155456744,-14.7593860476608,-9.59886275477785,-9.83590177329536,-6.68750613911141
6.59554194953089,-3.32177656337058,5.4995399707533,17.04411010809,-1.71198606895173,5.96377894328392,4.18965241202267,11.7030157947105,12.0093303365387,14.5607462631096,8.251043970722,12.4053102898803,14.5003002754712,8.5698523257102,13.5054967661928,6.6628727034906,11.1459707479485,5.61881806280248,7.47417554091582,9.79158226947068,5.80503140928864,14.0063840246239,6.73403206518454,10.9571814402393,28.4810616205973,12.8204664536133,13.9601280118398,22.5271873772345,19.9403608756577,25.7108858382184,26.5840603819219,19.8851034569331,13.1349358805025,27.1927961809346,22.3833549850232,13.9431548504517,22.6982776638462,22.4298183864637,21.9051640373755,19.6106609532404,23.249173566188,20.1066456436384,43.2084303575088,32.9496529728209,20.9515701854933,-26.1296854476277,9.68634878189976,-23.3128353434645,2.43253175882193,3.56354132321839,-31.859441276688,-19.0730083213785,-28.0576628684286,-18.0271667353634,-1.88556186643819,-7.13137120658685,-29.8966812857385,-7.53748407641992,-27.0728694588561,-9.46058643632524,-22.4442408881976,-16.1532463484784,-14.8446932320171,-6.32531840415905
0.784235240628952,-9.96826901010951,1.91350977134481,5.39048485704913,-11.850919467171,8.07773515221834,1.24997923614856,1.41074953021086,12.4523973110027,8.81905753152822,3.23080693966037,10.6136752151799,5.06279006166344,-1.74249435924462,5.30248832398248,1.79679851571164,16.5983739094871,7.50052869381171,3.57820609255003,8.11551870761063,2.87780822654389,8.63725226964552,3.4121232597861,4.46881525484749,25.0864059376017,10.4118128003201,6.56480577821318,11.0959709404218,5.20580580785222,14.5239042660715,9.98724246613903,8.79820736451814,0.509328662028364,14.034406261413,13.6240817871231,-0.934603841263809,9.2038789838448,11.4444073637793,8.086948215665,-0.131667218781295,9.26718006178386,5.99223327640961,24.9105805758329,19.0405691157269,8.34176101218348,-74.5817980198798,-22.3380887542859,-65.3580389701512,-34.1288315681461,-23.606101392196,-72.2329674813229,-43.1563605775888,-54.9018742893832,-48.6528627511595,-35.3137950941144,-35.1653713744434,-51.1103925145316,-30.6552818921301,-41.8689947066733,-27.1880368136687,-40.553662883288,-35.3010180993156,-26.7482686293571,-23.4849709141324
2.4771353899243,-8.43298558242946,6.87859852464249,-0.566335259180087,-13.569485168682,11.6538731778774,4.33272818581037,-3.55894114973133,12.0221250103739,4.53364924660016,6.41099486739457,12.6970155634985,4.15984204333211,-5.66654988995877,2.34346100658109,-1.8064918434701,26.0621363954407,10.0993718128004,1.49438245976046,14.4738290450263,0.0703567733364282,7.96914496148392,3.87477814125209,2.10843524071517,17.9114578822098,5.4708597722639,1.02501686615383,3.90025382064208,-9.15913577798692,0.481560080879094,-6.89364697361503,-4.94031602333817,-13.3459791498815,0.136895674956925,-2.70184425042388,-13.5029850313167,-7.29640864830781,-6.67109034848834,-4.05924156023339,-21.3052217529295,-7.88211064638528,-13.3998503090803,-1.39417885711151,-6.92207791391652,-9.22671743789496,-107.443340407996,-59.2683765343844,-102.445503130026,-64.0621450363098,-49.2717900440583,-89.3733911718784,-58.1405427614895,-65.5655604368441,-61.3570016480124,-63.6829796541252,-55.8823325367694,-53.5519078174401,-51.8447733959329,-41.4749352006764,-35.2360493203685,-45.7238763710686,-44.320062874808,-32.3343179578924,-34.6740251209364
-3.76961864325944,-13.3073670688198,1.7705880012436,-8.36044640770979,-19.9786227827166,2.73487044247136,-3.47891517557736,-13.51916966243,1.64886874567249,-4.29254916871592,1.2359722511104,4.25580276174812,-4.26449711208574,-14.5067549383262,-2.71795622272943,-10.5163001226436,21.2366860573012,-2.32569235167401,-9.07939152076782,11.0831216420276,-15.831299193982,-0.844214385589912,-5.67034401338249,-8.52087333627884,-6.20777662926038,-14.6505348543564,-11.4343919850117,-11.1880481465352,-29.1058599859894,-21.5190327591217,-25.8162829060695,-31.6624715671826,-36.4036930017727,-14.4986126775903,-29.142588695025,-34.4993874986545,-40.0042794641973,-42.0816652023035,-24.1140123084249,-49.0682146123359,-44.646353252296,-46.2615308364073,-44.9522457230793,-50.3389506329445,-43.0179262701365,-109.135322560984,-98.1831256822834,-113.344634843615,-84.8261617371706,-75.5330344036134,-80.4343988557813,-68.93213436454,-55.9952296567734,-57.9574488236822,-77.5583443753761,-70.9587268426116,-48.993916859451,-67.2405865083408,-33.5111157346518,-34.1898709733775,-44.5252134325723,-48.5376225268188,-30.3278361635473,-41.6898176747928
-15.1071674502785,-22.9449924078787,-11.3918523609686,-16.4204157698119,-29.8038753667459,-13.395004715009,-21.0147188635678,-25.3042586926195,-11.6956335954306,-16.4631552635578,-14.0861636911552,-11.1129520920656,-20.7363334442428,-26.907911419683,-9.99297898596892,-19.8756568619855,2.423715139184,-21.0767542927597,-24.4671228821194,-5.8996546985219,-34.3684533775967,-16.7665143422753,-23.51842634166,-26.7767846902802,-31.4970245758715,-41.2797172366639,-28.1666771349572,-33.7233944551831,-48.2514474617733,-40.7185373697317,-44.1145739944535,-59.8434669729449,-62.2035226062257,-28.2344305864304,-52.9993422626738,-58.2936758721087,-74.1646202732452,-79.4703125652273,-46.7473942907561,-70.2038106242675,-86.2573841711555,-77.8664458032511,-88.1238711162086,-92.1788368315404,-79.9138732050028,-72.2514891993668,-115.522090514064,-83.2179256878175,-83.9494548773456,-90.1052385888583,-49.6565935377408,-66.2820432311894,-27.0066715547513,-40.640814001784,-66.764718606726,-71.7098492047201,-35.5513389706281,-63.8267695899466,-23.2269875043321,-23.3151538178531,-40.4447572989503,-46.7597916358093,-19.5595824688981,-43.5450868069339
-14.1010480011899,-20.170033838855,-12.7624918585893,-14.9049170657346,-26.5521328228266,-19.0869274598613,-27.0983097990568,-26.1793450918345,-14.9380885624157,-18.4134198779793,-18.9998048045448,-16.81935452477,-28.1911344815178,-26.9068007598393,-10.8619420720883,-19.7575760262287,-11.3012146665979,-24.5255455068072,-27.9356752705006,-16.2891121746037,-36.0791817587006,-23.1677789378932,-30.5938854306482,-32.4618335831418,-36.2204606179221,-51.3424925202416,-33.2810804035424,-44.0912734276235,-51.1766796121148,-40.7404032098502,-49.9976432184266,-62.2434847251813,-66.8705717336358,-33.020301314514,-58.6799079429254,-59.6014441503299,-76.8496219258468,-86.1319146333396,-51.633529648688,-62.8943180940684,-89.3095306616805,-79.6172061395254,-93.0822527098232,-98.2547543911775,-85.5700321685725,-11.8393746572174,-81.3724174478815,-23.5077919527584,-47.6665225309025,-65.714891110593,-7.44136976769522,-33.6838540978816,6.99802078490588,-10.9551698960145,-33.3961439677453,-43.3671398692149,-6.11810217558574,-32.3815792188073,-5.29853444870167,-3.22557292929998,-22.331997935913,-26.6036914424501,-3.5679731124148,-27.0912721939381
-12.3283049752597,-16.2172598858916,-11.9129785646762,-13.6350344241207,-17.6282088450516,-17.1233300618315,-23.0290069152115,-25.1872025171339,-16.0122370988001,-14.9381137953656,-15.1572598511304,-21.371207584181,-31.8989965887434,-20.6887750309185,-12.246326881229,-20.7828439438668,-17.5251909542558,-22.5845337168442,-25.8791079518137,-19.7668120040256,-31.3353566680092,-23.516394617496,-27.3963637440095,-27.922788471761,-32.0510642046165,-46.1975209423734,-30.1321161065784,-42.3173591363205,-43.0255831289935,-33.3438833654729,-46.2836707352043,-47.5977977557752,-54.0463013386008,-33.327615286803,-52.4851569731153,-43.8498937139072,-56.288581558436,-63.9240088929958,-42.7597133756656,-44.2950326848088,-59.6383449759297,-59.5777865266587,-68.5599320912279,-75.1922898252233,-62.7367300940643,29.944527035123,-22.7789743177589,23.421149379759,-2.93476042284929,-16.9607082552505,20.0791588596846,6.71176141615573,20.1114471397301,11.8109387586128,-7.60002227323628,-6.2766475087845,20.5867495180532,2.59568880482659,10.584550537142,10.7010283160599,2.24962146085049,3.3320093039213,5.9956368676012,-1.34709630401277
-18.0111318232277,-18.4855818377354,-19.4015366511688,-17.6264312515867,-13.6623705603489,-15.3184741105293,-18.7451167453005,-26.4990535110158,-18.371845906146,-13.1600616603182,-12.2089046361629,-29.2787917694711,-35.3292030689958,-17.0843968981205,-13.1388238264993,-22.7450858543929,-14.6359868182924,-25.0328255764124,-26.440588292546,-21.4819638366122,-29.7776021289863,-22.7734249127002,-21.3951539733021,-23.3563090367898,-30.7544574904755,-34.2663302422147,-24.7780092400557,-35.7089862174518,-29.382437820227,-29.3647741016339,-37.598649665825,-35.9182882985343,-37.7120989371283,-29.3847031492953,-39.1929606289484,-29.0178143225175,-34.6107692308429,-35.3399255128722,-31.0616283846073,-32.141135653779,-34.1959971387482,-37.0357938676541,-46.0711984968873,-46.4068668845318,-34.9947570129187,51.3580068394707,17.5344864798886,47.3720245540812,25.4071953036361,21.9543260183438,35.9435156533859,33.875146798803,24.8656012221359,24.7304029016928,1.4730021703813,15.4827108931635,35.9868994279508,23.2675872431468,21.8424672390232,21.4263214709802,21.3177758197757,30.6312577364117,14.8517507519675,17.7276200179897
2.9696248730815,4.96926002822655,-3.64911918570955,-0.559796414082164,8.02133976782402,1.05521024330607,1.43202794552664,-3.24605336497484,1.0283134864977,6.79013175230172,9.17895728636348,-12.7806086832365,-13.4046337411348,5.35434078591633,11.5347125779817,4.72610567767114,15.4238411291583,-5.07753287024443,-4.03020603127262,0.305329306086469,-4.34434926241442,0.0762372288186935,2.89995656427567,1.25461964665562,-7.26128831712029,-0.786173418535732,0.811388801866214,-7.77777506566977,7.02608903405843,-2.86731503847001,-4.42520830032133,-7.01576575744964,1.06674984741842,0.314399365434156,-0.312470606190112,5.30725438419444,4.30858097667973,7.18760155428652,3.04146152317108,3.45998224720341,-1.33258368519189,3.94435966657057,-7.07872690673681,2.14129387277475,8.43632155358571,97.5809295281255,59.0987813801417,87.190993430368,65.1334295640243,62.8521484586801,73.6992003339047,72.3848708683822,61.7206904132313,58.2785279901255,32.2458747672649,44.9368387177673,60.692766477888,51.7312697731678,48.4481614385304,53.4003678136101,49.9691889550618,65.6706502107184,42.4516437876893,42.9789093774132
46.368323484231,47.0945847406791,34.9196285554843,32.8159696282519,44.1010372004477,25.0705005926807,31.7765909918285,34.830063608658,32.6259923248612,38.2716888345424,42.1556888516057,20.6680859376062,23.7531362129893,41.3187328221124,49.7602529773963,45.4122814596654,52.1997960835428,32.3067425283704,37.0508870473404,35.4345887035621,39.3269153091848,35.4670308168436,37.5138399524622,39.9259276930447,31.5344831691712,40.9276440662952,36.7564180398031,31.5141214206731,51.5761236704999,42.1146702506843,41.4512328122408,37.2881225588619,52.6810237879859,41.9438997115637,48.2028023151678,56.6540925073622,54.1586256380934,56.8747307995627,52.5059897204756,57.6294763497781,46.4850993486521,54.5276886074893,50.917884998536,60.5728909064642,59.8720488842904,147.16254831404,108.415211243557,130.889151689078,112.564246834184,106.230352167681,111.664936536918,113.14183200157,103.85229290007,99.1607447082779,79.4548514513134,85.7381866033252,79.2218698466926,80.5967901851326,73.8827959806632,82.5780237729498,77.8164540201861,93.5194601081877,65.8567983397641,67.5708777208385
51.9664695540065,50.8505642239389,41.9184645630086,36.623363360637,48.2465340591047,21.5678688001193,34.2245209377248,37.6261058873156,31.5375273985903,38.6389998263085,41.7187246503338,23.4500753544415,28.1500865481083,45.386160985252,54.522043314437,41.8194624430792,46.6223663020629,37.2773436191133,46.5625064487445,35.6861013324618,45.9721252094459,37.2090598387242,43.0138251292115,45.9462762920876,33.1434612666482,45.3433542413612,40.3138534106072,37.2772543355973,56.9911708696578,52.2842992803175,47.9714676723948,47.6681748865766,62.9065423123499,46.9474965447032,55.3585132807573,69.4246699062718,64.1101867264293,67.2983412857646,63.6530404135635,68.4420413889881,63.811622000767,65.3798263496812,69.5133396999313,72.3388186755174,70.2338302905257,128.411477506644,111.83445737225,118.620237548442,108.19044751209,105.928004481714,95.1073637192274,102.925800939733,88.1735980285788,90.8493823668525,81.7288858906961,86.5306361617658,57.2203814390435,68.7364658426846,56.743695053164,61.073625022772,64.6391058652553,77.5513657586997,46.4321295634166,57.1036599240684
23.8392524770684,23.9837284218603,18.6423086437395,16.315719261865,27.5858525435875,1.38333753048569,15.7037525431139,16.7181771323571,9.45358571168242,17.1488893416417,17.3316600259279,4.11764605366822,6.34396304692235,23.6487634219579,35.3319578610105,11.9521301307959,16.3478650236202,14.5027721624374,27.2626409377269,11.7368601460331,19.5201948330861,14.347499959243,27.5352584292414,25.3257253742251,4.79854911467921,23.4044799560222,19.9375708247613,16.1320173191446,33.4225296000655,27.9143000631991,22.2547244640736,26.801980440047,37.4609210631831,24.3730051176347,31.1801134255686,41.6010243952519,38.2185426751757,41.493843137526,37.2965363746968,38.8210527813994,46.542381282436,44.1089432230935,42.1108443313114,42.604460999036,46.4238987916331,65.8865753248672,72.1539808240612,69.7006921081537,61.4482112317264,69.0987691386881,53.5527919818006,60.7185623616307,43.5500236535665,49.5511959665826,46.3326395438306,47.1215954316131,27.0166402317179,36.2418518935533,23.5821887930344,19.7338521283709,31.4739350879182,42.4045412186696,12.7959079475722,29.3381776716406
18.6150097903264,22.6311531198952,16.9582913078537,15.6771199438175,29.8264160793379,3.43213602369911,16.8377844818689,20.5231873055828,13.8297189963095,19.0535505252795,17.1339185265874,8.19392516915872,3.90886566615623,22.4391828127098,34.8908733676598,17.3867380970999,15.5998603209056,11.1485972159846,24.4694062250717,11.8255525582544,14.681849141912,13.9358283744896,28.9404361413085,23.7419941907423,-2.24499996027595,21.1393994924107,18.4476108756576,11.2977150819854,28.8396598051698,18.6338018114005,16.742842788029,24.0435436717196,30.5240244098757,19.2451764732087,26.7917466759141,30.7562141825542,30.699020354618,31.6964707667081,28.1298329191888,27.984504911377,41.7625972004567,40.5423044237028,27.0185314341827,30.8710585173355,40.4171906601461,43.1434258183081,56.217003786495,51.1837664815061,40.510765731312,53.105228409777,51.3068605890115,50.1474745592838,39.878326361158,40.6679432998151,37.2208232930683,29.6724027093938,34.1314793509045,33.9729587472111,29.042451701429,19.2354237476635,33.8841838791671,39.7102592854591,13.2406105678268,31.4086668341143
36.4679488912752,45.5569077091956,37.1883646238321,32.6625992453273,49.3677319366242,23.2814085634936,37.3904889492652,40.0104107584093,38.2251041572231,40.3518095920196,36.8812710266265,30.200031430553,23.0395722985062,41.279701547313,47.3896427402567,49.4837145401626,38.9650595596248,27.552818932935,37.8566120857382,29.9550676776249,32.980515616691,30.5984494544866,40.5239371300302,38.1282450304049,9.46578975211409,34.303127397047,34.1863697488605,22.2090317542831,43.5298385868646,27.8389929541295,31.0754225870236,40.8937033324489,45.0530134262134,29.3704958863024,41.5147196170037,47.3180274932735,46.8775619123613,44.4116373972257,41.5741743938523,40.1135476193734,53.2398533352108,53.3330245511518,36.547942129847,42.9795221849245,51.5893307473113,65.0119649496032,75.2347868182115,64.3940892334238,51.3483765753677,62.1672514046178,74.4786034004612,66.2132870392732,66.2754798328017,62.0562830001803,57.7598633135185,46.9832675287383,56.8100928722998,53.8753528004313,59.1537299128275,46.7316598108267,62.5565172773336,60.6799756595999,35.6156154484459,56.7999732951917
51.8777845874169,63.7998787437804,50.5040691442992,45.8013675452293,61.5221245175059,42.3949756130375,55.4177993700026,49.4714400423825,55.0095844952885,56.0837566504442,50.7091111417655,43.9844352976661,42.6143912627247,57.3014520553893,55.95569477492,69.646062893188,56.5964847537528,41.7140570924641,48.866509102528,44.4581142217736,48.5490613433351,38.5708521413103,46.0672949946972,46.1094823137407,15.3873392901552,42.2854483266323,45.0304180371959,31.7362290489402,55.2883056016245,34.354064824172,39.7316494668799,53.3256267421392,55.3493676930631,36.4529555491095,50.0776629948874,62.3345105800459,59.5184033972852,54.5887190675324,49.9088563066188,50.38351157499,59.2045657820856,59.0346875781801,43.5026502300076,52.7012532363621,56.6049008404527,86.8284272112208,94.4818166227704,80.0265879381543,61.7143259449812,70.1036838900757,85.3003207805161,74.4546481899305,81.6335954527358,75.9347169210006,73.8013182009771,65.252853539358,64.8389930655827,66.7628947549088,76.5033656811817,63.4637643100955,78.0781695048532,75.3563574297928,51.4527392671247,74.0807935513284
70.0592057126133,78.7719212138574,61.9173972962105,58.3886013462688,76.02948804217,64.468394087191,70.7264474718575,58.6485364666553,70.203306341924,69.5658499690368,65.8664979251634,55.463972814809,62.5404528018535,71.5941558064306,71.8450482186651,80.310197076458,73.751162541683,55.9768361833368,64.6350316283351,68.5735488837922,65.8112018362791,48.1445684733651,57.4175369994424,56.274066452127,24.6356341516776,54.9049635654554,53.4822437667956,46.4662811189209,65.6903104573481,43.8192958903504,48.5054860828838,65.0751872724414,65.5368684580894,47.7264090388437,57.5760852639153,72.6964499358709,69.3153689392353,64.7897060347399,57.2067531751477,63.8820045265241,67.0968573612073,66.2218302202907,49.4764804846121,62.9632453112773,66.0674965671854,98.2603123862854,106.843006592496,96.5114472279317,71.734054992473,81.3178755375004,91.6185430031172,80.4707202605026,91.362780473931,83.674012988918,85.3000070939729,77.2244781232702,71.9492355170595,75.0172225512847,84.3993836778147,73.4592309005876,82.4123331135497,85.7900688531194,62.5994364681426,82.7035360848782
86.9877415195041,90.4073498811833,78.0454631026527,68.3427023733172,93.1398678715287,81.7439534845487,83.999262619374,70.8635953175879,85.3551285382794,82.7672575150988,83.592499302349,69.131358032182,80.259779012279,81.2915008737445,89.0613681919205,89.6801239656242,93.6491456153243,68.360510636254,82.1288659999663,99.7010739297367,84.4839843081265,64.4396782992011,71.7528149275785,72.9185881683791,42.2238000273235,73.7637956367579,63.3381257394713,63.0531845383853,74.2749830081874,57.5661274634984,60.4743811030103,78.7865772228835,81.817052237389,62.3872432192911,70.6169298281221,83.8539277812141,81.1611555973204,79.4043174736857,69.3071793827889,79.114309934964,81.2141211442909,80.7757193774375,62.5086512701378,76.0955354054369,84.0564794846142,103.224392009006,113.935931995702,108.191250785074,84.601167909084,96.6209526046173,99.6210183156881,92.7364732020884,101.282301576959,89.4454044457598,97.0267796542126,86.3799466115646,85.1022179177548,82.1560269393218,89.046792954792,84.7722215603121,88.1238850555138,93.3891581770273,69.9483019861312,88.1775197729812
78.2493354823414,81.4441333317077,77.0382514711195,59.4554845169345,88.9514517578421,72.578512159524,80.1183790275064,66.8940153843822,77.2691461694115,78.2550487840004,78.9377789467424,65.7876306730246,77.1414957364774,71.9857778325173,80.398499219281,83.8425184622874,90.4855441125513,61.4259655844401,77.9760775596392,103.425717381316,81.6824482182999,63.2997997935809,65.889106196391,75.5840624211002,45.8345935043523,75.9909454359885,61.7128896835108,60.5679199085008,65.4777696587379,56.5387258581725,57.0324805623592,77.9891806113899,83.9694711401243,61.6758320750174,72.140996233182,81.5149614133751,78.4326286592866,79.0863063141858,66.5909412063299,75.1825836557012,82.1534530654331,82.6481120111564,63.9460140391917,73.5102678913024,85.9982098538535,89.5361487277298,100.323378369759,94.076206900468,79.6350451832232,91.7599069029737,87.8076095296221,90.9966369874587,87.7420417491077,72.5224947645603,89.1631067116978,76.9274619622651,77.52020103793,73.7439616597146,75.5082965784195,79.1394759384462,82.1376294102142,82.8238479733779,60.9034330585135,78.7325517792511
45.0993123255192,51.6762868238536,48.1722239608255,33.6909830362063,62.4134965556906,40.681612157134,53.5547857482234,43.0481378768239,42.8079207135629,49.2020547389759,47.2083530255556,40.2769882643639,50.507141859234,45.8416576468986,46.096292082957,57.6913311060694,54.01613192552,35.9431053334969,49.1687814889058,71.0480689407229,50.9032989722616,37.215881265475,39.2344075808981,54.7397769601267,26.4798527878057,54.5264105042852,42.7906081589741,38.7627557553962,38.4167978247801,34.1780030318958,35.4534106891701,57.7763843705089,59.9801593445808,42.1736937895056,52.5638882255078,57.7679506350815,55.1378171897322,56.3031318391382,43.4351938785197,54.1154548544105,60.9290634972151,61.7982676388733,43.5378989626536,51.7214503975661,62.2655302766319,56.7429389116289,65.8240228555237,58.3408812805894,48.5029166014139,60.3834012344445,53.9527045507909,62.4861291704617,49.7535070992538,34.3931701728549,56.5702830446844,46.4072668356695,41.2168269359824,46.5174088006848,46.0225352318053,52.7800824372127,57.0853566068411,54.29515356064,37.4521019263798,54.5910474627176
14.4979952707661,23.2677196429174,15.3784321731475,11.4539025121633,37.940634709683,11.1178773284384,22.7722828664091,18.8977958717468,9.60730095079977,14.990290160074,16.1252769478776,13.79074100721,23.4832894039207,19.4108331642597,13.0223485278232,29.8345929971716,13.3068248177926,13.7871350671025,20.367454079999,32.2832646955584,16.5220711273461,9.16263726203514,14.0980323675875,28.5198620153243,4.62521221068326,30.555628445429,20.0331009080141,20.1953253372511,13.793316376017,8.55859766040718,16.9884942687012,34.3509435940108,31.7529014643084,20.4846697520028,29.6955410711116,30.0505228595461,33.1104445085253,32.0367897625388,21.8359278689014,37.0700514057582,34.6699804590395,35.2528212393047,23.0841940593139,31.7861291586757,34.4150172305306,27.5737319382317,36.9821796825806,30.7218874359845,15.1432359642535,29.4547781441486,26.5604200056717,27.9420296473631,20.2623248562667,6.41946282115567,26.6740253959088,20.3404230108098,10.3825005653509,20.7743127622347,25.3132312070662,29.3036897834426,32.3978837899021,29.9522214650448,17.4256669318721,36.3003456788608
-0.147716130826561,9.68470124632114,0.548770266806225,1.18431592940574,26.7977640612637,-2.7935965424866,7.72337370428589,6.46651807883505,-5.79668987938919,-3.91837037476482,5.26676214945318,-0.577991420645153,12.6710676735575,3.5556399006628,-5.47715135048324,17.4175487326531,-7.12063666202798,5.63371365100249,8.95295803480238,9.87938125837293,1.63722792629347,-4.5008718428344,3.24586358296097,14.5485870093065,-3.44429749205156,19.6590242713315,7.25887368818827,17.3503722610895,4.23922075386682,-3.45101235685695,12.3605445683113,22.3552365477014,23.1434837774638,9.69550636174882,20.9612323611539,17.137113030451,28.3926990780564,23.7908075022908,16.1812210303028,30.7880818379212,23.1661240228362,21.5649744165012,20.0959962790384,26.5929275912419,22.925532195331,17.6816449977645,29.2387664498895,24.1483476903014,3.8634334372016,20.8316985333014,22.219814192093,14.2080464614029,15.2339336100002,2.4428806141789,20.3479834561558,15.5647093367619,8.83536167853339,13.9422116522181,22.9455928170261,19.9147054010596,26.1104319646392,23.8096973767118,9.7207340462977,32.3330964879532
-4.86648155905913,4.9439998751893,-3.38154688149004,-5.56770366211462,21.9213493360931,-4.71956828892629,7.0481937571306,-0.0503912492341341,-12.5127890992119,-10.0746331747057,5.2568678444017,-7.3091798922553,10.2880410168868,-2.54674480566266,-17.4179186257067,14.128611803042,-17.3566436435707,3.88930799449652,8.90301331875572,0.0697493376290272,1.6121221194886,-8.33352640601041,1.15804398283978,9.06004618477861,-2.59936961886932,14.5924979312845,3.854844342985,20.7585485752422,1.00625608880998,-5.28438523969346,11.7227979878864,20.6044961379829,28.3450193206031,7.46858485107795,21.3342035778546,18.0468929996744,30.0429601537741,25.4653285662445,18.1626012313213,29.0346789077843,23.6712008237359,21.1438855471774,23.6964738383591,28.0648130545,24.8045236344775,19.6182499681729,29.1803022969385,27.1711630675827,8.85701548617643,24.6536410817774,28.6754178515879,18.9432273422243,19.1014191493942,7.71720601259322,25.9095506071486,21.6661840092507,18.5982147056519,19.6105966061899,26.1541450869303,14.8797412620923,30.579435297956,25.6566483857301,9.81701467859749,30.3392377311097
-6.29920305566455,1.63868705003394,-8.82775644386667,-12.0881844662446,17.2689541995988,-1.74009526836363,6.2412777363171,-4.86384367349774,-17.425697416128,-15.093195683108,0.0205852187133648,-8.98909341572149,5.10969692507438,-4.19661106337729,-27.3576345291677,6.12789229844888,-30.2374194331442,2.15445372813307,8.13802833661565,-7.10163631722588,1.75444072179372,-9.1798152524732,-0.724946714611276,3.02457648452758,-1.74361498828387,7.21305336359829,2.22910431888519,17.967029527456,-3.70893506562418,-5.81400542808643,8.08499540486923,18.398724973249,27.0571228125004,4.23639167983414,18.7600673837615,20.2636013113053,24.6848912527747,23.0526378286867,15.0818870109778,25.0432652754739,19.5590863651957,21.0984014156562,21.0016739823662,25.2624223706122,23.7780526601086,18.1798148527543,21.6226243484316,26.8539474781842,8.7074434023368,21.1583072830413,28.5475484585172,20.045835906264,16.9806371681904,6.97239670612418,23.2851969520218,23.3493647892745,17.6657553008813,22.1651497848107,22.8503593807549,10.4519840480191,28.1280650345689,19.8706274425945,10.9638482577616,21.2875167754
-5.79230633614893,-0.309881482499927,-14.6493571525888,-15.0199711842202,10.7286969122143,1.05601142863629,-2.08273775382445,-6.16116874132075,-17.0249719144567,-20.888360384911,-8.67389637847154,-6.01452849487656,-2.05331978649489,-2.67787432050729,-29.2607564919953,-5.35240658599895,-37.871263657903,0.909724522664115,2.22764066200583,-13.2509678330935,0.0141604970141839,-8.44563090314089,-4.24068323163355,-2.76149994481399,-2.27724397436527,1.4213920118573,-0.40004238966072,12.6688001786362,-5.94227976166813,-6.17825982622919,4.18282404192576,11.0657189377109,13.9479483548496,-1.80725849033271,10.9343703060568,15.3532215768848,14.0044896154676,12.8978360138544,4.82995695783814,15.111497380455,8.18063751354822,12.0661214089754,14.0764805803921,16.5357260134694,11.8252058725454,7.96805412300942,8.19381594226961,17.9766186201749,-1.81298177083934,8.16478484184061,19.667612567073,9.41139182023324,9.84092709944665,-0.404774216133723,11.8148290173206,19.0824285595644,9.70911236288448,17.4012937473495,13.9423392352322,10.2185061719694,18.6966935255464,6.9533982914445,8.69440732570196,9.09465810249869
-5.81764742673496,-3.08487998236784,-19.9246950840386,-19.3424900160309,0.304136632559214,-1.25628038593102,-14.9224515394279,-7.54961322268012,-15.9269409115842,-27.4015948980886,-13.0275357793628,-3.64251100475204,-8.89711224871247,-0.721109977475418,-25.4647335918995,-14.3852096885275,-36.6824068461603,0.0256754378336142,-7.82968429743744,-16.6731108601824,-3.79940956625897,-10.6768038725742,-8.93189887113161,-8.49181119198449,-4.42105655212854,-1.93812597243548,-3.34093551884036,13.5898769318054,-7.07028051777457,-8.78377168151481,0.108229925195479,3.56726051114987,-0.669695884248614,-6.96972884132782,1.75569318053893,3.48347477133402,2.16371439042305,-0.524220826609805,-6.57334078997018,1.60132377200457,-1.31461789068737,-2.33367382028888,4.05127770136781,6.01916722702691,-4.3140963219436,-8.47211134799376,-6.29525776260694,1.00223940224332,-14.3635465041114,-7.63946417802662,6.91929755502655,-4.84359245463122,0.249939743495402,-9.94539486421338,-0.343039024765932,12.2282265607866,1.76145844183112,7.09118255455247,5.5706174438906,6.38788172499576,10.9395009868449,-5.85126634015587,1.9624775082041,-2.14487554196657
-15.0297869043966,-15.0011010675696,-31.2294127038493,-32.3280349446848,-16.6738579849018,-13.0537825938178,-29.0324023066261,-15.5694831920181,-25.0769695580295,-39.1029129741091,-20.9632177004816,-7.60133554334288,-18.3748436194794,-8.1568111251566,-30.1312001999034,-25.5967437060899,-41.7234856936647,-5.39788089962476,-21.8444786624779,-21.660196180007,-16.1993239733031,-21.9517789280696,-18.5971676162965,-20.9115677949898,-11.7314263315178,-9.82772815894428,-9.86855174312353,12.6796032768774,-17.1207807000026,-18.978239330465,-9.11838071621141,-4.80150235130998,-13.2448816890647,-16.0728348451001,-9.39114706002734,-14.4196442685761,-12.8038408642039,-16.1393084250482,-18.1788013739661,-13.4183863878135,-11.9590422418391,-16.5366097442055,-13.0777244697768,-5.59750338606722,-18.535694221528,-31.2155940142641,-26.2476382462077,-21.9899899870917,-30.3996117604649,-27.1392348490449,-13.9816240863661,-19.2731595546471,-16.2575912112802,-24.8193800975911,-14.9806269812205,-2.49068838340841,-14.2022238927274,-10.7095384966865,-5.03516206052083,-14.1107051829599,-2.77427902192381,-22.8847814563793,-9.44876485787696,-16.4544116570385
-39.0887396418866,-39.4791653433007,-50.6175080769367,-51.3090472977604,-43.8295009005681,-32.9007946155958,-45.8718410366093,-32.5424740284035,-46.6925570598627,-57.2267696880747,-42.7202960539853,-21.6107091791767,-34.064079320083,-28.5975359656719,-49.6055030359407,-44.4480399791386,-63.282541086295,-20.7727148751689,-42.2434930700359,-37.7628327717075,-36.686361103846,-40.716403883498,-37.7594226630206,-41.1853312451332,-25.2494685899111,-25.5890344043169,-25.2706992907953,-3.62159718354905,-38.7618110089459,-36.5711177131063,-25.861771267927,-21.9079867396052,-32.8414465903073,-36.7697345998825,-27.7776712567393,-38.132891305695,-34.3246785812051,-37.048008281606,-37.2486168495664,-32.863981840644,-33.701458866172,-32.5357214606192,-35.1150443451083,-23.8930951593085,-35.2190094804576,-60.6484508187715,-55.7521170167462,-49.7754837219937,-56.9771055358751,-52.5930634828892,-45.8520680948542,-40.3035609809166,-43.6225204894368,-49.9930825995263,-38.5482126272322,-29.5558927776275,-42.58208277959,-36.1231355721252,-25.9921507857093,-46.8285161299139,-31.6201113346804,-50.7992828777282,-27.103617257352,-39.7362711703106
-66.7034018927084,-65.1776901583669,-68.949458501832,-68.6232223981058,-74.8909539888087,-51.7293903762767,-63.5256922677928,-54.7393009824203,-71.132439350203,-75.7734229291636,-69.0597669480257,-42.4679536639177,-54.6694823812556,-51.5313984977323,-72.9356855093556,-64.1277845095547,-89.8488613828556,-41.324886191408,-65.384951336587,-63.5268339482358,-56.651536577265,-57.831957311998,-58.5554365075573,-60.2925658975435,-40.0302666024476,-45.2298921267634,-46.6502971001686,-27.6068272110637,-60.7419607988423,-53.8643929603651,-43.6054776837886,-42.9769726456633,-58.2428343512706,-61.1129147331767,-49.9581423404151,-58.3563480755335,-57.1433839411408,-58.8175094112993,-61.4729353333087,-52.6932643029203,-58.6998233033767,-50.3463669669777,-54.4303838713719,-46.8089315596202,-55.3270554264248,-89.0095273765135,-85.8504396109715,-77.4902854620168,-85.48404420623,-75.9592789105513,-74.9613424134665,-70.1100804405969,-75.9722339733852,-78.4783402742598,-66.9032589013828,-56.7387610571251,-71.134261187009,-60.1545880911708,-52.0379296314813,-72.6643622235484,-62.7084922478928,-79.973094996414,-46.513193770397,-67.084084766224
-79.0966354323152,-74.276852761883,-77.3335594104038,-78.9056750136477,-91.1276223707634,-61.7521456317467,-72.3671335767892,-69.8189192762278,-82.4774038483407,-86.0476748182334,-82.0777436981079,-56.1240686596312,-70.2737894134895,-64.9113884950345,-83.1523528195487,-72.7680376738516,-102.639001011079,-53.532035363833,-77.9086282487475,-80.2583181203418,-70.4982029707292,-62.9687860839436,-64.9706759929614,-69.1829997647484,-49.4193769837573,-59.2237426722575,-59.8098725777159,-38.1783907003129,-69.682558033211,-60.7737791039513,-52.5657199541745,-53.511560211625,-70.9086384631065,-70.2531091317593,-62.7280173126503,-63.675141475462,-67.7389264666838,-68.3041117381647,-73.9222165528532,-59.8197142443563,-67.2565652333893,-62.1915463232663,-64.7160530077952,-59.7650377478987,-67.1159217344382,-103.784301534475,-100.239135778201,-93.8554616850082,-96.4397161207068,-84.328314425407,-85.7352055822069,-91.9779549609511,-96.4146378329121,-94.6982795682615,-84.9644744657875,-67.2395446289191,-85.8500328358409,-68.1871482143379,-65.0210885153134,-81.6458265264203,-77.0746480833762,-92.4771456837748,-57.5729041627271,-81.6259565702644
-72.9568072586736,-63.3230421703133,-76.5469164020616,-79.5842582145901,-83.9438324172408,-62.2059140726266,-67.7041201021929,-66.8926439964647,-73.5528514157363,-82.7905297151403,-75.863340937544,-52.0309556614583,-70.4851762671744,-64.1988089206611,-73.6271465159363,-66.8730953127153,-96.8728430057365,-49.1467274978293,-71.0381439477734,-74.8801922298688,-73.4923126078209,-52.464799422824,-56.3860238752922,-66.085936014972,-49.4009673466101,-57.7164849638114,-53.6511634528427,-28.5907677518592,-64.8633405846976,-54.578399098613,-49.6381666081271,-50.9941933719384,-64.9774400639297,-59.8642962819369,-60.572345784139,-55.1992379877938,-64.9834306128479,-62.5296530520396,-66.7570447857005,-52.246516398877,-57.6101011260514,-63.0926014066824,-64.5642465305493,-55.8714400005137,-63.2099312654743,-98.8700587763954,-92.9956537935404,-89.961344732154,-85.3718158918815,-76.1512701875504,-77.6785698202355,-85.9137637277058,-92.2919830828429,-93.0563756877701,-84.6734738174643,-60.7003499564925,-84.1230253767508,-55.7604213292472,-58.2021204181573,-77.652403357557,-72.101378099574,-84.2338589517116,-56.4572942991703,-73.5318982164591
-59.9847360298494,-48.6253540822286,-69.5302903666127,-72.4800851905706,-66.2396223346955,-55.1844304368804,-55.9254686529389,-53.6199253296958,-54.4360934586904,-68.1388597558913,-59.9508712883668,-37.1029276865684,-58.7560387151375,-52.0787491975966,-54.2064128007581,-52.8771267697695,-80.581717341451,-32.304395437017,-52.5075376542778,-54.9754907570835,-61.3651713027028,-34.8940675923651,-45.1173477031434,-53.312858115098,-41.8935197187102,-41.7329201779346,-37.0224420564312,-8.77452383381668,-52.6695111398617,-43.2569981958613,-38.9250018400266,-41.9656343612633,-57.3614300826471,-46.3476332977632,-50.8738086147728,-41.9455413767981,-62.0345687277536,-55.1055168685937,-53.8069303524075,-43.0632969344037,-48.5602663195039,-58.5234183854523,-60.2040799189048,-44.3643091376404,-55.0155974658722,-79.6637603266217,-76.308951171231,-70.7645298546538,-69.4943297875963,-63.2207646955527,-61.0982019823474,-61.8941131956382,-73.0414505924711,-84.2021180716434,-73.8486849012471,-49.8211367116142,-71.7518162069981,-37.4917181074721,-43.906108735883,-66.4778781443244,-59.3304170757846,-67.9455887139931,-46.4356523358603,-53.7921820941712
-50.8097096517915,-44.1209024642108,-58.8553158949315,-65.0389236354703,-56.2307544553409,-45.9974565604781,-45.9900311856914,-47.9088175306942,-41.6669705078364,-53.4550405862473,-50.9891661725014,-27.9809092453366,-49.1618492883831,-40.6239882621891,-42.3376801000462,-43.3837525346977,-64.2527794285072,-17.1469910725394,-39.7260915027215,-37.7716899687388,-42.9526073598993,-25.7405466055152,-37.3744589807352,-38.838935362379,-36.1084581211029,-27.2713914332497,-31.3238727288646,3.43909778754798,-38.1783033362372,-39.5221020313431,-31.508857869356,-32.3650153050324,-59.2419837132423,-48.2036284115144,-46.4354126115177,-33.8950641175702,-62.7819725590285,-56.9163251627215,-54.3714223127103,-42.9389882186444,-51.2986457260288,-57.7883530965157,-60.7166909512245,-39.0690183826695,-56.2049805184281,-60.9212745100926,-68.2359758316507,-54.4922971472232,-65.6232275330059,-57.5410454797887,-48.1711259220858,-51.030375186977,-59.7504978759775,-78.1550064512934,-65.1523100232053,-47.0967115782429,-58.3028410230662,-32.3066715977922,-36.6282580895314,-56.1139705244634,-52.7048492299076,-58.4981595736348,-33.6865416124408,-41.8749011406188
-49.4590926181907,-45.9173620456613,-51.0736227877754,-62.1132328111023,-58.8561163236742,-42.8609015420152,-43.81033957634,-53.1975142032825,-43.4714749240871,-50.6090461489289,-55.5973102626473,-32.7799588908021,-48.7348090654014,-41.5138659746374,-46.0561087676675,-46.0129312755255,-57.3024796853791,-15.7539410156018,-42.32749334687,-35.3127126428434,-35.409637337064,-31.6892595623065,-36.3076987001268,-35.8410976891214,-41.3399591159614,-29.1697729166141,-43.2891524302434,-7.96155956200949,-30.9374535521394,-50.7392708271588,-37.1663077192796,-29.8794346201592,-63.352721724162,-68.0596616890923,-57.7005535745625,-36.5324455514661,-60.5459508725976,-63.8822765667534,-73.720739951938,-51.978476283816,-57.1973943498918,-60.9207196323186,-67.1296642170603,-45.90498163775,-61.7982319519953,-53.0086392995709,-71.6244958191852,-52.8674538991482,-69.2487771219091,-61.342402464557,-44.4017218890036,-60.4007842526475,-57.7455729843051,-71.9492063375031,-63.862643363178,-53.8928795506978,-52.3176198848045,-42.0817127182208,-40.5207569156654,-55.987555919846,-55.6980475212756,-59.6604595927768,-27.062729031223,-45.4733689889022
-51.0355538696669,-44.0779855692352,-49.0366680701782,-58.2641607624175,-62.420757733585,-46.5401674188655,-47.3976586751777,-56.4294001714453,-49.988835237619,-54.4342396076175,-61.0446243505834,-42.4427926379262,-50.7200284523271,-47.3703323146748,-54.9081192288964,-51.5276222624907,-60.2942304162275,-24.1894410081113,-51.1857193912145,-42.8947284119312,-41.4239437786629,-42.3567402074725,-41.7711748580183,-42.0396683959027,-54.566528676886,-39.9197188185293,-54.5145239917758,-31.6624660797826,-33.106509449437,-65.4735864102017,-46.6516189494359,-33.3495195161645,-57.8409921639242,-87.1624574109167,-77.6491368472919,-41.3615178075654,-52.7534509496557,-63.835283279967,-98.5918434105626,-60.0481685941212,-54.1088265664018,-55.8263772683234,-68.0926324530658,-53.0774283125547,-56.9488457790852,-43.2707455298379,-70.1820540805619,-51.5697703013839,-61.9437239137909,-63.4794541754858,-40.6704152980726,-62.8242855066383,-52.7940443678051,-57.6223307448461,-61.522231188681,-53.5730071798688,-49.4367915034085,-47.9068629611146,-45.1415385869905,-61.2534597260702,-55.163216347239,-59.9759424117153,-27.9194093760835,-53.8794779397847
-45.8064230457927,-35.215079501878,-45.7472257499852,-47.8377778127896,-54.0202187252694,-46.6883868908154,-47.0996670201251,-47.6887751352538,-44.0291918225743,-46.0908009719439,-53.9177592378038,-41.9658243707761,-45.1675982536956,-42.5683222279913,-52.1949820071338,-47.0657509633571,-62.6980652395713,-26.311419200116,-48.9382341237966,-44.0781074559667,-46.1786388714673,-42.6361419110626,-42.8969415469339,-38.8032246614709,-62.0416065038505,-39.3343363018891,-47.7296789869114,-38.0364407630844,-28.553824058352,-63.2556007009025,-41.2685533549605,-27.7017304370441,-38.9833050774269,-82.4369245733276,-84.8366192766445,-36.5708911328296,-40.4260580085587,-47.0825871254982,-107.24745796607,-55.0618838467114,-41.0541497960653,-36.322533123856,-53.1523088890436,-44.6476903088661,-37.5339025387815,-10.6386725699902,-48.8119081260577,-27.4497276223432,-34.7041541152985,-47.4361547558811,-22.3972934722379,-38.400079566356,-32.7332858654427,-33.4365251442836,-41.8903044226311,-28.3933704279827,-35.6071121722394,-31.8211774413593,-34.9222216047901,-53.8550710117458,-37.4898386111254,-45.9550805253132,-24.2700439848371,-48.3733845337476
-33.2093726831386,-22.6409346243364,-35.1870116727338,-32.786661829998,-35.6932103387268,-35.5717861244923,-37.5522623280835,-30.3969778382257,-26.4073983931528,-22.6927268122768,-38.2557957125612,-28.3511635222285,-30.0739893192726,-27.4806344580761,-37.3477919240039,-34.3144740608153,-57.8535114432199,-13.2868302229251,-33.2104672968368,-32.7590612525083,-37.1094548660702,-30.8430122325171,-33.0258233322804,-25.4645205763327,-57.4009774065872,-25.4379907949339,-33.3174900797748,-27.6122010024995,-11.6703304535559,-46.6169992315877,-23.6393227322837,-9.77367158592272,-15.1453904799714,-56.0108915980287,-72.1073835057632,-25.7447327382608,-25.5940414893978,-17.2690907198684,-88.8010408554676,-38.3829616844307,-25.0728890627431,-13.8194251981701,-29.1426345959749,-23.6790838188572,-13.3389423114122,34.2615960871267,-11.1949938941011,13.877933117602,2.91183971950976,-12.7303812132271,6.87116591087808,-2.9248270670345,-5.41761791522219,-8.02002210662221,-5.21607829840736,12.1312920407442,-11.1648979331198,-0.975225305777972,-12.5504873335155,-29.1517492994156,-10.4356800275168,-21.4433502462885,-9.45102509280735,-23.3128064423356
-19.8210844312585,-11.3778928501784,-21.5930514356619,-14.8113795463033,-20.25663711912,-20.2802366280299,-22.5098424998909,-13.7644214444549,-12.3403285060538,-4.16331782529692,-24.0296164377336,-12.2080799580698,-12.2734607809561,-12.0316231245912,-25.646529311633,-22.6212780008142,-49.1469946282073,3.90354195697164,-17.4919169366182,-19.5402231677032,-19.2339017270441,-19.2748862929809,-22.1652766929498,-19.4334766227353,-48.2241881369315,-14.4002589844903,-31.5787135129057,-27.4049867425929,-1.01150664753536,-40.5898456432437,-17.5998495668696,0.368470993887263,1.04265596075899,-33.8007835516411,-55.2994118701002,-22.3605469378886,-14.0750294434541,7.98578273811026,-60.3269545229915,-25.7097414685533,-11.0947501343777,-0.511560899634872,-11.5239706079875,-4.69384440784495,2.80510106254271,49.7786736136924,20.6219116798984,38.0068022870957,29.2332264327083,17.6325388595839,22.0434891750301,15.3026724598865,5.16033109401631,3.93787890281152,21.159875428129,36.087793104287,5.76745062657201,20.5665011988022,1.46086550423852,-8.14501328632027,4.85402632303492,-3.11279154794408,4.94066443758259,4.59780747128173
-9.05639972279789,-4.53751473260156,-10.3154353499929,1.53928761114569,-15.5108773539622,-11.1548863408501,-9.06830255218045,-2.65797001523172,-6.94246483618503,0.917402603962855,-13.5548305499559,-1.59794899099213,-0.373490781613869,-0.990407784184554,-24.2456615169184,-17.9603600364384,-38.1036560216615,8.87176770502446,-11.2558653233019,-14.7715495166797,-8.60855371201697,-17.1772170519527,-22.4125538451169,-21.4622269770915,-45.1083589077944,-14.5868317816168,-40.5017962115902,-46.662304469832,-7.24192292277394,-57.7804887553874,-36.1972667890184,-13.4378758260342,4.08409978036369,-29.6281433178942,-54.4221483064055,-35.4070141856116,-14.4711575712198,15.7032462758021,-51.3941522832937,-31.8081142260257,-3.92128609766214,1.32745053218049,-9.25221669929743,1.54157297483302,5.57667367448647,15.4275643150123,21.1828588158669,21.3051892203242,26.1118398523561,21.0083557326715,6.80569799292546,6.75934810630271,-13.2950855695666,-4.9259906462536,12.6152528502022,26.3260805552789,2.51225266780916,16.9336707985318,-2.59229736818387,-11.407592691345,2.26035536491995,-0.29585843882806,5.7142662525741,15.3878165011009
-4.58066687883086,-2.96028326005929,-0.610574059866033,5.67456830194533,-17.4077195338586,-6.91153030797255,-3.03538096063928,2.98456417151302,-3.59269718938901,5.61282343723029,-7.64373965436843,5.55787558313803,4.50352822404521,2.63649366714759,-25.4384326475841,-20.3170546557363,-22.9711071232485,3.4473508239919,-14.5026403792199,-15.0851750734904,-11.4566344809415,-18.8962810394024,-31.055192259342,-21.9334978078059,-50.9860521860847,-23.3628951707134,-42.9067348634164,-70.7475865639137,-22.3494961628202,-80.0352483512706,-65.1539928564282,-50.0145100389897,-3.47398356983594,-31.0083331325821,-69.651517770208,-61.7003619821388,-31.9088392376433,9.0854692988889,-62.304151697998,-53.3390848235678,-11.6998449459774,-8.33533060947125,-22.0956481303365,-7.62176288982295,-2.44892390991183,-38.0576079074361,-11.5033439098946,-22.6129063024784,-1.6754721374285,-0.172467320482626,-24.1392738707346,-17.0075485266494,-40.9036576631009,-24.9032051710814,-20.0351214241098,-0.0344308561018002,-17.307934020612,-7.60461127539851,-13.7574141080562,-28.8839772638228,-5.82302047120569,-10.2173985239111,-3.39628192131221,7.03377035875432
-7.8541343104865,-2.24249319693498,6.12643435034024,-1.4015980921459,-19.2784529964417,-4.01148730849658,-4.1258049888252,4.40632629922331,0.148560900318405,11.7297690016765,-9.09956112762558,9.22917181385118,6.39797701785712,-3.24265891752694,-22.6773507913485,-23.1746696742277,-8.9695801150453,0.675279646094221,-21.2000714533732,-12.6075588273842,-18.0841407693177,-15.7003107275246,-35.9179596585849,-25.9502235281907,-56.3969880399756,-37.975230198434,-33.2135424547949,-81.7365922866895,-43.2559056489655,-79.155161011357,-83.3918669228418,-97.1694201776517,-12.8916973541369,-24.4088726301452,-76.0937980326273,-84.6410944143411,-55.7809865346785,-2.54285542133726,-65.0306068356201,-68.5979887504755,-30.3683304446146,-23.7183088966306,-37.1778606011262,-22.4726206853814,-15.7358152212629,-65.0312479729095,-47.2192242189864,-57.5830489516489,-28.4001931528019,-25.319748305979,-45.2597075816129,-37.6498861561897,-50.4719763405932,-38.3488176223565,-42.1503185767297,-16.6033736583658,-39.9175696787839,-31.80661484042,-21.5786518434367,-36.9285360729779,-11.916599450533,-25.411365177873,-10.3360138654308,-9.87153463413088
-13.0129584662331,1.45605797944219,5.28903796090484,-6.9144087249992,-22.5355633880639,-5.56076813672214,-7.5045023916577,2.65848472338712,-1.77968027961245,5.96699414547263,-16.7033637047229,3.94894576664368,3.87721780985432,-14.6637133601515,-18.4904893053373,-23.8233946521187,-4.80727198132041,0.65469459993824,-23.5796637977393,-10.1925040265399,-20.1554298204112,-13.0668004172607,-34.2708941523042,-37.4379493983223,-50.429340251766,-53.4570552151436,-18.6570484538085,-75.1512202618806,-71.1617386037271,-51.7045879299798,-88.6549119123089,-124.734536468316,-13.6766706167246,-12.3662037533131,-58.2145670578839,-88.8383175925274,-62.1904542031498,-12.7113772414565,-48.6480532501664,-63.236806491365,-38.9315828602997,-31.8167020028393,-38.6494806035563,-30.3157610480696,-25.2839466317366,-56.0515732246089,-57.3837162245423,-63.522076766971,-34.5696602869734,-39.6391402610022,-50.1748922111899,-45.6948557431727,-43.7728689096952,-38.8657163069595,-38.8367725077224,-19.9732868097956,-50.7075761386899,-40.3492606105616,-29.4919185774066,-35.9092249663863,-20.9110724823807,-38.6219587217741,-14.9887790996031,-26.3058361668335
-20.4675878595552,-1.65321841439658,-3.18078760919237,-10.1729710594865,-31.5503388476046,-12.7704070608167,-13.3027878592942,-3.16993720581718,-13.2529180824102,-10.8083570975215,-27.2462338515031,-8.11683732506877,-6.77046776169143,-27.153981535046,-20.9157752261766,-30.1482939693163,-10.395634022246,-7.79467697149211,-25.7498987240812,-14.3369572611182,-21.9089932171518,-19.0831248947281,-34.8281270491749,-45.9149693602223,-38.327435281897,-63.8069573521876,-7.099796102889,-63.3469903769504,-93.0595754863877,-17.9861490815356,-89.3792137138306,-106.845983980085,-6.51897211541731,-1.86489761585517,-33.6754587765843,-75.9037405366615,-43.6757955141171,-18.9264349377912,-28.6126065005597,-47.0599125481593,-26.848873816544,-29.1927869561441,-27.4260068105675,-28.694726714352,-25.0973287673996,-40.8329910850175,-49.7791302057995,-55.5552041743477,-27.9208493524903,-45.7127967619644,-49.6411367523258,-48.2527625469737,-42.2267842200109,-36.8585582767759,-31.8520635320694,-23.8761858094126,-47.3508179333176,-41.9275792747117,-41.2649912220778,-40.6496081376815,-33.8215539225281,-45.7357246759771,-24.0150160731273,-39.1912270227922
-33.2416612090127,-18.2110446082082,-13.5304739471877,-16.6486480428566,-40.4597724866284,-19.0236639857172,-21.4214098556386,-11.3754018907507,-25.8357432420463,-22.9061323156298,-35.8670587988677,-14.6713628382084,-21.1260050494906,-38.2456130696389,-33.159603558479,-41.4743564418215,-15.2695352136642,-22.6318710385927,-35.111116642562,-17.9836217879149,-25.5552079672996,-25.0229938739335,-37.7428679183191,-45.0442162878406,-29.9334944504468,-64.8426647246195,-1.49411445352603,-54.0544297413604,-89.9970784476502,9.52011840322096,-81.0682032602438,-63.5874656731875,-3.22089573467711,8.8087244253379,-19.0583717193782,-56.6186265356219,-19.7991148414659,-22.8006202417721,-10.9805393350947,-34.0845042952013,-8.81652388325594,-23.3289258289675,-15.2487112309562,-20.9330812416285,-22.0117416252664,-43.982004199713,-50.2956090260313,-55.2088063850598,-28.7640303903209,-52.1497359466223,-49.8952263891344,-55.1173202275806,-50.4762951846291,-41.6400528156111,-41.1358206550276,-34.430096867759,-38.0642417783831,-46.8768069030926,-48.3588526094835,-47.4790282743081,-39.3973933438843,-44.6733243482797,-31.2746184120324,-46.7969741865632
-32.3960167655254,-24.0300746328074,-12.2832570790382,-11.0912224642397,-31.727576291875,-11.2564382991792,-17.4565580111913,-9.07560996717169,-19.8907126786217,-16.9177429688079,-25.8178400406413,-3.81966685788477,-22.1293731921026,-35.8405233550898,-38.7181014360782,-34.852695085088,-4.29695096358343,-20.5341798129738,-33.0533069081945,-5.10817506905455,-16.361739510645,-16.4197731777076,-27.125495402588,-30.9222686604385,-15.5735896371233,-45.3910815044253,6.25122908871045,-32.778408369065,-55.4477580245377,35.798925740887,-46.2954086234517,-28.800248630172,-1.12350018250981,30.5148923354855,3.22069752943125,-29.2268154691751,-0.411778132975702,-17.4564320253205,24.1139630658491,-15.2538773770849,4.9683269866536,-10.2962812821759,-0.0681439406752427,-3.17293549851466,-16.2657921409814,-50.4475917309165,-56.3042118126316,-54.2689759777073,-31.8073389082653,-51.0520794409163,-43.3089012680842,-55.8552664742215,-47.4223686982741,-39.7201646648288,-47.8342290870855,-38.5037381049992,-23.9515043482175,-40.8577403564689,-38.2333766722535,-37.9341147124855,-25.5962280526794,-28.5406873286399,-21.4699780592156,-37.1552883939408
2.70614550637857,8.95087937370055,14.5016789781989,25.1795991470191,5.55316272385154,20.3663098355803,13.6186348913696,18.7623628541413,16.3568317386945,14.1345401048716,17.1715669698896,26.0164446012057,9.56683044448203,-4.09211128498328,-12.5895927640249,6.43353508072454,30.83266314988,15.129684910971,6.19687053362091,29.5889305369231,21.9739534697903,9.71372064050235,9.80153366286661,9.13130946477892,20.1786414700132,4.98199911579964,28.3578043706578,15.0067544387376,7.15377140414133,71.1094616604936,25.1497915128795,7.47636035917201,26.6984842864651,72.8465945632206,60.4896695065183,23.903718723164,36.2692734989703,17.4011964439274,94.7479056515615,35.4498867959064,35.1425465837492,27.4838303700553,38.2909789171536,38.4423154199444,15.5540956118451,-32.0848340364408,-38.476122771226,-30.3906661655723,-8.51597879948859,-22.1603093498127,-21.0112836540179,-29.7231575272992,-18.413766291863,-10.4163446609213,-22.7177721675862,-13.2619078049726,-0.807068171848775,-5.75244728823683,-9.0980896643477,-5.37428567505128,6.80966519626536,10.1601766113237,9.41278431147891,1.91900206874952
54.1774265660526,63.8390440986146,58.131821766229,75.195460385213,56.2527854004665,63.9577934629215,60.8595726200513,66.2575478622976,64.5731567809526,62.139553148189,73.2069822800625,61.2585327099003,64.1891483895054,47.6242460872639,39.5678294237172,60.9917713726423,76.0996613165029,68.2004434727869,67.3469878248428,73.6125912608208,78.9490031146852,45.8161714367314,63.5957577270597,70.3799596676681,69.1433038096945,72.8125376705087,61.6960780306777,73.5119553806341,87.9244352620781,116.823563494912,117.65415709157,67.7629435028277,87.9620270691347,125.543738592959,143.856159154571,105.115173767668,102.718756090646,80.9635161015889,183.836044101237,120.120743358501,98.4423768557618,88.7436063764582,106.377256484655,103.632290243859,79.8813360779996,4.16867899862748,6.90276054973563,11.2857495803332,40.5243213423396,30.6301643954352,9.47391874675915,18.2653466112648,16.8463956878333,35.1466450562771,24.7906280424615,38.3935965993411,25.8126709411465,44.5652959647781,23.7753511521915,34.1589813620032,43.6454675714808,60.5175217029683,44.6087861250424,53.7288324834297
83.6664014860039,95.1725064629485,87.2393432861317,102.697818576857,89.3799996653807,88.2479068058903,93.2449981732432,102.692049673883,89.9551107956899,98.0124353060667,104.109578666469,80.859126192423,100.563861107508,82.7953973176517,77.8274492074698,89.9698511780092,101.768121658228,104.344771421812,107.438914358405,103.130638204739,118.564012547464,76.4795568851507,103.311455308343,115.18494060722,103.790393105407,122.522573467547,87.2710982306474,106.706933504517,152.246688399997,151.636116204467,185.681332911072,120.957038055635,140.309422866471,152.84901737508,203.548076772225,171.539765536663,162.945231011,132.026301349915,245.49985429166,195.784072437943,160.786572601667,138.457076617247,168.63799772251,156.063051296607,133.335415146532,25.1516554281011,42.6194044266353,39.6755425701353,75.3833001974543,71.9662514632872,29.3356264812507,57.2105077041125,29.5408486498065,61.9166668663,56.6265549308287,76.6958190914616,42.2353277233985,73.9687824064254,39.8444819294195,55.7791101678046,64.9283419887974,92.2488504805935,60.5945910375725,82.5156018379222
75.805240687399,84.3148281761172,80.6893734965837,98.7214499439507,88.7690313906881,77.0630383921176,88.891460884885,101.951540177061,78.7212933992348,96.6514920626197,97.2717692563555,74.6235778298001,93.9691657186937,77.714658980883,75.9057932035068,80.5243096482419,91.1168546652394,100.992862336214,105.564232138128,96.4785244373406,114.423634903621,82.3237931718372,101.054322746552,113.923636952991,103.374857131058,123.496911332107,86.0430405583913,93.6939729767961,149.586684205026,145.400965932986,183.885473655633,113.770443158963,144.917932074633,123.967704317808,197.328096469297,169.970248447598,171.387708080585,136.163644241194,243.454819833665,217.65853026475,171.899626626339,145.417517360433,181.57349181801,160.658502796688,135.4764003849,20.0483894473373,41.7837049638893,38.472984318707,73.9637124601574,77.0147407668202,30.2590581318541,67.4839548929047,20.7407666707225,57.2193564883097,54.2731134291251,74.7438863240732,40.4918065757698,66.5972873822053,35.087631194125,49.7879483020599,60.0834447424264,85.8340750500813,51.5333707338929,75.4072867884938
46.3902174607483,51.3365671059961,50.0274502653021,81.5495527002471,65.260047325467,48.5558034905825,56.4241667873296,72.7300300679297,47.8934237927703,66.3572693429429,70.2484393761991,51.7958766375838,62.2840687461389,50.1071422936772,47.2748603522042,51.4125726986482,56.7276917036021,65.3081680183535,75.9803730418567,56.0643765444373,77.1914245596993,57.9126491746211,63.8513469152988,81.5309072031814,71.8414427142613,77.7636022234872,51.9628430129012,48.4740888536967,76.7327120882317,100.279014071479,118.879892645555,64.1058333532219,120.317597051949,51.9772712459115,139.094445916631,111.755214425703,137.844914503893,109.900559327922,182.743786591607,192.751319040699,137.349557950569,121.42838088369,154.279610399363,132.465487114326,104.281014098254,9.24428172467363,21.8296030545991,23.8105068125345,57.2731174073415,56.5519217494745,20.6152416500815,55.7575571467802,10.03167661878,40.5955545642455,35.3705315819662,50.7323369514933,26.6324213610234,42.1862820345792,22.6614202754723,30.2657447088166,40.9751146732429,56.5747218985338,32.869635299528,52.9176763702107
22.1020058914687,25.7550271224104,23.3081123201409,65.5279284347158,40.1562166650642,27.1786549162146,27.6519865916926,46.099213533155,22.4576409923224,37.4341090427377,46.441778096296,28.5698567837647,36.9213563931404,33.3188518802923,18.7094167372617,26.6301784203853,26.2817353797696,29.8028282485809,48.1999358842358,10.8651837713836,40.7084725636935,24.5992564593286,27.1610505740425,52.7115142681791,34.181823588017,21.2278397053198,-4.53064730920713,9.3130217152854,-5.6149517463318,51.4402474816581,51.7160889414691,39.6560791711209,100.131169147778,-23.2891733118669,86.6356624851191,63.2869163570235,105.872390469989,88.9198819509743,107.926875100848,162.487256500913,99.1468371419507,96.5739569863718,128.536944697343,104.748563549154,79.009089027877,7.68120680813905,9.67262870812367,17.0238359636883,48.0960629383093,36.6334213397553,13.0043414512137,38.05197204028,5.8710826577919,32.3564031652574,23.8562044398344,33.5741283894305,14.2794751365076,25.6404228207165,14.3978102844541,17.5030994733282,25.9270808765092,35.7319677014605,19.6840013090008,37.5055400866058
15.1722534183219,21.5992501031157,13.9477286576153,54.6863259145489,25.7370566897319,17.9974747752062,20.6437984871214,36.7561272308008,13.5885714471034,27.5851689464681,36.5468703460797,15.0882775760331,27.7798503972902,32.7893095501913,5.9766966429041,18.3128466942045,16.966786954781,17.1829018179284,38.354461281304,-12.6376776988979,27.4894421578489,10.0058454259296,14.5854293857271,40.5021994287365,15.3017177329949,-6.89825130901818,-59.253148078537,6.40761556343429,-37.8877471271938,18.03704361898,41.9847952778759,52.4674656280301,79.0809540752946,-81.5463260348145,79.1564819263344,62.7315584669534,82.3222487819057,74.8850154498502,63.1345098523261,144.337425318143,66.2784973862102,70.6785076348602,111.456547908056,75.986193242792,62.9167988578128,11.1643287178927,6.90152446985233,19.195319893377,44.5134537612846,31.4215823031447,13.5743246900099,24.1660926140907,7.61656923776508,34.4362117085779,20.5866294287889,28.1111343994364,11.5619326982738,19.6884561717378,12.0068519212167,16.3250609697914,19.064641060582,33.2282060110904,13.1712541380392,30.0491371636309
19.2907536775772,30.6776331584753,16.5909525731288,52.3523569742907,23.6713217497418,19.9527204380285,26.6943466069884,36.2144522794635,19.7609702488503,32.9705180353785,38.0909539375964,16.6706703401018,27.9385546757704,33.8329280901823,13.9004930184982,26.1172756610357,28.5513209271332,19.8789002971895,41.269450570926,-8.54547879744587,36.898681654918,19.3185197120446,24.3262457460757,39.9324791829562,23.0815307454625,5.9123396420358,-79.4364985945871,36.3696571575761,-8.85209305260957,-7.43607265187884,98.4283392009461,70.5116875882614,45.0073507943049,-111.197464669938,103.084625998114,105.425137010711,51.9250983179437,47.8290439972327,56.0822378381541,125.296207138842,33.539856162836,31.9144204903779,90.0460478008592,37.1449092918115,39.5004787137652,19.5554898527575,8.6951964289719,24.3317277066499,41.5703674400237,35.6708672408638,21.2406700730279,19.1701808055888,16.555641523702,40.7652015312928,17.6115928293118,26.0005086353849,18.3105925274953,18.9314533384734,12.0959359333477,19.5132079971869,17.3676325731721,37.0087161800447,11.6416699058638,24.7300047223253
26.2490423734081,34.0470006723702,21.4091082752648,56.3231350637706,27.9044470264802,29.7873875778333,33.2933347358211,34.9575672342056,32.8856500024366,42.9402680434577,43.127485564959,27.2608830829279,32.4573124251362,33.8382120644821,31.6331179664208,36.105090181602,47.2112197733801,19.1132941464009,44.9358313983928,9.77878726281617,49.5999109898718,36.7063362843765,41.0470110038752,42.9695266264332,42.8039297094171,32.817617651626,-51.1611300599239,64.1796732913724,38.4379910373002,-28.8471207381018,159.409448341784,85.5524658969399,11.0114967902471,-92.6800310065304,112.334435523581,161.540917640989,27.4485486695391,8.94678584154016,60.7597686445528,95.1190224281163,18.3819207190144,-4.45965589814174,73.0937255204027,7.7975233313737,9.68745497333605,34.6870997737664,18.1399498270812,31.1400089932211,42.2412298540778,36.0895792955104,28.8180008762025,23.6717176404402,28.5132297248733,46.8782895090491,17.6610244952221,23.9224446317472,27.6486768153649,22.2008284326418,11.9552374636481,22.8378452728767,17.2935107617395,36.4374580118197,16.3341541776982,22.5109972159118
31.2675359444016,25.4519605557125,21.5939826885917,56.1798195784098,27.6366693625044,34.254482788536,33.9920345417032,31.2964624331623,39.8500981714119,48.401366111975,40.8554267177724,29.2619485329278,34.3015123852472,34.7611988594468,40.2017634671372,32.9575486157899,56.8080353951139,7.43488473486195,40.1166015887737,20.678649563363,44.0921714591991,46.0037238595365,45.2997620248899,34.6135302765463,49.3467084200911,31.7596562043124,-1.33358574655288,57.3868036979586,41.7425278298818,-39.5460881171164,141.331514654254,88.7240323481142,-20.9781468403864,-31.0331475265677,76.007416715735,163.458223825537,17.6344475990753,-26.9423484285123,51.9140207777268,56.5703504256668,16.3109358064118,-26.5058614076484,58.8100681541008,-3.47132170803121,-18.6768534277047,40.3627687658865,26.4083664755098,31.8735018525357,42.7504193582345,27.0145414313719,27.0510452645118,25.8242019359939,31.611322317896,47.2865211242593,18.5982030168238,19.2207228794008,28.4025738367359,20.8234578030575,9.76993642669938,24.7649440291923,12.8317815384198,28.1763529028742,21.2694650561965,21.5003521006467
33.1357907156129,18.5417602597652,20.8122337718573,49.4072787067677,22.3901233276328,30.6381761777939,30.4073163661533,27.345500313037,38.5918386570167,46.0517508908889,30.5802039174175,21.9442086013874,27.8285814485916,32.039179638959,40.9164919508537,24.0557219648403,61.7213331003177,-3.63938084197499,29.4741685151049,23.1694816841208,27.4186673354686,47.455012711165,35.8767063392594,12.9542524346559,40.0155689875755,3.79852547597768,39.0643555112439,27.2125398317894,0.279737395715217,-25.8471455216503,44.8870394903905,59.4664776037964,-65.7269808523212,44.7402464650863,22.2899031356671,71.4432605575651,-2.43595831863009,-57.152676991235,42.0354300774594,20.8043242706317,-6.1922121840046,-50.5234181274845,24.4926428018488,-21.8168896640628,-47.8121324243349,26.2615244683088,20.1879189698237,21.8621542759783,36.8551213420759,14.0195874250038,16.1196713473372,15.2910569174311,23.9339909835858,40.9316159800798,12.293743596636,9.9283886505548,18.3104481944759,9.09861557195584,4.6694218641272,23.8012071684353,3.79042621820658,15.8101891233756,18.1762333100606,18.1023413065362
36.4074971465887,20.2298820215134,27.5130510813731,44.0513624995983,20.9630207881096,30.5753134904731,31.4495764236795,24.1877852542297,39.8703235979642,40.3766159378058,24.473750190633,20.0786604756626,19.8611692288191,25.651529916996,46.5172890708169,25.4381828351699,77.3211733631839,-1.96648612569921,22.4720988603715,33.5898226018054,21.1648184148779,51.9989441680086,33.2167101437046,-1.09577137550809,37.5800722326556,-9.24548876427311,68.9647313228341,9.75920426157677,-26.0597366035744,16.1849583414728,-44.684229313565,12.9604159967719,-113.447205561506,110.641769183533,-0.817135370590191,-48.3565868167567,-48.6943046372287,-84.1050085671796,54.9425796989332,-7.44569119995453,-51.0895253252562,-84.1775082965822,-24.1208831549464,-59.321885012072,-79.3925495112113,8.98976529346924,5.63416590354809,10.8622804651862,24.524684008745,2.90121646963488,2.63720027461682,-0.584918018524826,13.8750613504584,32.219473829454,3.12461920217243,-0.585747454744286,6.01914665807433,-2.82859019051312,-3.24505354709437,18.5385745594226,-4.26491512442762,5.20797514346114,7.77097386250488,12.7900991315535
37.6200819620601,13.8608915799736,33.8502883339967,39.7496429190256,19.0882109840508,31.5980684853596,33.4610711912931,18.9176752374224,41.0926794724258,31.6436040253791,20.5128482931586,19.6350600926555,14.9193021518809,15.7435988446146,49.6698597260106,29.9713308426447,94.1702153698361,2.82304922562056,14.9676347212613,45.3625079819906,19.9886780344715,57.5057132057094,39.9447376710576,-2.74779679574318,48.0592824872839,1.2467027284417,90.6966060581165,11.1393347921188,-16.3951884286657,60.1996533085812,-75.2173823972557,-19.8341965767685,-142.047893230554,145.678967541037,-2.7015692920107,-104.550351070819,-109.443152533971,-108.066157480493,74.460589004748,-36.3841621814566,-92.9971053872879,-114.829012090879,-58.6876391027932,-99.9684562161274,-109.521207820078,-2.7926353978169,-8.6427865558031,-0.969937695284199,3.95490682986049,-10.7203141631547,-16.6816162224969,-15.2141124312411,0.70640754160021,15.9153514343364,-7.75682073421235,-15.7862909612443,-6.40763375710485,-13.2538848239635,-16.2639063344008,3.72841225984704,-15.0565988498027,-9.53630484491685,-7.23961629113887,1.91088756219428
22.4005410357676,-9.61146948812806,23.3299090164627,26.8378398926252,5.20878681118997,19.5243430347045,21.4504377118408,7.48436718363894,30.1733964730684,13.9452933392967,3.34273417731759,7.31594598344716,6.96638252874757,-1.73104397935215,35.4855645620939,21.9702741606911,86.6450713873337,-4.5612501034173,-0.734624724898529,37.7520913099958,7.54325271676475,50.2308590341102,35.6095625116304,-9.71317161419076,51.236546538869,4.47761391397837,94.8299062109182,12.7102243939091,-4.06146463668184,80.0114770915558,-63.9389749466748,-42.4677300546996,-150.864175779383,139.406710453398,-14.866911185435,-92.7522217025348,-165.389137756671,-127.17899605871,72.6603968216355,-55.7214901121923,-125.352444017489,-134.784433578441,-74.0392341938683,-133.803474490463,-132.382169670494,-22.8210632683718,-28.0162626452757,-25.9668734665163,-24.6905274309586,-34.3283980598538,-44.8258258577749,-35.0124196061442,-20.489583735443,-14.388976830468,-31.7551280558748,-42.5177375176319,-24.8787394311652,-34.1304649271515,-34.7428671663508,-21.1288954527856,-37.4206608288293,-35.842380766991,-26.0148819793745,-19.8922041801069
-6.11829631151396,-30.51336356531,-0.188558611907417,5.85934160110801,-14.1105705808571,-2.75871124549938,-2.05221663210001,-8.69882871583632,14.0169986386626,-6.67084903173737,-21.8732099776391,-11.1414797534552,-5.99384976462671,-20.2312611562057,8.997222376331,5.90787362547208,54.898366459297,-20.8987790055566,-16.4316948883945,14.2883911311291,-11.0415232006941,31.0535630127935,17.5151943678769,-25.0204236336486,39.5031661247096,-5.56781668567512,84.6045159851432,8.04623162750519,-5.30974945238648,79.1228531421306,-39.2893382823335,-68.4956041198313,-144.026123653798,107.560751786683,-25.052593756368,-70.3702467716352,-192.385455993823,-130.555341647955,48.1996472047306,-39.2716778203995,-153.929158169464,-140.334301432697,-83.4005156328249,-165.093346219224,-135.390188340398,-48.6953324332898,-51.0421707596373,-55.1383965447844,-50.7704408011014,-61.1619281500315,-64.6830329880764,-59.4835528364191,-40.2370208145691,-41.0623100925166,-60.3512774545263,-69.3362417597036,-44.186286998554,-59.3617682218165,-48.0782126865578,-41.1214849094149,-62.3590523900266,-60.0984123440383,-43.5469371075552,-45.0838253112226
-22.9413123474295,-33.7213526952365,-15.8772045923292,-9.44446523206139,-21.7185045983321,-16.862791042049,-19.5170296132431,-22.305707064404,8.38896414912852,-15.6725996968034,-33.6904473454328,-23.0391679589909,-18.1082783385687,-25.9298937764256,-10.8086540006442,-4.69861331701377,25.5038985743519,-33.6584732008734,-23.5650077323035,-5.7769222033423,-23.3691555592747,15.1303624155756,5.16739895476355,-34.6046315828268,26.222557904626,-9.45339187496209,75.0655301208749,1.47664052361911,-10.3943841438633,70.3434520678762,-20.7221976244697,-89.2945816268184,-117.802738557377,75.5950979975511,-14.1091496554704,-86.5513344752445,-178.028965091624,-109.649115106549,9.17130882300729,-2.68413796597206,-180.401265804933,-125.315033829164,-97.6388025141932,-196.134677125708,-109.598861216907,-55.2029257662194,-59.133903315517,-61.4977926002374,-59.5974931777705,-72.6385399794533,-58.0279876846571,-71.3354454997813,-41.2536031539393,-41.067082708697,-65.1428404483438,-78.1938994059176,-46.0699046476679,-65.8253844191393,-44.0480490539522,-41.1806378854845,-67.5101284913107,-62.6320074477384,-51.2150552232138,-55.8922517870535
-16.9598456277215,-28.7888394173438,-12.6363651960517,-11.2774237143931,-14.842489408549,-16.2158634595284,-23.4312395337467,-27.421618156957,10.6237848082568,-11.7890223086889,-27.2998105208084,-24.7436319784168,-23.6516521898855,-17.0147882384405,-12.7004195592901,-6.47054435604877,13.0649831079698,-36.6499962025691,-23.9497118984059,-12.6277787830504,-25.8060535251987,9.18938792613643,9.53566375900069,-29.9489899526627,20.5642976605954,-2.24553520445136,72.3529841286012,-1.66537091847426,-12.2724934809769,64.3811959302552,-21.6428291640237,-92.1744337997686,-78.2780821533492,59.9513197623305,3.62161321031192,-150.544891714384,-144.213459488451,-71.8847495943838,-26.8250936899503,2.03307073437387,-206.084179615823,-92.1841729678184,-123.946443534386,-215.946833662898,-67.3760700958191,-32.2517617170474,-39.5661745560844,-37.1023932525925,-44.2923320813078,-61.242354962584,-30.4700665767215,-57.6019709836349,-18.2686659020601,-20.5429640142074,-40.011434554299,-67.7035189250385,-23.9062247155327,-48.7441958616876,-24.8588438701113,-23.8324101159449,-47.5181594995502,-45.315165378171,-43.8081697034886,-43.503749011672
0.396946982286147,-20.9629010550041,3.33084492255727,-4.19027702355581,-0.94578910556065,-6.76751834430163,-14.8322953885962,-19.7722379550025,11.8403428928315,-2.44720042661629,-11.9626538782729,-14.7667368101001,-18.6108529423554,0.943229061015027,-0.186806274525544,0.401814278153521,11.1816363799611,-27.1468178296856,-14.3462832332647,-4.05695127865317,-15.2445745070654,8.10331508084901,23.9696489534498,-11.430467800442,23.6598460185522,12.4274059352857,76.2865573194758,5.69428244753717,-1.3448709343574,71.6238811202729,-33.9139976817103,-72.3157973700487,-34.0125996706666,66.8196887644782,6.55763280858246,-201.363698289617,-110.322479575121,-26.0253374648543,-32.1473411733818,-40.3939184700685,-213.387362067797,-47.4289464645836,-151.909544569317,-199.515549081058,-22.5659414157733,6.88085316272952,-2.64518882711407,3.3241307911409,-11.8713376665768,-33.7380293865936,3.33597331763959,-24.8907470293382,19.1560375315402,3.83836799227494,-5.55695743759719,-42.5826121116911,8.13503572870138,-24.4946739457278,0.472707421463547,2.38156730431503,-18.1183015222198,-19.4853805506035,-24.1566489986134,-15.5953164472103
19.3486838014159,-3.89114430197897,19.1518446662527,7.32528666760157,17.0039733759205,9.35452356455247,2.57213963701613,-0.254626791901678,15.8915351923712,10.2985799569041,8.89175238442715,3.04436102250125,-3.08528368944817,23.4099961119304,16.6992540192694,15.6971882597937,14.8142005052422,-7.84748416849923,8.30570349519419,13.684996217022,4.99474570798189,5.42283281535934,35.7189950139145,14.690386262314,30.6155881636512,32.0678162458315,81.0342114891306,15.3407719336707,28.5411958194426,77.7878303560265,-43.3116421929129,-26.5541013387955,20.5886445124231,83.3908598838263,-24.8329205566792,-146.485414323749,-52.599698541296,27.8624575956859,-18.3319920923453,-104.23526824721,-163.050758556233,10.5374733273223,-153.460863602871,-130.89995558193,31.3268978571359,44.9255445985759,32.6046918872521,43.4311105471895,22.6747551372592,1.5289273445591,36.1111230676471,11.6248941135175,54.9518589061252,31.9471832875161,20.5829444365309,-7.22603115344532,34.2656183672751,-1.89441708032439,27.2481385893412,33.1840274645558,8.18308384197832,12.0658184592844,0.292962375456086,14.1989545642241
34.6576423375821,13.1399695192015,25.4271685255759,17.8191909820658,31.5300092636382,24.4228469315383,14.5549342206323,15.047886680119,22.8754069414407,21.72329885847,28.4673198801483,12.4806758740608,9.93500419803341,37.6248740296698,27.9371786708348,29.6666439239455,21.7413599116534,6.49673174477805,29.6282940110347,18.4264833827961,17.4010419324777,-1.36137346605709,36.0781462531507,37.3691689298967,27.1893645050982,45.8968136252044,70.2726206985197,3.92277167149259,60.9310168477918,46.6473885028956,-49.817191177243,39.4289649378395,88.8383725366938,76.5674183419779,-112.619135965046,13.9203094265372,50.3674720035517,88.9917241141506,-41.3244255556357,-179.526945112463,-44.1570166206331,82.0577497243131,-117.959887687237,-29.8299798541409,97.4300457941627,65.7418709470699,57.0512544412827,69.8251061744574,46.1525320455711,31.3307446026029,58.4153313340452,38.0318511153086,73.3959781596755,59.2466649703847,33.5489300919153,21.0440473101048,47.3570388240199,19.9813133752188,47.2145650318741,56.2053322839433,28.9950766728593,38.9497501977093,17.9179457830378,33.2417198335545
35.8199582140265,13.7816385627333,19.789848010845,14.5286074087872,27.7006434938934,23.7038725321685,9.04486190552003,11.276310861143,20.4188068453162,21.2008763656091,30.8129826576117,4.38403186940694,5.29256575347347,31.632301539417,27.1431456001282,29.5123661608727,19.8121420276279,4.54167748675877,33.5817539351139,-3.18782536346769,13.9450082900727,-9.87424432670902,26.3945316909081,49.0428669668459,9.03409091371226,45.8358346764137,37.6892032355181,-27.8068430065514,77.6585590885466,-20.8315344180754,-42.7562881309049,104.726938640358,156.161218213822,28.1871489969792,-234.712348639351,165.293068283436,163.078081631776,150.993141593147,-121.594947480809,-256.01204371279,101.902270804899,156.237067821785,-68.2678853797738,64.3718341379291,158.823499795121,60.0586365109667,66.886717477897,70.7684980792188,50.4423190503893,38.2567206834629,57.8724008995287,45.1406144636473,68.5379482643,66.0726693190315,34.8401878778024,25.0371283174341,45.8884532583709,32.440537452594,48.8648576697531,57.0309420145124,38.9557563248862,43.602715966951,15.2671739357825,31.6121483541872
18.2168708097049,1.78510512467916,5.23752158650437,-6.00162838049313,7.87223511406567,10.3374126707781,-4.98150202717349,-2.84621865204933,5.730516827021,7.64282422052258,14.814692998213,-9.00835927759588,-10.2622510437892,13.3132534814593,16.3266916871176,16.1581718310131,-2.01277128441153,-6.891014735548,24.2912610028706,-31.2610521204966,7.71509923447669,-16.0659858353793,16.8418477155561,50.4270277055533,-4.72617519560214,41.0831662792379,-1.28422123786261,-45.1601424754459,83.756926365952,-64.2436627960597,-3.34354922459563,148.005574870934,202.981325387322,-36.2184056405536,-300.659997539141,197.185432625066,239.040496629413,200.54907467359,-201.569437137664,-279.233565125917,224.482039610932,216.640400993497,-37.2457206898447,136.256172195695,200.011240616615,33.712622732837,55.4121530436247,46.0121153598024,33.5901340912284,20.6517219400186,35.0540338153785,35.0374606291595,47.2803220143885,46.7945242075308,27.7336644905146,11.130334119621,35.2610838770421,24.9983519355224,32.7855826828702,40.9964346863476,31.4258486801645,28.7472427735357,-5.08816338640032,13.5326554083238
-6.7293824282171,-12.2110412608726,-10.8586519890402,-27.4577599754937,-7.96173810887347,-0.547714987317442,-13.4819892889618,-11.6967657717061,-9.97369026559094,-9.54905708221508,-2.05040022407293,-14.6556131540349,-18.9770016744733,-1.93302328643857,4.046471594217,1.63706046404811,-34.7081841944515,-17.3295919467549,15.4991308656564,-43.7622011702007,6.36172894434661,-21.1475503666823,15.4948128379752,46.6909845410769,2.99748866960885,44.0596710441136,-40.0011381551611,-21.8058481380022,86.859641847099,-31.9142435670119,54.9704728781829,155.450787033621,220.09587286027,-88.2873403515263,-236.41819061376,100.393681172152,276.599521366687,220.871166143904,-206.579228597354,-213.926013663545,297.973860148501,246.78532481416,-33.2932146381962,193.340450694693,215.505757437026,0.0012393356247854,23.8101126600334,11.1115496959865,3.42690270789725,-3.0744691811728,6.31945867594165,15.2071000550531,20.615529710866,18.370594176048,14.4797037070677,-5.11536836912854,23.8411583805799,3.92544528766402,12.1672610351429,23.5006135136195,9.14986441462093,10.0737735036829,-24.4676720595651,-4.4273231033433
-27.3552187755133,-29.1569481194868,-22.2558445571687,-38.9679780104939,-16.972745261557,-11.8683267389723,-20.0089726982742,-19.2794268434947,-23.7608935354951,-26.5242280686656,-13.2458348402605,-18.3855723121369,-21.4101204627597,-12.9422656424751,-4.32031769328978,-8.57474924639323,-60.1119124073059,-29.535865859456,8.66076131803507,-51.7973554804965,-0.641548110618778,-35.0569827567694,14.2280866786669,37.7507247039988,17.5610388067575,45.6920615520349,-98.1436473282555,21.2909153174325,73.5880970410992,31.2373662168819,97.3229168046223,102.813427894092,205.607388944276,-161.641976707809,-89.4347370939626,-41.0836326997026,272.497548379489,205.318261458339,-143.652958255128,-115.910603518357,304.840256075089,233.452277186032,-37.4844944000775,221.141683213941,199.235423010388,-30.4778056766176,-10.8315779432915,-15.4816547039365,-22.9253324845355,-19.4484663544658,-12.4146548599548,-9.32123990589107,-3.5326663358414,-3.71378035576481,-2.55707371903771,-21.2126112055792,12.5081139231658,-16.9359533814591,-3.92397808788026,9.62122101581422,-18.1602643582064,-7.36063125849328,-33.780140166093,-17.443046458426
-49.3590461067727,-53.3981044469571,-36.7952245324865,-53.4842742181073,-36.4582708111645,-37.1485277916014,-39.3161073340566,-42.6669075772379,-46.3793838112073,-49.0908237247963,-31.884088958402,-36.2804430279936,-34.7854895160878,-32.0758428688478,-16.2021627476604,-25.3693481105412,-79.1400968099541,-56.5633045158007,-12.1074859816812,-78.6143111295634,-26.9862561108127,-69.0614582642515,-11.1360667551557,8.06572880441157,0.58616084965919,17.3902345982775,-183.551413491165,23.7119691350761,23.3361153553586,3.78858403393719,89.1703102605398,-29.3738885386803,154.341691416048,-298.299350599777,-4.88403939260847,-150.418859431066,189.102379365642,156.641721730714,-113.179833087344,-77.6631592748089,232.211605979635,172.901237709289,-46.1144258023744,187.267245264531,148.4278137739,-54.3974053402515,-34.0221005784161,-30.6151696954346,-36.6277659152219,-34.8377366166702,-22.7687049831114,-32.6962455633152,-24.8619231320547,-22.6476875172227,-21.1718039776865,-41.5343460828451,-5.37153212165488,-33.4049987158316,-20.2859433493843,-5.70436993594885,-43.7913547282887,-25.9309235219994,-42.8823274787272,-36.2050708260758
-82.1624891425164,-83.3237983698257,-66.2534605679687,-82.6639985966386,-69.3517903521328,-71.9330398498955,-74.4000854970286,-84.1412832737138,-80.3170379948146,-78.5900450319048,-64.1709811733031,-71.7532095735199,-65.6507675232797,-65.0051980037985,-43.3447707317687,-60.5187291920661,-104.844235514503,-101.419341504607,-56.8890973233695,-121.829313667469,-71.9229049758315,-115.46311865524,-67.9374851810124,-50.9140220765324,-60.7176537766351,-49.2095433056395,-257.888004616403,-48.583623717488,-57.1679601671731,-151.810825534622,-9.62619223577551,-181.255552272783,68.4110770164451,-421.172389713364,-65.7656706997192,-216.509622488932,38.6675912807267,81.0533475583378,-171.821418669956,-128.758149377858,116.198963202672,80.3245177052351,-71.3766535960304,105.351780247127,74.1844978925252,-70.3188614387569,-45.823783157728,-44.2875821840638,-46.7466427776597,-53.8692318539949,-38.1503231598288,-49.5350764457717,-48.0364768907173,-48.3859201945994,-40.6164011128518,-63.3703751121339,-31.6007101405738,-48.1156845255559,-42.7102218767387,-28.0849578882644,-67.45377101809,-46.0062324221211,-63.6089221450924,-63.6455273790592
-106.909235112984,-104.072516353485,-95.0382971516811,-108.125879824794,-90.6612293622349,-92.0322890079657,-101.415367567872,-115.153482178403,-103.779480895718,-96.3537675343131,-88.0170337729563,-99.4839519828277,-90.464214035968,-90.3280495286149,-71.9624205094435,-93.6555644943566,-122.313415887936,-133.939331509333,-96.6623669117073,-147.659862871084,-105.635963749116,-138.057679092257,-114.373817071,-101.079206484791,-116.044971105336,-109.084857319452,-263.514128868607,-139.220039060643,-115.478285842859,-301.93280725673,-179.251266158159,-221.753926847436,-10.9510992006433,-391.616011523318,-181.895950728795,-223.30219847573,-67.537498828917,10.1115086131387,-231.324426257066,-196.750849139909,42.1536414221128,2.70216823324814,-76.1270089772829,48.9634619997206,9.7968677045057,-62.7064731333689,-37.3671645750611,-48.9389723588342,-50.0102448226921,-56.585938080619,-51.9928727717816,-50.2337494213326,-62.3628696217484,-65.8416242897465,-49.2555790154013,-68.308659275892,-48.8760435154246,-53.531284159519,-55.8253033243621,-45.4225068205311,-79.9379372613605,-55.7740992510071,-84.0339680640153,-81.3057713969067
-98.988686251594,-101.081086596047,-99.3745605851882,-108.720761008912,-84.1908320490237,-86.0263606816153,-98.4869779381153,-110.363887206775,-100.132628163271,-87.4678682280965,-82.7157842892911,-94.8322997949488,-86.8986979823647,-87.1472522483636,-73.4622662494548,-92.7682669325947,-105.636831612148,-124.171815311449,-95.2703291603233,-131.654431833487,-99.8340860881525,-114.826020195433,-108.616252574428,-99.5877589645469,-109.85950798561,-114.143030803929,-190.124740154892,-161.046413902784,-108.280144707087,-306.602801220991,-296.919095062374,-120.965024423197,-33.9472414372654,-216.944260628828,-207.239596228498,-144.507818533016,-53.6185734607976,-17.0268508227897,-190.43013269035,-185.626679295228,42.5488518224994,-17.1205392300078,-10.8609787750143,59.5370683396421,-13.6136886060395,-24.0317139573962,0.926456101325576,-28.5597348265613,-30.6316718950224,-30.0412238327781,-43.8408980862194,-30.0761827752194,-51.7589671111867,-52.223280667947,-34.0806763371053,-45.4477684374773,-40.5321940729257,-41.2122101601778,-43.9769697165648,-40.134698695662,-70.0214524866794,-42.9556379332091,-82.2687138557925,-75.6003188953337
-79.8754104205017,-88.9785490373661,-91.154538860778,-100.420829804636,-73.9239097444518,-75.9022077917504,-83.4638794828443,-92.9598412456307,-88.1059367201843,-74.2333825145634,-68.9867873563142,-74.9369859595433,-72.9546418292732,-75.5025827946034,-54.7634535988582,-71.5300656753519,-73.1830252879269,-95.3253734883112,-72.619977290595,-95.2303276944347,-75.2003475444602,-73.4654659808561,-77.5270199431923,-71.683993902597,-62.431621113835,-84.4805792695296,-95.4407291129823,-116.510172860899,-67.004716451921,-197.425480466536,-275.827883651486,-11.4845135044179,-21.9760237326049,-48.2372434634981,-129.709104608668,-34.0592561926531,3.66678448543228,-18.6083987206496,-88.0778167881011,-100.476243623393,51.929386863098,-6.60328223814227,74.9955312961617,82.728683742276,-15.2762096126721,2.6661030014984,30.9535369953792,-11.2270014575493,-12.4225367558843,-11.1718901664928,-31.3201931819427,-18.6642919054621,-38.0839308804731,-32.1117827155384,-19.9214766767173,-29.0364520156401,-28.3514364994442,-32.6686330846833,-31.7172364230911,-32.3107008137203,-60.7344329782735,-32.0282125328352,-73.1772022344349,-68.5765965517368
-83.1508776842939,-92.2048698432873,-91.7457476293307,-106.51306859909,-84.9310014792713,-79.3558465507795,-81.7845931920371,-98.4245930957632,-86.0426983911638,-80.9101398729765,-75.049885302137,-66.2142206712047,-70.4638463983148,-80.6244083292634,-44.9351099227485,-64.1399164872746,-57.6552742381908,-81.898584467166,-67.3414036146981,-69.1043107373335,-65.9706909314399,-43.6531615474104,-64.8764175866519,-63.0022158637659,-26.6544959688095,-62.335875525249,-32.4388491761216,-70.4701115917314,-41.1548288111972,-94.5337315836187,-169.944356893856,12.1575660417919,-33.6987979129454,30.2674696967792,-43.0447238223934,27.3544172788832,5.29373239075424,-41.0451171900813,-18.4919129092611,-20.6340433455078,18.9712248056287,-23.0583777115875,95.6944719656511,57.4863707164714,-37.340088653457,-39.9531447819715,-3.76515251231731,-46.6913525898186,-45.1562508900812,-46.772880777742,-60.5756096155372,-54.4561333589342,-62.9015814906683,-53.8285245863109,-49.8756406493227,-62.0092396158191,-48.590816511987,-60.3066979048845,-53.5563090752845,-58.1067185523396,-86.0241789066397,-63.2172680790473,-89.7403130007598,-89.3921631779404
-101.823768578515,-110.700881383557,-97.5432962648462,-120.2394229187,-105.863154474276,-83.4177662652975,-87.6416574912444,-120.942708889194,-84.8496603667876,-96.1879410159539,-93.7149426040653,-65.788879817382,-71.7443959371854,-92.4079443831457,-46.8633742870819,-70.8243128557575,-53.3245135937786,-76.5593468478664,-75.1424785431037,-55.1008979322291,-70.6369098380242,-23.1585191020934,-61.0368047261914,-68.6798491727894,-12.7238585236951,-47.4999925190288,1.3499119052074,-45.4626545300822,-28.0880026102641,-44.789460782495,-71.3921624237031,-5.72884202243888,-71.7164043186145,55.6229415839412,2.18971619405539,39.2303909344392,-31.4603496617391,-82.277901082377,-0.0588753437038312,16.8657082329249,-31.615037652919,-66.2440139798379,54.8585493886234,-3.60930499971001,-81.8480266346573,-150.082919913206,-99.9629687247009,-138.750036344727,-134.483409491934,-129.928998044561,-139.880192739048,-131.644816731728,-127.751856050812,-122.171879929326,-124.052316406833,-135.112600501602,-102.110997096011,-121.428330033398,-101.094188118188,-112.692844855716,-137.728553309747,-132.288399252525,-129.104522622847,-134.511947916568
-107.977147489519,-122.262410321104,-94.7305929610923,-121.198905908406,-110.8327962156,-72.2780568805067,-82.2844504776425,-130.380607214611,-71.6534631289429,-96.0329860507905,-101.054049937296,-59.3831109269901,-63.4814325357884,-88.1909618341679,-40.7523881250455,-69.1720007883094,-37.6360632714127,-58.4466768676954,-71.7784581475963,-39.3606060124237,-68.0129385736962,-3.9758802801643,-39.8303451871719,-61.9920668282122,-0.19978306333399,-26.2340240981917,28.9422900075814,-20.5876996197919,-7.51595070342668,-15.918324246943,-2.65156348773513,-6.56847704995417,-96.2157090566112,74.1802270324447,28.7208946705843,46.0801371379321,-46.3643193284328,-107.956916486256,4.29408836853503,33.250284783576,-63.6690472795798,-96.0384082166741,6.43304083887806,-60.4318306464196,-114.754914273381,-256.483275532709,-194.188962072272,-233.784263989118,-225.46446260376,-207.777340891667,-216.018343103353,-200.363827562627,-183.460044222902,-187.767535438192,-191.524508958754,-196.104812375174,-148.857544637331,-175.397372881807,-132.361957887197,-152.857519093889,-174.122869729482,-187.918720230589,-155.009083617913,-170.018589583353
-91.2498020033205,-110.180996922525,-79.0211056884256,-106.850240181523,-95.9438177198647,-52.6219169418472,-65.0765036069841,-115.076400056239,-50.2266249218428,-76.939899582001,-90.0089548102218,-44.8420245310777,-44.6677936649805,-68.2157273589866,-21.6615988589533,-51.9543781112312,-11.2732672959853,-30.8406991200633,-53.8154971886371,-16.1837471714193,-51.5030805019973,13.1342515167172,-11.9046683864748,-39.7240038155572,21.3230995711443,-2.59330505457042,57.3168857965337,13.3931735928339,18.0604832335921,20.7161989624353,49.8905073386121,14.448347000642,-93.7780093654756,92.2600527746559,63.7494742583525,64.6611285318247,-33.2604954267147,-107.756673740112,16.6216428669135,53.5453806350408,-71.7464984771062,-99.9483314417222,-26.8048911205544,-95.39803227685,-114.329911042894,-279.097388913447,-230.498885094788,-262.625154571684,-257.197690789238,-235.758461868852,-226.066524469438,-214.965631926668,-181.471582617841,-197.37985829233,-203.756473779652,-205.251986915428,-146.911771547746,-186.672717424064,-122.180035951453,-146.293123883278,-168.4197831401,-190.840985547933,-141.657924189164,-167.109962500691
-70.2911612133,-89.699909647302,-64.1755833635427,-97.925721781536,-85.1165230540554,-46.499902390261,-57.9395321906859,-96.7826009482183,-41.3757517482328,-62.4524213892101,-78.228103191167,-36.9328621187659,-31.3099784300268,-59.2124918693829,-14.2269701209604,-41.4007413628379,0.0100857935369063,-19.9375885892522,-43.593391899573,-3.57462646626639,-41.4560337052721,19.0171832629162,-9.62612623525204,-24.3723403599678,35.9919069355338,8.53094779046863,74.0815940513567,36.038917350201,28.6371999312151,49.5703283221002,73.1862307958618,35.8396534373811,-92.5773167732639,93.2249610719121,90.3213083270774,73.0213026069355,-30.7012343133744,-107.023800949828,19.6219811480637,69.6664347852888,-78.8852642821682,-105.285817275272,-51.9005284746915,-116.743030054279,-106.203153952911,-207.521809393199,-205.288378702869,-207.912654639669,-223.026332369007,-213.423645670628,-168.757970751407,-178.403898610941,-130.977978917496,-153.996709568517,-166.08520502169,-172.771798212799,-102.789620861277,-162.010182481493,-89.7350533935742,-107.483741195077,-134.082343626557,-159.013770070619,-104.255121038435,-138.752392271185
-58.9647734383913,-77.266122857347,-57.7537572924359,-97.5252367971509,-84.4730268661534,-53.8990768938424,-67.4806767760666,-93.4154159128657,-50.4643558454817,-64.2084199500223,-73.2064489749859,-39.9301269036259,-35.631924456475,-66.3992263907527,-27.9318514047466,-50.4221566557357,-12.6063793607984,-32.7598791806101,-52.3174774029512,-12.668663252804,-48.3200717118964,9.82702291708286,-31.4406328390858,-30.122941058199,29.2237664752331,1.09303603986016,71.5653416498857,32.1312365602162,14.4505320947573,50.6394146231606,56.7671850877573,36.4517682390346,-112.037165495754,69.9686051092382,81.6490737517272,52.3285960368752,-60.2418628595991,-122.483181593723,-3.37821615219595,61.1287145408439,-104.766737549318,-126.716205411568,-70.7520825216556,-132.177780474394,-121.682744999089,-97.3524320332051,-138.597737061808,-114.982861965999,-152.81686771226,-159.075407401434,-90.3733040591624,-119.568838810153,-73.988746278935,-96.6835939473656,-109.715889675289,-124.504796371549,-55.2524955070196,-122.124086870544,-62.2305080538058,-70.0521177236895,-94.1645975147945,-125.126036946546,-70.0255438205956,-110.033837022394
-52.1550312144608,-65.2776551848217,-52.4995396951253,-88.749192001697,-75.7129292644857,-56.9972900151304,-75.6605314788335,-95.1681280095719,-58.6607626446203,-67.4032589769962,-64.0109911044474,-42.9340761553272,-47.6140055880828,-65.505928004415,-41.0287457871608,-62.2890556598338,-29.8101051631832,-47.3695066112597,-64.0482895259721,-26.2962512146966,-57.3384125456046,-7.37165559483999,-48.1638644481018,-46.5270570736056,12.0293874560405,-17.37759453301,55.5449124233383,15.4092414117471,-13.5089440765167,33.7863967056557,24.8298039340507,13.8137700195194,-136.263793917283,38.6443990042727,49.2674934221894,15.6971614852017,-100.929619995066,-138.094245849013,-34.0773225951648,32.9350839539167,-136.415019891939,-144.010804259376,-75.6849664114249,-133.297760947597,-142.740949099776,-8.78304461463961,-52.1818708541757,-37.836214526209,-75.1069099693121,-88.5222601065928,-30.7412774985606,-60.9083772295083,-37.0754790311611,-50.4752939430902,-54.9565536246788,-72.1985735569825,-29.0636586481699,-77.3967749226635,-47.2087056137945,-49.5034519703655,-60.444498206881,-93.2473390493901,-47.9294055081297,-83.3136079388021
-53.533285686648,-56.4533062332795,-54.6031275456786,-81.4303039285255,-66.024503898869,-60.1096091596159,-77.8550362536323,-94.7274250608273,-61.1504476673012,-69.7473998776708,-57.826426994546,-48.1226770230056,-59.4435011221452,-59.1128397378765,-47.9997360379125,-70.7630232368219,-42.2985354905832,-57.1038799864019,-71.7714571877506,-34.9876847075724,-68.7800553594999,-27.5154568919716,-56.8907131501368,-65.2092378312172,-3.38837136450574,-41.3696225324844,29.7193334839127,-0.106410878079633,-44.0095769441293,14.4274486124067,-3.58748055565919,-22.1007310663833,-153.406438327326,15.9958497931187,18.8798619467287,-23.5142344945144,-134.053126828121,-146.930989999383,-51.6136417566401,-0.726599612764233,-160.282237538184,-150.89900220192,-76.8862723081932,-128.83743128659,-146.300731723655,19.4053718840113,6.68120892772656,-9.86080474694261,-28.1131967951692,-36.7590741153522,-17.5733634599274,-31.115062942978,-35.6707946183494,-34.4171574228139,-30.2691177356872,-41.0229869249314,-31.9945666287103,-49.9195260158502,-50.4209470014276,-50.8236337248687,-48.8847335822653,-71.273217585373,-43.579199125835,-65.7056512070612
-65.2344061573336,-63.669576479445,-68.0944452681253,-92.8239328109017,-74.8125754411095,-69.777772058959,-80.0293928275455,-95.2914054337062,-65.6557413009484,-79.6567859479102,-68.5363961283445,-55.6040895645576,-73.8485426534823,-68.0409862655268,-57.3087950128427,-83.574791710806,-52.1473564471422,-69.3140262253931,-83.6389325147651,-43.096527316335,-89.9213804947379,-43.9986614998975,-70.3013263883853,-87.9909101596652,-18.2594448834799,-67.2441835810934,4.59841665527169,-16.2136404081522,-71.0449060819977,-0.600404343549561,-30.2955055761068,-69.455733705812,-176.717822685365,9.33536519823159,-3.36744214365364,-68.8973119715461,-173.800999614217,-168.730697318067,-56.6254007106857,-41.1324726932356,-189.412316702908,-172.58505039926,-101.318467466454,-151.026034448145,-155.857813002389,-22.7551778094997,-10.41995624162,-44.7900284481746,-49.1608398757274,-44.757960872168,-59.802786621297,-53.4458037280086,-71.0842997613173,-63.1380663247744,-58.3834300834826,-58.6523338951668,-59.2930163456283,-63.5003645811936,-74.9259126887303,-75.1698733465009,-69.9493570203389,-82.030012030563,-59.4110957885508,-76.24941716706
-78.9925921738028,-86.2685253961448,-81.1206370758793,-113.921239990912,-98.064896453843,-77.0369328029744,-83.0468129487236,-99.2380205124867,-71.6393349134842,-92.9873149250134,-93.6305376349969,-56.4511659467385,-89.5433522564321,-90.5076574257381,-65.4923324850804,-99.0533565451025,-58.6562257675048,-81.7766100586094,-102.890178807768,-52.2892200167173,-108.59130617071,-53.0574363988891,-88.0414361630256,-114.581566269157,-36.2475051744912,-91.4781279484373,-4.86889397016262,-38.7428588087495,-92.0519130445468,-9.23671331546493,-57.4610514540811,-134.292445658262,-218.925663658338,15.294125964159,-26.1923743618294,-119.053146081762,-233.819510365543,-214.134334707201,-56.481927577115,-88.0423253351776,-233.244375761941,-222.087639167739,-152.821076769524,-206.739011985943,-199.750759019815,-121.386241294099,-100.182619021119,-139.094634369195,-138.441609848421,-119.405134369796,-142.716412094972,-124.0016381741,-132.123836840554,-132.03054776303,-129.660794147679,-121.83377505454,-105.651509825388,-120.516338998706,-116.669690746527,-121.290100590983,-120.062334098257,-133.006157667311,-91.6387791980913,-121.116328338231
-92.9946249790037,-113.147379736994,-89.4494904286177,-128.83051754003,-121.242886963111,-80.469152681456,-89.3614727814387,-107.805026877144,-76.4733567933726,-102.53159761496,-121.821585348696,-54.6346400136496,-100.548626349741,-111.767502809241,-70.2014764708407,-112.693119365187,-64.0541290419958,-90.0501605167428,-122.773053183276,-61.9416358418341,-117.734504660819,-60.0462324126503,-104.921471371915,-140.263132696212,-58.1764137764599,-115.4200462247,-2.44121739514856,-69.1878774762559,-115.130580766005,-15.4509421918888,-90.2272204158142,-205.694087024984,-267.545605864411,21.6075449274079,-60.2126066636033,-169.618782182229,-292.898797811335,-266.444073125508,-58.2177358516706,-125.389555814082,-276.356670206679,-276.365407294927,-203.133855290774,-262.908657412486,-261.892563748322,-256.606511646583,-216.343200018019,-265.956835339273,-255.921328236669,-224.290332510815,-245.137629078162,-218.216770075201,-208.081356794828,-219.353716680337,-216.908097898596,-202.942405703292,-168.99009692583,-197.570338212394,-166.885918841949,-180.912233650401,-184.00778911095,-201.988886080212,-134.045198855319,-180.378272410354
-92.0290181030823,-116.424824929855,-83.8304418221377,-121.370930910369,-122.266696034138,-73.458976367215,-87.5110669406378,-104.423811518893,-69.6437449240514,-96.2927380267322,-125.848690934633,-48.9327285845968,-93.9132609429076,-110.58091979153,-65.2887376460455,-111.35637792487,-61.3273838268059,-84.3071304056105,-122.586166062463,-58.9867379329855,-116.205929038947,-58.9613167199491,-107.823635055584,-149.698769216282,-74.4927407933669,-130.164707328277,2.48506831467993,-95.473908760944,-142.031836176854,-14.5138710158049,-132.735182401485,-249.714536303278,-291.10846744941,27.0619471059094,-96.6145585982765,-221.485192720491,-313.861138647481,-296.507949051718,-65.5009287195866,-136.430186265301,-298.212326164286,-301.378079900624,-229.870797476781,-288.825816024297,-301.623415785554,-381.337284600317,-303.135920829719,-362.987505674086,-337.64132182712,-294.944834336228,-321.516595672836,-282.835870249471,-258.388001120652,-275.703964365298,-272.765972520195,-253.177433266892,-212.144841380182,-239.028974123095,-191.272825913365,-214.399594390857,-216.632520196608,-237.656771881953,-154.315295088642,-206.126893938246
-41.4875242679466,-62.3094749319508,-36.7973647056128,-70.9453711528966,-70.8384059783347,-34.6387779218813,-47.5770127167473,-56.1982490068361,-30.0712354911968,-51.191684737706,-73.3544172252195,-19.570900508001,-51.5500570362977,-61.7699786257095,-30.3001470120529,-67.449173244796,-30.6761752328641,-46.5250344794948,-79.0334264230093,-23.0418092392969,-80.1001164569316,-30.3667036127895,-74.1042504953568,-115.514679178776,-61.0531889136319,-106.668709643335,19.4095488972993,-88.9251005662908,-140.148804840063,15.8960181022812,-153.412427100767,-233.550462070967,-261.477984630035,45.257341572951,-94.1207474945983,-248.421351447874,-275.847832477963,-272.752422055512,-62.1198729176603,-108.939734181759,-279.405077700793,-271.434323884213,-218.826531920501,-272.050797799541,-282.531572596648,-388.233715842859,-295.140185553355,-339.571699121053,-310.267909831689,-263.631612632487,-286.512534079003,-241.469741172653,-210.632456052144,-230.490213306716,-228.46059658734,-208.477681969985,-166.894447594721,-184.91741593899,-139.155467238153,-165.409883787381,-160.052272948719,-184.090459852181,-102.716968169429,-150.592112351287
50.4254887979262,35.909589396712,47.6152987535187,14.6365634451035,25.3587057785519,24.8549611421979,27.4050897449846,32.9377279777369,34.3068113978109,28.9729989647692,21.1717429007431,28.872851132958,17.9087362239993,24.255709645497,30.7114956153135,13.7162491870593,19.2968915127121,17.7467342476194,-2.72153445693604,36.0917082987131,-2.25328065431288,20.6010075516317,-9.10054490895923,-35.3043851384694,-11.5210761599937,-35.83877288127,51.2438796406947,-35.5308785376912,-77.1508426181877,76.1249588208152,-102.452487646574,-154.332726036423,-174.252529520366,73.2400945804008,-28.3791525416612,-203.057884767359,-187.815408388234,-180.790952307575,-26.4411844420224,-37.7352662458662,-205.95280240479,-179.61364210982,-148.938110783103,-205.994336012207,-190.24617668746,-192.286125122367,-148.830328425825,-147.708491499424,-141.585735473658,-106.65003212867,-101.465403561522,-72.4390941727133,-50.7547361914293,-66.4089050696336,-64.8636140988076,-53.1019107671325,-22.1780146717269,-35.3627847501605,-12.1641657261992,-31.6766910225629,-14.6117740292837,-39.5265411162065,17.4027671135469,-19.8550846184545
123.038697264692,122.641112035702,116.068225238073,91.946549748432,111.418181215821,60.6658853657803,88.3341457081817,112.598580203974,80.8385169765729,100.419833451544,101.441342266944,58.4201678796517,74.5057681713339,97.8981396019608,75.840207555149,79.6394323653582,46.4148934655537,71.540825106144,62.5744910267288,77.8973995262423,67.4522003394946,55.666294049685,45.2499638814535,46.5401607535002,38.8823701296448,40.1299514671568,70.4831301275784,33.3184902993647,18.2332623204134,119.515084023622,8.47248083333164,-51.8290323397373,-58.135974337816,83.0191098651077,60.4620868678739,-90.7807968588221,-87.6310762143131,-54.5529896341488,25.6185541945135,56.455834397953,-99.5536697854592,-59.8546819323053,-30.181421538279,-107.044511062843,-58.3376454220517,130.634712656063,88.0043058263608,134.851967173554,104.711754700566,116.855043620935,147.239053380761,146.836137103903,139.915130331532,138.173257127033,141.972268548989,142.567272177487,147.246707039942,142.756338065699,122.422285129522,121.461155950177,150.709863146238,130.375420994072,141.468501513957,125.732535671427
151.688033009035,175.34331168189,140.37149409435,138.172531388964,158.856899235261,65.1257097417938,113.300927232229,156.232378845782,95.395777122106,137.900812723909,144.400634609987,59.4392618082804,101.468337762187,134.657758661743,85.1600718795755,103.25431086053,38.3105461869117,94.5174970039499,95.4532935982194,82.7675622751649,89.9232054636727,54.156216590447,66.1328070150245,92.0182663855229,56.7333118206108,78.2775248130245,60.1090555549557,72.3712232519276,85.1596058601212,109.969215606536,106.561055976914,25.8435323381505,45.6721928603112,64.2225588689244,116.571491517142,21.7217147547014,-9.35313732679923,47.117396205302,55.0131075552268,136.389626156561,-6.69512326339246,34.9477564923138,85.092276127677,-18.8837555684125,52.2446096913037,397.795905189752,305.242696463134,363.68871111225,317.208539486639,310.079847067738,339.528031492912,323.961838801838,285.077118198616,295.825939584387,302.838791038597,298.520946962719,273.12998338903,284.617877945673,216.545227548546,239.533043307078,277.634234068864,264.158405640371,228.887341656088,238.403547521356
165.90963130154,210.320211753959,148.303564391906,167.079468012941,186.60059264137,66.5813634720148,128.391751336732,181.500618127163,101.365700081845,155.627243642083,170.118034715834,58.4887205132261,116.323884031901,152.596954794408,80.6763955926081,107.257614600946,25.4330019545649,100.144266118243,111.576777333793,68.6051721044341,88.1991586748528,35.5608687887863,68.747856463029,108.542244175244,49.909661191388,82.5901462140838,38.7622885992595,73.9087187666705,101.473687213569,71.7150420057364,145.821363673126,67.4061545025974,113.800164632964,41.0125480318782,134.47984577695,83.5671694537121,49.0627732498748,101.865515326357,57.5785714817818,181.421950496302,51.5331169654448,89.3495320376817,159.511889894918,33.1391186187979,114.090324089713,525.984570665595,443.731098914105,481.297460080348,443.63383343923,428.610767764295,444.907313019387,432.011624582758,377.43806714895,391.379576646539,397.767186934035,395.824522098439,348.467908457111,370.113136147417,277.232213787943,315.073719623898,356.456692332151,349.343800142135,287.47087142078,312.225143394893
181.234256336841,232.318720440874,164.391649199175,186.548496955797,207.550497106953,75.0062696804065,150.174913869681,200.772338447451,108.323832165736,167.452741793344,188.674159768083,65.0675450211986,128.118538833072,165.258250023737,81.8305843731163,112.339906186975,29.7649127494854,103.720170356727,126.021378111328,62.1320946366904,95.639804284506,28.1228389243328,72.5826720070234,119.682052174779,46.5401012062852,79.8104873915581,29.0824074625659,68.4430894330356,92.4800114344604,54.5249703701932,144.819062434875,92.8040970590156,151.744140977902,41.2821393625855,149.644951981232,104.840022608787,107.503847703222,134.912425717375,69.5152389171794,200.116536545678,92.4394589459048,129.315263842553,202.003216178888,71.6545842753021,149.724381360423,576.958501007708,519.978999666892,533.884577094992,506.28013812914,491.985257997028,496.472215733917,485.713473945638,427.009480226153,442.29827314697,447.67436170212,447.250650755928,386.102673221381,409.507594291545,313.202994241304,351.494338930452,394.761561717321,394.863405663225,320.089906079572,353.774118451751
183.251181734788,232.727299844148,178.410247748973,188.008092209627,211.368551456401,82.9973023713879,165.480850177798,203.425103518507,107.432125635733,169.471917106426,190.512489621952,68.4885640447564,129.882981529587,164.523599904014,87.956488956858,116.115531510325,46.5313740239497,106.684171565732,136.478641365341,73.3714817155863,109.773480041791,40.8438494406429,82.248043544645,130.260033227713,55.4014478489096,80.9086535774084,33.9285136574162,76.205515465887,88.0209275029029,69.1607440507849,136.709627748214,117.081555812482,170.959219738519,67.4132761057683,175.14926235152,123.69877084243,158.557563148121,163.894378074882,108.497274312025,203.129082644051,135.289487597455,164.669116502449,228.507926879723,119.490954804337,176.141205283877,590.785655192183,541.585168151085,542.637551371873,517.610824979273,508.993429193825,495.988045888433,486.491922163614,419.400044164376,438.259958624442,449.953619677264,448.023065753996,381.426968400879,408.407703753015,308.096766944101,343.308130745919,391.550045933426,397.420326632786,311.98774960823,358.356082654976
167.185879002078,212.966797819021,176.193848822826,175.20098626798,195.535385403281,90.5090196614916,162.877446893897,188.234060534466,103.043952059901,160.125863919556,176.184764976667,71.5550192180081,123.901730297014,148.556023163934,97.9503636343224,118.343297263622,69.0553268212109,110.116044356379,140.270554098761,94.7889023374911,116.263369562258,63.9171709848011,91.3950806891384,131.163760542424,66.1678680539956,83.3753701613135,47.6640738339556,86.2027139858841,94.1092288210494,87.0955022910677,126.472245096398,140.273827556457,166.927738023026,98.7364200481322,180.823396593623,161.034314503364,174.582196595508,169.68872512548,151.213038679647,183.881989803504,173.929204658532,170.629181851259,235.608538980733,157.699013688382,173.96990980511,519.478373070928,483.7576849364,470.730989074839,454.641306970363,457.801890227034,417.050498173747,424.522326757378,347.71614456667,365.885210202002,387.576107955784,389.181625950078,326.098332156268,357.679541271916,257.697677597091,292.684279810037,342.665076514138,350.438567510475,265.523163077492,319.897634216932
159.212085840232,196.206942315434,174.235723082476,176.451002574294,187.747307325761,110.31542011309,162.944980055687,185.043385952806,120.585672880268,160.65120557676,172.715549971192,95.8552417491945,133.246871911267,142.338482552433,123.202467393162,138.567666904333,109.001304666275,130.70999672758,153.557117481259,128.101295431055,129.402942214526,95.8237355335605,103.860126309128,132.884679525386,83.0420016824793,98.9443749777124,75.5461875374993,98.1369074535942,111.066415855361,100.81102246047,121.087628761225,165.879433327845,146.864060144761,124.968135848189,158.138851533542,220.004076129065,166.941547923029,146.662948339967,182.264043601113,158.512655789382,199.76038192222,147.018859541861,230.241675126615,171.509013661126,143.709697843222,366.460586273177,363.172461009462,331.663204578524,334.993773953261,355.846420842763,290.243786393857,326.369362997686,254.185090929352,264.182381038587,291.131862673085,302.31921787407,244.773561988744,276.624823552875,199.938059760967,230.305422440531,271.980686285528,282.202500159751,217.337502161505,260.770604737919
176.991338361097,203.508213909396,194.761774595803,204.111701577333,207.313907551684,144.73191690633,187.023839505033,208.088281828203,165.807839332102,184.478136301777,195.304461427767,142.214578185439,167.289140309572,160.853726161364,160.188301801014,177.066858176919,166.950792263345,170.062857484587,181.215611720685,172.221917081797,162.913123339366,135.478067916067,125.205185895447,150.388377290663,105.722300308515,131.657140942459,105.514046217899,121.425162158594,135.694045872779,115.889006728123,138.528623922965,188.751073737008,129.667993417677,134.674860267648,137.638266603102,278.497594997134,167.813479635146,119.112446349847,198.183291291804,165.410631058133,212.201377427982,124.153997792407,223.034191333263,170.468448624369,117.001339846043,224.53323369303,238.209655391573,204.15477594174,221.157541227492,258.252696486083,192.865121046868,241.752137755449,195.611376606221,194.090114450096,217.741134585677,234.425266150682,185.175489712719,212.553134863243,173.410250847855,192.385510332979,223.495399154971,234.416199444326,199.564329363109,218.169495799885
199.474353541462,221.029291565609,221.449198820943,230.065303283865,230.291596805869,169.968253970096,212.532788989847,225.157338905239,202.126793093515,206.967032999311,213.74763001193,174.315141838578,195.842203370172,178.62400413233,178.340644184281,196.067752664875,206.708661029094,189.999731197852,193.206123115283,198.308084829673,188.025386842607,153.083511032895,138.090956736127,164.177170846401,106.664184742733,150.654916497531,93.2395735548984,140.640801612965,146.900363593225,114.576610367632,170.019719042417,186.11605954428,114.927566283824,90.3519599271052,140.804899984505,285.072219847749,167.673748812811,101.034150011474,187.249737623865,212.478347253426,204.165473517829,112.690072611179,206.824093981823,158.992430211871,104.386323318655,161.931653388071,155.208095469766,145.786647832153,155.850658968454,199.625941735224,163.240236550562,195.663894602674,188.433501744364,176.733782202405,187.381307006126,200.48127301333,173.169882166098,187.058170243471,178.303517783444,186.49954191171,214.55963986765,215.797477572675,206.795184595021,207.329209001629
210.349160976884,228.894493570751,229.724327603608,236.275286900373,236.812829551473,174.049803476991,215.86581501746,219.770531043448,205.205508046872,209.851658821625,208.823971922935,174.208299943892,197.230618579277,178.672672034578,170.241220098602,187.281750288381,204.300982644636,176.28659160038,180.925119343264,194.944762177953,184.254147208085,131.824941531767,135.023349703505,159.454605654315,85.7626344062776,144.621325749956,35.9914522903066,151.586280755798,140.169769823683,103.686021046127,199.433305595829,164.668669352027,110.420679338994,-2.56083288300998,189.375831664756,226.222829511779,153.490158346132,103.932685817158,180.990416061851,290.68374188256,183.244920251773,118.019477843241,196.225940678655,158.022713021525,110.494507881545,192.907506675384,155.823371477238,175.085050313763,164.552468680479,203.938994539455,196.618047663219,203.64244212859,221.736266554337,206.320832408137,201.875184712239,208.648752966042,204.363441441905,202.51300179003,205.241115189896,207.542365091818,237.791248744545,227.722280872126,227.106585485693,229.422945706168
213.439395978509,228.011995604857,222.619254776241,233.592159619771,235.362486618774,170.539384473134,208.740659049729,212.66616410266,188.872116694339,202.054730650068,202.277294925319,159.856858511724,185.251257795068,173.528306344214,155.142632557052,179.036396348205,177.194160333559,162.017241905342,170.972548039977,180.391395562864,169.796065740504,96.8800096915402,129.297996584157,151.695899668924,69.1323452828129,138.03562539819,-13.4899510090823,168.547103298746,135.774447460713,110.932065137794,223.029643602609,152.101824288893,128.367395200413,-62.5030485038337,291.829029210513,154.226238349298,137.703845291893,131.136466456971,237.083070171922,380.765575545115,162.843894176782,140.480988684318,213.097495325542,189.065673274935,139.059329658207,284.055741407693,238.157529855761,263.279875231474,239.867316415873,267.879490700399,262.614959730212,262.175118338551,269.417593396258,260.045486240499,252.547204699067,256.816999224643,246.252575315662,247.410408565168,240.757749407791,240.799807496016,276.03568542141,267.311632843603,251.95480071774,267.937073023605
203.065209715904,215.675412633731,204.679058087872,220.944969214656,225.463502299174,163.017011323069,198.702757873283,205.504006326602,163.82794142789,183.147449393607,196.725195948328,138.791244113105,168.888671726618,162.109385918396,131.38819806594,165.70050306269,144.534910279901,154.307168623681,161.259139548431,154.530509993227,150.07582335166,66.2830601493182,112.009032451423,137.829537038571,45.7542006831613,126.661284988211,-33.7145756957323,163.30347912595,131.43862483303,105.62784670283,215.5599987831,133.502561901664,133.416196521522,-35.7794264121292,378.017736470443,112.728700154728,105.313775224007,140.354110385925,323.578726552369,419.992238521641,121.350492433057,138.84051444995,223.064915980606,210.548773913181,149.555609659152,345.314114946516,308.791887652306,325.233887473,303.558159402224,321.204874397218,301.453292798406,310.242281960273,289.532561051073,287.104153666493,289.932872784175,293.276391878139,256.070168771208,273.910161533856,251.572821938244,250.062895355677,295.89353969772,292.965608583749,257.130808891543,280.044314433807
171.302762427559,180.728983869322,170.074160099194,185.963161470314,194.138719630489,141.447539319254,171.012146164895,175.094454487364,125.293078897126,144.077868043352,166.533402859788,102.712799239809,135.6847606676,129.949239395935,89.3445193745911,122.107757619319,106.790787599453,125.431630064935,124.087246919885,107.156054581323,112.45174568984,32.8628492751347,65.6904368600775,95.9226083416684,-4.11869891179726,82.3842539871478,-43.3863186813408,89.4132304057857,105.793513533255,38.7397180520336,147.008681882869,84.2659196014068,84.3295084000015,39.7776500934332,350.607502747183,99.6090804467241,32.3002440362382,92.7254176399788,342.636077393926,353.790220047149,41.8648285377151,79.9906005913104,179.426175390168,170.720796011428,101.131526710608,316.706118955524,288.213010381752,305.003026103841,284.413517953305,299.057268297438,277.196933539424,289.686512433784,263.653963142257,256.116003465852,269.012698954821,268.35069347716,225.864740962242,246.132951171022,219.864902743912,216.970050498476,272.328289083126,265.917728423509,229.077321058298,245.853084786186
129.349520998854,131.162603095171,126.451500523318,138.914045717652,145.694057423461,109.46371553114,123.875998930115,125.322735619598,81.0235939431771,95.6301147392365,115.929339777785,60.3348236960498,86.8417185918128,87.6425659213938,46.9400612059343,68.7982101289034,70.6434899935,82.4654202032,71.4700686983049,58.3444226519317,72.4233083319985,5.8593255269811,16.2803884900763,43.2942159458088,-46.0473628214922,24.0406438279048,-25.6198048886976,-13.1823755334536,70.9267684217235,-34.1262551940155,53.1898348134243,45.3450677535542,13.8538621592497,122.60489334212,228.783029260953,110.032105269881,-40.3763398422337,23.1830291832153,289.5252697659,224.257296094223,-30.6715378332489,6.55958137610157,104.17672390059,105.825860984655,28.6818745799977,241.537668202735,212.882640800872,239.13056592942,210.537658611947,224.89563090726,219.88469365081,220.529390169373,215.448394871361,193.796827638197,209.018711618034,203.445777201143,179.902900439179,189.934682706836,169.76785060863,166.88605036525,218.350805808971,204.272702105154,185.655163302368,193.037752184299
102.038282783629,97.5408625470032,97.7921110990344,107.946408338177,108.602120026355,89.0014551973163,89.0949788087536,97.1533390544895,57.2942050232907,66.2357011261882,82.9330799321047,40.9242090862332,58.2415029291519,66.9089657673659,34.0814570243896,51.9787106272109,60.4597765398982,69.4655778557485,50.1584798043193,47.2285936336148,67.1881285215906,19.2231388330917,14.7527391444616,33.1285838019526,-20.9144129788628,11.8270543820963,64.3797194798416,-30.8696719672191,73.0897053681066,11.9130928851687,27.0756210443207,83.6774162124922,-5.15075521211668,232.168757067855,150.545163545898,154.361979125848,-35.3716079365488,2.18883973958623,264.684195720497,142.565926505609,-30.8288322420667,-5.8354532483016,61.8840379085922,99.1613810750676,6.92010495856598,189.445798432751,161.003398635681,189.216416522083,156.991744625436,166.946950524344,175.726054942527,161.211872873221,174.939031766358,145.481354445015,160.557495861396,153.240656904307,136.973463135344,149.335946925537,133.844245263215,129.272941537055,166.430010519718,154.330506869032,149.056821968336,150.611119178453
