-22.9088743824968,-20.0815133036444,-23.3438530100126,-17.5441379764691,-21.1689598724338,-19.7915275519672,-15.2242519630517,-23.7788316375283,-23.4163494479319,-15.5867341526482,-21.3864491861917,-20.0815133036444,-20.733981244918,-23.7063351996091,-18.9215702969357,-26.2437105267843,-16.6741807214376,-29.1435680435561,-24.2863067029634,-28.4911001022824,-19.9365204278058,-6.9596580402522,-18.5590881073392,-27.6936392851702,-21.7489313757881,-22.7638815066582,24.8662782063178,-20.8064776828373,-25.2287603959142,-15.0067626492938,-13.1943517013115,-27.0411713438966,-27.6936392851702,30.6659932398613,-14.4992875838588,-21.8214278137074,-27.6211428472509,-27.3311570955737,-18.269102355662,-7.82961529528373,-25.66373902343,-27.8386321610088,-16.7466771593569,-23.1263636962547,-26.9686749059773,-25.0112710821563,-18.3415987935813,-23.5613423237705,-22.8363779445775,-32.7683899395208,-22.6188886308197,-24.7212853304792,-28.636092978121,-21.1689598724338,-21.7489313757881,-22.4738957549811,-25.7362354613493,-23.9238245133669,-28.2011143506053,-20.1540097415637,-23.4163494479319,-21.458945624111,-24.6487888925599,-26.171214088865
-106.962171820382,-92.8939400598446,-110.041085615754,-80.7816555789963,-98.8513100382121,-93.765353859008,-70.4263173095919,-109.132695325565,-109.805108056484,-73.3062300367191,-99.3033203671089,-95.3588189491006,-98.5272608837731,-110.311126577787,-89.7824194058423,-123.148375437828,-78.4661391979744,-137.48810470453,-112.918085254618,-134.609648521535,-93.0759094267088,-33.4583972595497,-86.9750031166345,-129.955757881583,-99.6458577670608,-106.129191056376,119.802333768687,-95.8989008731657,-116.520049272674,-67.1469459018428,-59.9970260581365,-123.959954868058,-125.460978730586,149.859224622557,-63.1440666590325,-103.034702103755,-124.464516845229,-123.52351969641,-80.8142624376264,-32.0040988687684,-116.046637610001,-126.076470180834,-76.0552685011249,-100.09204191943,-122.093535727669,-106.715998452189,-74.9235627206508,-102.735977087287,-98.136094639741,-144.175818410417,-100.22145963802,-109.182333885576,-129.642914251997,-92.9790985667494,-96.2385251848539,-99.0259966844172,-116.8256101816,-106.848329259042,-129.463857973397,-90.1205871733987,-105.237832467568,-95.2975280360349,-113.18812621665,-118.527091656506
-199.270062995864,-170.952901164147,-208.479217055997,-148.461509656245,-184.414995773925,-180.355305607576,-130.156748252276,-196.883796805626,-207.329429232186,-140.264137419701,-185.164599525283,-184.243616897216,-189.872533223196,-205.477859857216,-173.634248130287,-233.004112440179,-149.144837827446,-262.289458304993,-210.357538007988,-257.094064062398,-174.631365676368,-66.6285665562662,-165.683263854929,-245.274347710894,-180.259846695088,-197.987619415074,233.647951473794,-175.921016486237,-212.558451570285,-117.223820126282,-108.04592673778,-221.22741334922,-218.219504582081,299.044513892691,-103.443061470862,-196.527245389219,-213.956373983985,-214.903922701162,-136.788497943729,-46.2451423447322,-201.867051977707,-219.194930709813,-136.297799360657,-155.416762837746,-213.198837611716,-167.216139718373,-104.457396206233,-168.724150456517,-154.738239606201,-239.161144547183,-169.725742231654,-182.373999983661,-228.609602540995,-154.884068231002,-162.134727499334,-165.563385923738,-206.838115253615,-181.997068470351,-234.392645688838,-155.37094284607,-182.757953238143,-161.124872392689,-205.616266299143,-208.713923559046
-186.925766730332,-157.642360403192,-202.996434799343,-138.711948940535,-173.582957363889,-181.110430475759,-121.792427950685,-169.924400699615,-202.852892965951,-142.285744050138,-177.660794320569,-187.495375518055,-190.149137429212,-195.285300034412,-178.486123621009,-228.96065012934,-147.983058048045,-262.429955666895,-200.422103871428,-257.290644685012,-169.30482749448,-73.3790066198893,-168.04982697667,-238.575842842631,-161.177996769579,-188.664305430743,236.045432346246,-164.110150170126,-191.538041092891,-100.733654159802,-100.088856964196,-184.210417813804,-171.368256288777,312.254737853114,-73.5816677070067,-198.241781832273,-160.765769542016,-171.328934121834,-107.179285761115,-26.1328848216045,-159.385242992524,-172.177973490273,-124.847166344117,-75.7773027169744,-171.68867019381,-105.457924633269,-36.2436603644512,-123.146400164952,-95.5026000401362,-170.29938030816,-131.623326860975,-132.954859507813,-193.706412479616,-114.264484003183,-122.261220912126,-121.152079694301,-175.394497034537,-137.632231792742,-209.799546458418,-123.999620851221,-147.386410064583,-120.201712857395,-185.542561017276,-173.98679802967
-97.1374106241867,-79.3829170712436,-115.512858815207,-75.0107933238857,-91.0490333547132,-104.606874722677,-62.1269953562259,-62.1007103387337,-118.704236281392,-88.9805014286871,-100.90180514263,-114.563991112913,-109.886579934105,-107.403516554962,-114.087782103463,-135.735880890689,-88.1494372034379,-163.040880375784,-110.903823717511,-160.072416634654,-99.6747067395891,-54.1654544374285,-109.913092004469,-138.186141942665,-76.7491692997888,-107.636200506877,139.962880665748,-92.2623025982356,-95.160689501913,-53.5974750291914,-64.9819582144863,-62.9556750264297,-54.1417654429455,182.775979576698,-20.1610639613137,-135.168523668896,-34.0531890873412,-61.9331920158122,-44.9117290429785,-17.6951478565688,-50.9220781579198,-55.8782124275155,-84.4055562350376,52.1969619850541,-65.6918327359406,-28.0949060344417,28.4584615161858,-54.0816773243007,-13.7463305550293,-41.1618171849649,-55.6800543065589,-39.6961835782785,-92.5576733722934,-37.5951599155096,-42.4682768181,-33.17232838419,-79.7866628110011,-40.2212859472056,-107.192202803725,-46.665458887128,-55.200404535798,-32.5075939498908,-94.9487108355753,-72.6017817530837
-46.073459966552,-35.437406407063,-59.2667166750976,-39.8823661353995,-46.9504359981616,-40.3210891880541,-21.6888552773751,1.9268115199542,-62.2475477947842,-46.2564554034137,-56.2186161190152,-55.0827021322137,-49.9214563856449,-56.39413100598,-62.5428096277151,-75.3282684660204,-42.1072324801825,-96.5829575978238,-57.7653410132586,-96.2852699080361,-61.2277720069187,-34.9485575210991,-71.0436350886753,-81.2484938609461,-28.9671743068694,-68.438291434736,73.5611608780995,-58.3888647559392,-57.2740326497811,-45.804977004864,-66.0897904754414,-15.8774467288306,-38.2929642372926,54.5870169124122,-21.2135313675237,-114.67511428444,-7.70388753811783,-52.0814413560196,-41.2780079891697,-64.8487168753314,-34.195767869146,-44.4030958775526,-107.519941676917,53.4455341507275,-60.0857598416107,-89.1164453088411,-36.9816937659981,-104.699253508253,-56.9972721499892,-50.4395244025224,-75.4703710105734,-54.6559660571157,-83.8559528996431,-49.262430940903,-53.4116843887821,-39.157849380751,-65.7960972252443,-35.8432024962777,-75.4780182024674,-35.9426478272915,-39.3030428734449,-26.276227772683,-63.7608861215961,-51.1158416971885
-42.9484176664368,-34.9317033309908,-46.8547761008075,-40.8448878898822,-55.6890814041889,-12.1363975651806,-11.4202984785381,8.78578487195123,-43.7577044598803,-30.2006480110882,-55.8490545777892,-28.7769813054406,-35.1430020047653,-54.3221334998959,-41.250254294569,-60.8792730575633,-19.2275859330596,-76.4690734193844,-53.9399571783102,-77.5071299614202,-63.5529244576552,-24.3679740434925,-62.5434408666999,-86.4695418503301,-14.3082731822838,-76.5659211357644,54.2017529250189,-62.7539904245036,-80.2659321941274,-62.5682096112675,-96.4000988805375,-50.282757538043,-110.684502626992,-23.6672794004853,-62.7722822070727,-141.069643677087,-78.2988486352794,-126.765799355063,-64.6624030786735,-137.430557346227,-107.590543143795,-125.214106529627,-187.631367470409,-66.4009735413834,-139.160131793101,-224.32133054553,-177.948446028026,-229.078029358052,-179.57174306466,-161.989241860729,-162.172862239149,-149.797752015622,-144.731719330259,-124.835247926068,-134.71176165525,-123.947763200287,-121.755838033717,-107.335973092804,-109.227226079899,-79.1181615645475,-90.0848992303844,-87.7875868151153,-94.2954929328535,-99.7737907553629
-34.2101963456052,-34.8252758199415,-33.1066851212626,-44.1634229458102,-63.2438912070656,4.28979020951034,-6.5536623029132,14.1085740585309,-23.1048010661484,-25.5477245800264,-53.794330920066,-9.82770717793291,-27.5451158442045,-51.3379175217669,-26.3728935466086,-44.4505017204088,-1.54146248036833,-52.4584628557082,-50.6911694932873,-53.2128637504241,-64.1887121566754,-20.3749077981816,-58.0490189364613,-90.2837049351309,4.33068871566536,-78.1755849175217,20.9920698707598,-66.3518371471868,-91.8649246156842,-70.2240282751465,-122.285357459501,-74.4569388120312,-154.134395639241,-80.5878898239412,-109.694127288539,-154.047946825025,-140.647601395663,-172.151773931227,-60.6588442207959,-194.626422645825,-176.318680305496,-181.029053236092,-266.584747530388,-195.567075585311,-185.379923038952,-283.645932061186,-271.611956579198,-294.528170877875,-251.741389582453,-225.718730925852,-204.059217996338,-207.587529963618,-161.489574104833,-166.716931464262,-184.825112423168,-182.112343848353,-145.332811837649,-148.192705713805,-119.356246659853,-100.170710145496,-118.160269569009,-125.918770065817,-111.434305034046,-124.940453016831
-10.5198114319087,-16.2740684335925,-12.4809332837843,-33.1324400622254,-42.7802514422555,17.0384424366322,7.08716628647575,41.0279931548141,-0.779876868013195,-18.4231965743694,-26.4270548204333,5.27161385266062,-9.17313223838078,-27.9736578161237,-10.6265291395458,-17.9081775995596,6.74780838727409,-21.6998206411845,-28.3642043849188,-25.8210955162991,-44.3372679896829,-23.4907244436087,-48.3073527414513,-60.8954839046496,14.2991094619899,-59.2438107973432,-23.3766884513061,-68.2771554394382,-61.6803227550646,-79.369590017506,-124.683822119022,-39.6454323554849,-120.597431581957,-105.285714220304,-157.175742677374,-108.564746680688,-141.689649433801,-137.662599030201,-42.1316800531755,-209.816996395058,-182.272674806292,-157.654471659461,-290.10473414899,-260.870319559715,-145.603438574545,-209.061473051715,-245.586757145597,-238.064021803281,-215.335753695549,-176.488336637756,-150.865907058866,-171.936891182908,-103.650280401735,-131.753831289689,-150.960880059693,-151.680268250941,-99.0238971160647,-110.852752802876,-78.5385833163998,-67.2314015610007,-81.9900943071866,-93.4918406119385,-83.8290930503064,-90.4413302390382
19.8762754623924,26.0502731794373,11.2751731088702,-0.00332821770214276,5.54290776607231,27.8575650986865,35.562182770329,90.2216753366049,15.2563954055573,6.34748880699271,25.332168599326,15.8561613738516,18.4454784887433,15.2367261198721,7.60888227240943,16.9707350662318,9.61373728349484,7.24168400652149,16.5940513387947,-9.56256707957874,-0.0743513107060041,-33.2922891323644,-26.5424606718198,6.32517945257644,10.873236364658,-17.5539506517604,-49.1652019713057,-67.5756208607349,18.5902857859834,-96.7681054411163,-83.5872432147764,66.8679918333816,-3.05979579139678,-92.5654405200605,-179.276718206983,26.4898705528177,-48.9201927776131,-9.75871888509537,-14.0948195891647,-148.49562663639,-80.0776332310561,-33.3158826534399,-190.96563496887,-198.155536171475,-7.59508087932874,-2.64713027639417,-65.2340968577039,-57.1700574222976,-57.1500824454021,-10.3310548855754,-9.30554615774528,-30.5407483634441,5.72762104600151,-21.0995288147966,-28.3187820380581,-24.7955348262072,0.301237752116709,3.3511066681587,0.508909458913244,18.7497022625403,17.7945383127051,14.1384233839545,-17.0723062422571,1.2567590954259
55.0800378572859,76.2613456334795,40.0976706420762,41.3498985321248,61.4845728746845,38.8984706780577,66.3727162031959,141.963307572097,30.2616213841306,40.3229514856636,77.1728884800336,24.6868494883741,45.057166257309,62.7750916816425,22.9946793513875,57.3868213713815,14.1684017076597,33.0472225364424,70.0211000223779,-0.366411864489819,49.4628145953651,-49.1705375484708,1.25312181640384,88.9633906182482,9.40559909414814,37.6606466596408,-71.4177704687132,-58.1634445469685,124.356745671783,-107.547490925419,-10.4421107662511,204.390697445652,164.026722480564,-78.7381340784586,-148.977370166338,206.21474787696,119.721509106124,178.22832566409,27.6394196703345,-28.1925556283766,111.513913249456,162.912138552356,24.9876478077338,-1.05425346582496,190.363432677476,266.99961638237,201.636112262454,178.112371218218,170.846330775982,213.138586823744,162.027606640513,166.844838835826,129.024640611769,121.376762289777,132.840063656466,141.858935990665,111.977604797875,147.823248984381,90.2494062076521,122.405041448815,140.735670331048,148.884456560808,60.697453939893,115.574016237721
67.5852447928774,86.2630902544228,48.7826511100244,45.638976646587,76.7998427098641,36.282397937891,64.5975234932843,147.633775951604,30.256483410066,45.0949113196513,84.1733026579128,18.9638365194448,44.6477330785751,73.4261139628852,15.2633598999958,66.5496441650839,4.33390872344163,31.5746185640214,83.7619477111242,-7.4037376787117,52.4560081029079,-72.7481013981047,-1.73591354464727,118.354033765978,-4.94277650542386,48.9380418689637,-114.997314136478,-68.6232809426483,157.969399591495,-125.040872923898,19.7041308723824,244.75938824525,254.957926667133,-89.7621513885944,-111.190545548576,281.06692736515,220.609025753074,297.526600274369,33.9803497550006,42.9747649542641,238.48660445917,290.947650939292,204.38925279777,180.10582764857,313.38481299311,428.095653008993,365.178309165283,314.271415650138,310.1974967232,346.174229365425,247.254023057408,280.096887410899,186.145973927502,192.0477075383,217.431051228551,227.142088948338,159.237200546028,217.803611974823,130.395673685669,163.811775230332,195.718266059856,206.863184756437,90.7487281722498,165.803703116742
24.9582651470648,28.8859560860803,12.6866676349976,-10.596749634843,19.5782074998227,6.09848849149073,13.5176033514864,84.8326892396064,0.219563642136944,-0.508301660748249,25.8983430832543,-10.4148509044907,3.11293777276099,20.7027823767991,-19.8719264651969,16.7150818340543,-22.6118188029821,-11.5144448638266,29.2992239533139,-37.1420720870392,-9.26210565130737,-98.0902045891632,-55.5231660497775,49.0266039847534,-51.8010023805263,-26.6299184553724,-163.057141084712,-128.355777874072,44.3403907672288,-174.665430519743,-56.7485722581942,95.3307243320957,175.613149949571,-106.797601081568,-134.370139719557,153.561878569374,123.707826143495,242.782240794956,-22.3740056713141,-14.5012343254678,169.279279134515,233.776740121275,204.342777706387,188.042422161784,256.655311952084,357.090190820187,305.309077839458,246.137685420406,242.090556971348,286.053985100574,169.33692394162,210.878155609101,112.329931267671,115.574566962554,145.795936128717,156.296882888448,87.5824432304688,143.912117750385,74.386199989892,90.9837175318514,121.819039567224,126.630047186602,34.5478527094576,94.5149840575427
-47.5441322157887,-57.4350079441455,-40.4046575535985,-85.8122286859496,-72.3501741752154,-31.0956933549111,-52.5041081071006,-2.08049125278929,-31.7583729967226,-63.8197972213536,-57.0094274020004,-37.7270115440254,-49.23475725926,-58.4108907583635,-48.3529849030083,-48.6642046587045,-25.42248410325,-52.6881001033822,-48.3819008898774,-53.7347737514797,-75.013366200887,-101.124300897284,-114.385044837984,-57.5667633718289,-97.3566892100097,-130.934273834303,-175.720939487521,-196.581193701239,-136.081099793423,-215.71702143213,-180.690675847195,-158.122735852051,5.6941459361568,-90.5692664861047,-191.059845624239,-78.6077506890727,-97.8385851859265,70.3309275035211,-74.2915330703524,-130.587766748398,-20.9002370694554,55.237713062176,75.8114292548268,69.0136998804921,84.6201862389257,124.940106499914,95.8573398553625,30.5599647186819,32.514025820512,94.7622165477988,-20.9867607487472,20.6410528453455,-48.6441469043885,-59.9869841413414,-30.9557734242992,-13.3606523704658,-59.0381637251897,-22.646917413516,-44.3799754464024,-53.9291764981624,-32.9105488562918,-36.6770686551448,-70.733062651738,-47.7237709821101
-92.9476709894909,-119.490759594974,-65.5570345808913,-128.470145699223,-134.252308366212,-41.115346368773,-87.7175139107101,-60.6224061624465,-32.9200541739961,-97.4367684159388,-111.899134383436,-31.8593366930573,-71.4277568492375,-105.362844095945,-39.6619431854887,-69.178744743903,21.3607111346796,-45.6456900378341,-88.3750959394953,-21.8651797816874,-86.390268845163,-65.9074221437288,-123.306979330286,-106.80963441152,-97.5835985771759,-171.321881489434,-147.203882076938,-209.031266065071,-235.345122356615,-182.954527146667,-231.946028839765,-338.327310397193,-119.503600480749,-41.0088354999823,-196.020034158759,-243.835737117323,-260.314625593306,-93.2463511749104,-65.4679482419323,-187.718669299618,-165.461930362905,-102.749731455906,-42.6102835524387,-38.4898946961692,-75.8089266098162,-133.777619351794,-146.78137187227,-210.203861956674,-190.672152002858,-114.316750723229,-223.544235706835,-178.394791348125,-205.182288849988,-237.672029020979,-213.553692681425,-188.230375127926,-198.227714829455,-188.007965254026,-155.097226405637,-191.781222311838,-183.257203836826,-196.097616462756,-162.11357085497,-178.040641932233
-100.977600995868,-149.715597766595,-62.4020686439799,-139.489907684523,-154.576214346123,-24.7723065380347,-88.9494055610817,-87.7071294484643,-16.2969694331712,-98.1299060580479,-132.942730811479,-2.5034705329545,-61.131799632197,-113.464776736061,-8.05466722988179,-49.0603040853864,79.6400650165049,-6.80666997905288,-87.6819140616428,36.6128141815274,-60.4448953074446,-10.3107575595184,-87.7534099651292,-92.6019715286724,-56.950437523697,-139.890071518815,-110.229010921625,-164.999852743661,-229.384455721849,-89.0940363333134,-194.675565642431,-375.88077263323,-187.532842813783,-7.63932913824476,-140.833197310519,-302.746096550025,-296.723936414622,-206.986998713896,-29.9856346916424,-185.637290028854,-220.879513092506,-200.279540219975,-120.272879590262,-110.22058768021,-194.068300777688,-371.777262365021,-389.602664880775,-418.635566092529,-391.998762886905,-308.914426558261,-390.778543084745,-353.29525043212,-320.15119863166,-378.974344444778,-366.109181674771,-340.573803288297,-302.562588791447,-319.318513245613,-228.904146699217,-288.953605481318,-301.411288620422,-324.763655628881,-223.003561043082,-273.973456796505
-93.9834017571422,-155.107969717398,-50.9864896694846,-135.056319123496,-154.973578980808,-4.66664598711162,-76.732680963999,-95.5302994451439,-2.4752939985664,-85.8633162629901,-129.643653351289,24.5998091184319,-37.3019776095139,-104.27484072483,19.2920744847362,-21.6972978182686,106.822006450661,31.1268801990289,-69.4050255400831,83.3680193431134,-33.3795148814903,43.1163725108656,-34.208096737845,-60.8112864671497,10.7703702757421,-80.8689882601552,-80.2603562621123,-89.4607640932276,-191.805538488237,9.94400987752603,-134.957644283468,-334.167746088302,-256.249837450616,-17.0319376408279,-81.5254616197637,-314.745793110168,-272.753607140232,-293.846452867672,-21.1917396831305,-186.294063526112,-234.75307241949,-269.18108912704,-188.56777577878,-171.245585819732,-290.130991551368,-553.468371767429,-592.286254092067,-565.328406785815,-552.310016601371,-467.728529677953,-492.606520684454,-487.883728780167,-377.039963826036,-464.696882727961,-471.767392016904,-451.718815732598,-362.47074308413,-407.003860695357,-260.114066678448,-336.717090040462,-374.342809570307,-405.524998124769,-252.13462856075,-329.996189670353
-54.7681828902388,-106.836115905646,-12.947572700122,-88.0124945920795,-112.838343937364,27.615272612009,-38.8458822787524,-59.9696113796903,30.9627358474477,-43.9253944070403,-76.9829456428829,59.0932408116786,9.72155930312858,-58.0063623532751,55.0979234847997,25.4826629424251,123.94184319895,84.0096456574296,-20.4265844918519,130.861415130059,14.9032317382188,102.593638843291,48.5903847140167,-2.88212362921391,120.929720322426,14.9966954650552,-28.2347374394874,34.5814418821479,-119.466015779663,109.85396337565,-50.5288584090363,-249.729789891662,-304.303588317527,-26.5249443505087,-25.6365348383573,-264.844970911917,-219.470354955584,-331.633062627739,-43.5949028631087,-168.492886376854,-192.152442479626,-284.972174346618,-195.192708811731,-160.015391104207,-326.519695370773,-579.529056129566,-642.810841016248,-573.520586494362,-575.355080598753,-495.143671159357,-464.243928642089,-497.092911276511,-325.670542852318,-432.345387204968,-462.457983750395,-446.495881253637,-322.677298995749,-388.917589427846,-210.916628381621,-295.157728475587,-341.99295669248,-372.714229244205,-206.436504833474,-292.280735118846
58.3064126514901,28.2415762143881,84.2229330777693,38.7489749867305,19.5762616153266,100.702911267909,58.1547637110564,53.8434148207745,114.33343296345,62.4262461152494,55.5805215177787,124.657720726117,107.195730439946,62.6093874446751,130.760605373673,126.666973858619,174.834107477902,184.457924563231,90.3354981045819,214.305407574519,126.588686128239,186.810225008018,180.544566613589,127.318679120176,277.603212226075,186.98958307735,80.3492258811753,228.475834460633,70.1575933830305,241.530548531004,120.789392639383,-59.8607488957901,-230.218431730633,26.9659359742107,78.1401800856804,-74.4723366536913,-72.4018267488604,-240.352830843668,-57.0627188352168,-52.8508502382331,-32.0952395055988,-171.928232276694,-36.9876420859902,4.90355350407243,-225.848759642369,-355.985951929602,-438.93951460641,-350.010821037153,-361.748777429326,-292.090236590585,-240.478804377908,-286.386951178055,-116.873680801018,-219.107008035623,-259.255373348486,-245.567213026196,-125.302168709249,-187.992522696351,-34.7265821747386,-113.570570261053,-146.263470483127,-168.031023437657,-36.4000917898136,-100.678545048578
218.3509836081,211.677152648708,209.58853812145,208.832320335366,211.195988842309,189.740577295172,189.186058865287,211.324686450753,215.058156562082,203.613997600894,229.629510297417,193.069179843353,224.770078169353,222.177080830643,217.136208560723,251.008723039333,232.720429656139,299.260079238562,233.624925369291,304.591260879424,268.667116676961,266.013831521596,320.845286512918,300.485939291654,418.883193070189,386.467615619581,215.290783857351,432.224587114844,350.629434888378,375.317825252912,347.13321032454,238.109696929804,-3.86883163956896,133.618917985357,230.822312020272,219.383507994913,179.919858395587,-2.27191235825097,-28.8880798099574,154.818886009476,209.660049518055,66.2069677442816,262.751819043375,278.532406585952,14.0972361219179,106.25149471924,7.32953635295274,104.100249352123,72.62244453685,119.842869340878,162.882862208187,124.141370843036,225.999156497674,149.085598496833,123.450080107008,131.587395383883,200.654839750776,173.275984963181,240.819606405023,187.19895809833,178.598070316309,170.618061769953,226.47092275411,213.363167013344
337.50219924274,350.795492471315,292.5576729599,331.491518000325,359.073622393122,230.926545968492,276.39724326308,319.977286539827,268.595529853575,296.891780774023,351.457623488273,210.00516618722,288.127612954582,330.298099389059,243.991613776427,319.254492031416,229.457363863735,348.106053738303,322.606055129368,329.566922051393,347.300087220446,275.605350007156,385.780745128753,410.265762865241,459.215044069735,493.222175783339,283.994659690035,530.09683367556,548.595384365908,424.412054187336,484.282095152314,481.405688359132,242.842575568546,196.101285499942,339.523831030634,442.729039673868,396.775479703389,247.620831307088,15.381495398423,327.425400257644,385.393616852878,287.187307378878,509.968161149001,486.703902160367,256.664945983927,627.091993032388,516.617086456933,608.973497749289,556.998422104303,566.469945318719,594.77019942692,560.492951102239,577.755173250971,531.263408227071,530.499595275904,529.275184776906,526.439354236602,540.295849699755,503.182212667848,487.20483517257,500.283994671351,505.265639157898,470.756830430974,515.201986285307
379.725864666342,402.045460790372,318.442002771949,370.594328369263,411.996013861942,224.363770505764,292.666897870578,342.233169725382,270.992908680723,313.426101605526,379.2488875177,186.992996151039,287.180996027327,353.266429484079,212.579621352714,312.760032095276,173.937424629424,319.7451778464,321.356085320588,285.823229334507,332.33487047703,213.946015652879,353.690561532887,407.785564153199,398.317144800941,469.375361507639,241.696785399247,491.409824744581,558.415699128406,365.201126143257,458.986876529689,525.38872010208,340.22512672689,146.626104562502,335.874365274543,485.06070338975,439.269186693725,337.482472272451,30.290820751693,353.700287212263,389.888399129793,343.445440696009,540.964765750584,484.100730327006,337.328217724271,932.017681127992,819.776581534864,904.069490293111,851.406428082294,825.120970938365,846.976189359562,809.206062565396,784.673704396338,757.239095435395,765.660317552156,753.425431797951,714.386840195885,741.400015223323,652.155457165097,655.09080614904,682.817388674924,690.118697234489,604.208126031125,676.513489802355
364.733322333423,380.966643719299,309.464730775404,350.532797147028,388.32004139678,212.315708559189,267.137482402549,309.75100184812,253.8216791916,284.273615992876,340.656007745244,170.660626403087,260.355297137423,319.324645790162,176.344820341233,271.480937410865,124.804755677937,270.031010307167,269.594428909861,228.39867277974,272.387012777155,142.271556360635,278.933461417288,338.42105139261,307.787237136302,382.910993396197,141.562610889423,397.30969584137,449.592730322049,264.404664330224,357.463214313805,422.613255494413,258.211395927965,27.3836927565255,266.850179185869,400.28892259767,333.281076187929,242.293785208034,22.8100581970552,263.330679144929,261.584143936529,237.340284080395,392.380529212891,292.75334736443,232.290970000964,905.910516721397,791.447367402574,889.288592308796,838.577898870681,797.648277323629,834.330171892778,790.79764036243,781.383590701694,755.344568773809,753.548397511579,731.069683397196,713.051923652049,721.357017700349,659.152190099689,646.62467156517,675.192823632873,671.194562619396,602.73790285498,661.680241564309
297.169766849722,302.416571346669,258.451297166101,284.891251698982,307.894018041189,182.428374717827,211.473918866675,246.448387354862,212.176600781399,224.431030317773,262.316624302014,149.136918216319,208.169507061156,248.746651069072,137.622589050782,211.086134521737,83.9161752826203,219.361914865306,203.909362194257,177.407675458764,206.011021314935,89.4056257821192,206.0150769531,255.584326266639,230.159225793774,297.360913454449,56.4130973639793,323.80188353238,341.428107963011,190.832273969553,299.983372482279,333.926728889505,120.72865809925,-77.4213088542608,231.161250355665,302.767420526735,213.579634952271,99.3838295340042,42.5454428466362,191.657117236034,127.89705247099,104.349137859058,238.936736157358,83.4632913117064,81.6028955453334,717.696895914343,590.395466015096,711.175921821333,645.487408615237,604.450814807818,666.274102204977,617.940189052028,632.582552698409,604.178784390145,592.655143232114,566.020585039636,579.189901204449,565.362701339223,551.9027903946,517.723627279794,533.97136847441,519.609572179471,495.310161283345,525.895913177726
192.334401579536,193.421232605256,168.641303715705,187.674639571892,199.912539706338,111.652548086544,130.975745333274,162.744526247689,139.473442838766,141.593381883386,166.638557666797,91.6555332733319,130.415147551749,160.254521445613,77.7611836515306,135.121211776972,28.1481220873182,157.805220834745,138.318495447276,124.92427032891,145.754426411985,43.6377746167013,147.626631014303,188.504668007669,173.4575415535,240.914708216603,11.3898176287377,290.412337788175,294.863804909541,173.669374149576,315.561744280244,347.217630529709,67.2225768711561,-127.106783230233,272.914944632999,262.770352019909,179.682321398236,56.3156400630942,116.12675417557,234.151990488646,90.6136044879596,68.3327277823738,210.789109474953,9.2443257634867,38.9178327313808,584.37078977282,457.108517072396,566.992393515666,494.093923303554,451.251184045386,508.637432288687,463.394311435661,466.365932720246,447.032596006019,440.79856408714,415.807258566394,424.338292168012,407.602068182766,401.5127091223,366.767806406373,375.073318484831,363.56616062719,353.45637549708,372.105396263426
105.47312377458,108.220148795405,91.4841464539355,105.935736052949,119.176346958735,42.5053188194024,61.9368788672321,85.473155381042,72.756680209609,75.1097332294434,95.5708594479527,30.2088157170001,71.3299773979605,95.4614888673421,26.5385834249909,77.3619163556804,-22.6262132046645,105.206055654283,92.0417583070705,83.869524094845,106.501927083131,5.80142216467508,114.767724842341,156.226321069787,146.763980150798,224.692772960014,-10.8465124026176,287.020232678577,302.214175568994,209.147764414646,336.042080571847,421.072353892557,111.955735288616,-126.177063192849,340.32773346607,279.196104186788,218.894250764784,118.805844003616,211.109990710989,337.882107653679,140.18259443816,123.399048881888,266.107156255209,45.4482911587876,105.874701617691,517.068460428896,423.103915901969,493.593125469338,440.959756632031,394.444010725716,416.148818974819,382.86843919899,361.687885442679,352.667814907432,359.570181879577,333.211472327754,322.78596287658,312.783465061776,287.654045941896,260.92577519673,275.154779496977,271.514693147313,252.344930354658,273.294197677073
79.4561156541976,85.6843923586753,75.083685180891,84.794846458234,103.543400315809,30.7087608873321,45.6078696512708,49.2539826194075,57.1060964621337,65.9707733084947,81.4445525306019,23.8229039250861,68.7373317665303,90.0773410317959,27.3023159598836,74.7451460814013,-31.2036270085088,96.7138421113254,89.0942674165353,79.1609126928662,104.359288276375,-6.21279877340889,121.116851499952,169.100536428316,153.340381942447,243.106605515975,-25.3674862345113,299.397733930891,332.347949510935,273.590805641168,304.393361531476,487.111174730208,178.651872512069,-88.7587058935082,368.421336316737,324.348443749784,264.585215916822,193.630088738561,285.182933598626,395.930214129571,200.131290026909,187.355798483774,283.095944080135,74.2920957402154,181.45800898644,418.7341598677,369.553407522196,419.687975687204,390.766172276774,348.789289408228,349.667337728535,327.114324846536,311.612011140665,298.623166608271,311.925375639169,280.203907670768,276.60854542377,264.542612546983,243.574594911794,213.702415322686,234.454928193114,231.513276092173,219.126234450652,231.187616516724
110.499992568058,126.574311752503,119.734506406141,127.855304430703,149.3167709257,77.7306220239584,92.1887336213406,72.1733474737258,100.096612474151,115.29554810064,123.710495448202,80.8881088633353,120.4130779869,146.34274792316,84.1717192846934,132.047327616336,14.5453044145174,145.631162816486,144.976526464264,121.864072388663,153.561302191777,18.1145747144401,178.508056959187,237.51941150135,195.793251735264,306.256870801511,-18.9557508106277,346.574843005619,402.561276947496,359.506618476429,296.713516815993,570.460592477637,259.012875325219,-37.2567067977283,401.473365268707,428.165969058887,329.978987774401,268.402746190015,365.689871061801,437.269866976191,270.303119999686,260.419711732327,273.324382971523,106.218430522658,255.484678786416,297.527385891881,285.394926612373,339.494263366755,317.382234013005,290.024149643501,295.301073706037,284.018853851821,285.674789305947,265.435549322689,278.312146763527,249.244894246304,263.381834799111,246.19716625597,249.187259201278,212.779733400203,231.671235307057,227.19304529703,233.147472927053,226.484571140357
173.667159200331,207.493506603867,193.375869501244,206.987883649382,230.37441914352,152.164293465291,177.577187579898,142.255812501928,176.445424060454,195.352841745606,206.217142192423,164.089106109136,204.271565869008,239.495679065205,169.364168133468,225.658246794213,95.6484314135711,239.14440787657,250.991469175621,202.412697094979,255.730798357525,71.2247465297332,282.237303295551,360.909360635981,276.274165941883,434.904152984484,6.13177777864703,465.456159154186,555.053674140432,480.338311243336,437.590213415024,732.1243330135,416.329373078942,-19.2454884100417,541.45151407208,641.723950356868,489.502978818485,422.586045003373,510.892691421877,575.569943984641,421.197032666116,420.455250909851,359.046733783671,250.901141297368,410.630975151463,242.807233835856,272.445047511607,315.276973438725,298.822603696595,288.387832551735,281.312862412946,297.261498652328,281.426151486446,271.100845982976,288.423987998318,276.474583162763,277.372067556204,269.498599215909,272.805011194864,242.359195506037,261.31429861742,267.411089519553,266.179876884563,260.902536243931
245.944048549441,292.335812062858,263.325702406861,287.575944499825,316.700233903102,224.716249488533,260.094743175427,224.586078718257,254.114734844928,276.200828740146,304.038199761949,237.893716968239,288.960569793393,333.849459842276,248.847618702992,319.915241137056,173.90451734736,340.497737211198,364.486204175538,288.666931450997,372.40898665177,126.20341508895,388.187959485783,495.657626639624,355.919555757722,584.049654776825,-1.8141127602549,614.879981806552,750.338308429624,604.198062873518,685.008395593071,922.07316799907,640.221862206138,-69.2706839180267,766.308100895492,893.875621952795,713.545336124474,655.998684756276,684.7273268778,786.234341858134,629.643298359942,656.722265550684,539.376199464923,494.300867239377,643.17200407608,269.843393322678,350.38502848024,357.508475965144,360.654692171175,363.107440129938,310.531329499266,367.518012428623,304.587232328101,318.929038215621,347.518590193075,357.061905081433,313.59671877315,328.561547345324,300.564173585043,284.653853818766,314.969280316975,341.039615237533,305.484823291827,328.055784879008
292.981895730049,336.497527960747,298.692533624437,330.485138649235,370.644970914036,261.777082899288,297.367875845571,274.239387054458,296.371060070121,322.626468607658,368.451899025106,272.420421930603,332.061516243318,386.654946257004,287.486912193621,370.658234092847,206.785033196304,390.634945211746,425.584894689488,325.020522458904,429.339327742991,135.629962877354,426.379985336145,566.67498987933,346.195559324151,641.805542924561,-98.928288734994,657.657775635719,866.249760489164,612.787206984723,833.203738845983,998.534922404007,822.46213110575,-163.002744011524,892.022988934038,996.333694204892,851.003732712527,839.23491870789,747.385682560766,886.875046892621,757.48840523361,834.124222647762,649.234282718873,678.359171517753,822.587775608458,296.254270420805,419.746005567593,397.515556386802,422.191832664697,430.726488714367,335.659081617551,423.134493424198,324.818994907673,363.232244861957,399.001464600564,422.376863057891,337.004391754953,373.283476430289,314.567054466771,307.91057965488,355.995385542259,392.223484437412,329.953733005088,380.800116323846
272.237011732632,307.442488224982,268.104920941027,302.075750284706,353.650133965534,233.337381505248,264.105692771688,252.519656701125,268.872173492554,299.742279095011,351.32402446498,241.662815132154,302.779525235362,360.955674342148,257.511313445126,340.868053570078,166.296318793447,343.463939786477,396.547004777084,263.223369875718,374.85800017771,58.712257183941,351.279771547563,522.766817305152,184.427515967907,535.771801831326,-290.105733137397,488.277842710534,802.902614371994,386.153299680789,733.721565423307,869.920286477502,873.282280757579,-250.733634701689,745.707855639888,828.581076976235,803.046527717384,864.109890269274,597.543329277624,735.517304981757,717.035039650289,846.864079608459,572.138384509616,696.026810184297,844.906556136916,247.029249768539,396.479086129982,363.299589720921,398.125785730012,404.720605646068,298.550413209675,394.107305871306,283.764607354394,340.856087438245,375.807131304262,405.892602326508,298.363526381611,345.758384841075,273.592305264323,272.105781677623,332.896621743061,365.170163240749,297.784303166574,359.514373787612
190.88845491968,222.212894789719,182.045668598846,218.030542046417,272.420363303743,157.630546055569,180.962355888855,167.974269363132,186.566366005221,218.172199384542,268.068527362787,163.145514423062,220.755577480752,270.751136028157,174.576869149669,248.926441529814,72.9125345960117,226.330561735994,298.593692143216,129.970285086672,238.389554664856,-75.2259282388279,188.907445982168,379.421250993419,-70.8934282106069,299.755207373377,-497.804307687614,154.117075932734,537.559940086207,-37.9111909021157,422.787786718833,555.518829734663,797.788342948145,-298.976098651066,356.461036292827,451.095163443227,623.284019158118,761.109528486797,305.834241382572,385.045757646782,563.623766350823,729.067889850994,367.060074879472,593.407155033727,742.392863671373,128.509005734013,290.282072302917,249.887803315176,288.355428787608,290.812744606259,190.721664096496,285.254603929614,170.628293842442,239.09593327363,274.381908790788,308.398027693408,194.58770321647,243.320689038872,167.417139735512,175.330044006247,237.833907648614,267.021262990408,203.585996092599,261.963270384377
121.433784768919,144.532322403842,111.424270699166,145.416237080597,194.559130489532,100.477741646749,108.891311967907,88.8812568752618,122.245212826442,140.723308532149,193.074957139651,103.394204366744,151.117978038625,189.754884103775,103.31164920288,169.45909896424,-3.42400943991977,130.078565324739,199.338845533341,26.3556706447225,105.322612304545,-173.323837389524,26.3233413197722,206.008259018798,-270.005414205102,26.0495645391421,-605.275604572185,-187.62885309469,117.648136132842,-433.796668618995,35.5786647341174,139.440356216677,658.602555831788,-301.339034502643,-58.8387355905683,21.9115777653447,413.641617945396,626.025949268526,67.3575549323257,26.5698088422938,410.921385533679,580.876577849554,157.357025689732,473.468388917346,609.902335436058,7.74891647804735,166.459906136707,122.297559604727,166.546527829742,175.070428686797,72.5353988535615,168.462534531168,57.7701502302868,122.468135527527,164.14933501475,196.741831166035,91.546956097384,133.318794154715,62.2821520400566,73.6588113980939,131.443972619344,164.980582029271,112.851962626142,161.030726801676
108.876367943009,114.661668462868,104.506583284651,121.864212093774,169.138788765171,96.749010779215,81.0627369894198,64.8645825091092,117.988819244396,105.512124159954,166.674470771349,100.468566798305,132.789639367065,166.325249710611,84.9638920079188,145.099727643923,-19.7085810683089,103.134439995566,142.231793031831,7.67610884761078,20.348410559484,-192.562379992561,-77.4697266317414,58.742203692552,-341.330418649333,-219.384503109065,-591.767631215557,-435.120134444256,-332.338707650311,-598.473022126346,-322.543926325019,-294.03156992711,490.436616535109,-294.3592423663,-320.687962958623,-337.134718300741,191.414967095223,489.845278476898,-12.9314728710798,-219.372549304353,298.515889234687,434.231242152012,-8.69913341282362,367.39541789115,481.436332461812,-66.1434400673068,71.0056906721903,40.0530233008973,90.1017006459722,120.232874003392,3.22217927931932,98.5311578752367,9.30602978880904,56.1071228773695,103.55713583457,126.778220269426,46.6073686203091,73.0845159388089,22.8896099143832,17.136963329925,71.4955839051977,104.760919961119,79.032868606986,116.15321264654
110.261523007704,102.139507872598,118.237027005265,109.689831880008,160.536638318435,106.529496110888,65.5100572585572,59.8316503672585,127.361527059824,83.637237805396,150.027948551229,115.637255487508,130.192703334318,161.02099605446,88.0519435616009,136.21258636617,-9.3353339106715,99.9201304976154,103.4106177478,20.7919797291855,-45.3126467862327,-176.730764086364,-143.13912409386,-63.2656740187387,-354.039827268761,-419.731974198552,-537.337195500626,-604.286745489864,-661.379078386858,-550.593735612489,-599.14062796288,-677.453627809901,289.335991370661,-307.912661568375,-431.907260498081,-577.891602617742,-66.4514789887839,322.225708198476,-18.5298671105302,-385.43658283258,170.300010832323,252.50415627729,-152.704713448416,225.971699796755,328.996243848419,-116.252565235372,-10.3406427989287,-14.0254304956993,33.091190041584,85.4023603764052,-33.7818960895541,50.3532392613384,-6.9344053708063,19.6920330975358,64.3812603037643,75.244733685063,29.1373976507841,33.0357247575921,19.3737471076871,-14.3846162493241,39.186716315201,56.1984277418842,66.4915376088323,92.6992452165155
66.2158516881833,53.340675759624,83.1615138825561,58.6655506682218,105.002598295031,75.5446983731073,15.7170118591069,7.38830758107435,88.63697373869,35.5523347252162,88.9578668119649,93.1011751148618,85.2599519600302,109.266605095198,62.2181699255601,83.4457832605011,-23.8471834612417,56.8602416494867,30.6390735690004,-1.52770322598978,-128.413963958254,-161.758880377082,-208.482774068959,-195.563908444294,-376.424029387982,-577.225411202395,-464.800938887943,-720.294534997021,-858.73203413286,-440.510150260234,-783.195273376294,-976.184482628336,67.0449741185041,-294.040032025498,-479.388031954562,-712.102993143878,-327.497103887838,110.30682922738,-63.1722315074473,-526.989619097366,-23.9469110487936,21.5256378593163,-294.242113808122,5.54323750929328,129.233519240155,-190.990784430121,-113.431104719276,-92.6852410860039,-60.1299798414117,-11.1820254733108,-92.2044341932959,-33.4815089118697,-57.804827800932,-48.4929077731843,-16.9601625099122,-14.25462742796,-25.9110977368658,-49.250851715017,-21.7991333665703,-72.9066627945901,-26.0385069249323,-31.7639738101311,14.5182685114402,20.7473462396142
-23.4686144200614,-39.8869280063895,-4.59392307537058,-30.3878201897116,-3.32913293258709,1.59454494033607,-70.6400578334671,-100.416923234685,3.85129458002266,-43.5326054027125,-18.746828168067,25.1297839939041,-9.98306475734958,4.18443454348613,-0.721513419527014,-19.2927466941524,-68.6480896876366,-33.1365538266723,-90.254252327373,-59.5372644260059,-227.217333637042,-139.488333943147,-273.164140146902,-357.395283240267,-388.449303664631,-689.19228534431,-329.634432986756,-751.044231021671,-1052.85190688966,-346.282605379189,-889.598456311038,-1204.4974271916,-147.580230761555,-191.578418962952,-505.285084115828,-775.550510941014,-540.245537878317,-122.344279073756,-146.711640251972,-629.465608137352,-247.543631462916,-221.660499453806,-410.884970349467,-251.743370449942,-106.706238787382,-277.398638583537,-223.741642886136,-189.250830965042,-179.611717843929,-163.347431645354,-174.821935622569,-152.495000154015,-143.537757824998,-149.422100028,-135.260901717854,-137.323689756625,-119.744450038931,-168.170672756044,-109.50761997989,-161.671633861137,-134.989395775119,-152.439888045988,-73.2722706630827,-99.9272137348951
-118.360067852537,-140.378051077698,-96.1101206682351,-122.233568464422,-114.94635775167,-79.6339592373511,-156.840218242015,-211.198013573214,-84.0649277053444,-134.15703778846,-129.716311629007,-56.482680487771,-113.667157131462,-107.770809228869,-74.6343262098601,-127.733981279455,-114.21539965572,-128.085417326607,-214.270145187947,-114.32156397626,-312.0860864665,-107.829188018098,-315.789205210626,-510.827849775294,-355.28845188886,-737.704246410668,-149.379047558044,-677.224425196859,-1244.99354537531,-253.282871168184,-906.752181169901,-1340.98124497718,-323.466511784763,-30.2939790545003,-510.90355853373,-761.003812177137,-662.511814869608,-324.41631848953,-229.160322597218,-666.456341087525,-404.385475409471,-406.368314404118,-445.721065379942,-434.179432398085,-321.209004395763,-313.574849545064,-284.56938259542,-240.991968425928,-260.508315901227,-278.212482206784,-233.292348655608,-248.133231622031,-211.107268395052,-224.180768799547,-223.166608489868,-232.949896066383,-199.347884001411,-260.684181967766,-188.780840679506,-236.077672395581,-232.066667152036,-252.43256174573,-150.615437748427,-207.413596007454
-183.846518173458,-212.654218082642,-156.539282052692,-188.27209241188,-186.086055532303,-139.512358964394,-213.384104335011,-277.09972875861,-146.865653431999,-205.952158176725,-203.49860768128,-116.903611903404,-181.555929692756,-181.806746772962,-129.06061759574,-198.021227131991,-134.962964014872,-182.807684692571,-284.127500476403,-135.481306894769,-346.931869744193,-74.2725875326248,-314.055521599547,-582.718370525602,-280.562109491714,-696.881642601209,5.43396652355002,-531.869217764393,-1267.44248458085,-149.275690327012,-808.009062859778,-1300.48380330962,-416.556640445742,105.169870980043,-490.219912725214,-637.689237308399,-646.510932569191,-435.853534429212,-331.523778264592,-637.60596455619,-434.103490402819,-470.793080453757,-369.535873498487,-488.84213980137,-438.270334811244,-283.449211892164,-278.342705987189,-225.081984117242,-273.673161918939,-305.522957001451,-241.670167457937,-283.402515853378,-232.799541734068,-241.983629943758,-248.406369177238,-268.395579643614,-231.711590589661,-296.250830848592,-223.385006660102,-268.453616651991,-273.665932412583,-299.481662725333,-193.842553988378,-262.347310136371
-215.299730752189,-252.986724386303,-188.951205895717,-223.756881789868,-219.098500406282,-171.77794567555,-241.781735126004,-302.089901840697,-184.857065931743,-239.383922207365,-239.716419567603,-144.729289352178,-208.485196909999,-216.029674826792,-149.099777664013,-224.78219632507,-126.74624901424,-191.221614744581,-292.320524771949,-121.362592237937,-318.313510460278,-31.1181445918184,-259.170085596397,-544.495970355225,-184.965489916554,-564.00352413581,114.735258112772,-351.500843649568,-1054.32393455631,-41.8291335702224,-606.582820631899,-1075.03699367306,-425.959666913368,177.761726562595,-413.801927619574,-441.479898078054,-513.359390210134,-459.903455948552,-464.670877283205,-514.668586909917,-377.416636362323,-440.271620389807,-227.319002001357,-479.694339189224,-456.374775108005,-248.636777497442,-257.269628366473,-198.272843666994,-264.017249606796,-301.701141821055,-232.803818558888,-289.148555111544,-236.729412761216,-239.573573671246,-253.072975625266,-279.247559900022,-236.966508786229,-309.743180548507,-232.564452031993,-278.629501410984,-286.18573604772,-317.360284622958,-219.526731510581,-288.108885074692
-238.011441430063,-283.706196829912,-214.649200844712,-247.841904989393,-250.170311185686,-188.468041476886,-259.912080997154,-325.39111705561,-211.338385209454,-250.515243737842,-271.458889125142,-156.090969550745,-226.276277417298,-242.62726901639,-147.944720971377,-234.930496417815,-104.330769796159,-185.420693876346,-280.050356688821,-94.3084892220556,-258.616711223217,25.5970747741486,-176.211742985542,-444.798630778784,-90.7995129975399,-382.831347060326,206.47469996864,-160.811514990164,-722.493544062992,66.3707916332049,-346.468661706213,-775.882332690192,-428.502957093905,211.701515249843,-254.399153938851,-257.39038251957,-370.706969284367,-474.072913525252,-535.646140663149,-280.405022740154,-325.656828755382,-414.111906760657,-102.824404327527,-470.026515444011,-463.855278050358,-280.420396160851,-289.385016524096,-230.56505117921,-299.909368333656,-352.522623309146,-262.218641554799,-328.748081168624,-270.617564559032,-270.035565796535,-298.050444912147,-324.328043373927,-262.093262286771,-351.423269859581,-256.102842914242,-307.168896465209,-326.51608824566,-359.923186242735,-257.919638561914,-332.870580031588
-274.315670755152,-326.61059140864,-246.560831411575,-284.10581628273,-303.541439554513,-205.628038905191,-284.076398994967,-370.137451603808,-237.927754250594,-269.863635722931,-321.893752633055,-168.876581406915,-255.986754173032,-282.252327044852,-152.300631450929,-252.103611642284,-86.2105939127225,-189.618592116657,-282.54039157684,-71.9218291759845,-217.805452124819,77.0292372219473,-109.267854391777,-357.066471919575,-14.566398979468,-224.318630347015,285.385285671468,4.28893374783419,-418.955576697388,164.632174253808,-95.9610114696437,-523.198984742213,-471.760047280287,231.553068048554,-59.448090313655,-147.865187762235,-295.932535330323,-521.047803169979,-440.909568073043,-42.1812947438851,-326.390874057053,-444.476416288887,-64.8702840902373,-455.277174160271,-515.518164775328,-394.782771092854,-401.175399698164,-337.897978817952,-407.237587789174,-478.517393829568,-351.756985538513,-431.609656361568,-347.013489778151,-348.718906710152,-397.051010349987,-423.967856201358,-329.623578847637,-437.202204547611,-311.296870807033,-372.188781139961,-410.659153316656,-451.618108990777,-317.319050442022,-411.775436685144
-316.650749853499,-378.176671665682,-277.855831184079,-330.105678972004,-364.728351705305,-223.395463795261,-316.93756437701,-420.041258392583,-264.161118294296,-300.878481337481,-378.135565983899,-182.09899892853,-284.528026357737,-324.141981573422,-167.323644925257,-274.305062154928,-78.7369288637916,-197.019103071251,-296.691018506379,-53.4360885628334,-205.814934662681,107.363022992904,-72.8111604244537,-310.477475797507,42.9501545670004,-123.776086617284,333.764051107935,119.49242641548,-218.674837950406,237.673185763826,68.004085412437,-370.491382893121,-512.97888333303,240.61916116879,87.3387680018671,-136.186844695138,-282.753388811737,-565.449901131954,-222.198506342853,72.1309602385956,-366.313456980863,-495.448803147615,-126.825256269721,-437.349775595898,-570.822490662273,-550.729750494425,-561.686847376293,-481.132008977241,-551.207867577013,-630.999469584972,-468.194254171419,-565.794534562704,-432.33259209312,-449.706136425388,-510.354827231576,-546.43762792277,-415.399161604621,-542.947019234662,-381.806511607042,-451.059170692245,-504.57174775804,-559.507357910584,-378.859220082033,-498.927375222224
-342.312539731036,-410.814725767816,-295.03102419404,-354.900477505129,-400.186007651997,-230.005328624413,-338.348183413482,-442.860340540996,-277.781460606409,-319.243696504523,-409.620385483369,-187.980029506227,-292.962953232849,-346.741662173481,-173.485494720381,-284.42015961293,-76.8100350446204,-192.631262361311,-298.812688901191,-37.1377767110015,-189.867568289608,124.259545257229,-41.8413925848851,-274.650518919206,87.299120126975,-52.0250590709528,355.489154433519,197.185947182644,-98.3064826319331,288.608496194522,140.289854999759,-275.272035248719,-508.466712639665,250.822396477375,168.295494555661,-176.781443883447,-285.191515434177,-571.655576259675,-28.8665262003661,93.7394450259399,-402.822699171175,-515.76629438694,-224.313809507267,-433.727635743636,-582.40427689502,-674.048882688996,-695.141147578257,-593.064089368386,-660.03374638544,-742.720593508826,-548.990144141901,-663.471295936625,-486.294849576443,-522.325828196173,-584.567185138914,-633.325948763532,-474.154663473401,-619.07272494925,-431.611424587668,-499.847555256024,-564.825591843801,-626.199801477546,-417.94281356726,-556.759456693711
-338.131275620207,-403.388582867896,-293.922077496388,-339.168507875187,-392.546220573286,-225.36380981516,-327.037221035113,-426.499973287645,-275.931441092051,-307.680054220882,-398.879228365978,-187.484830352277,-280.778026067721,-341.358049331768,-163.815003182943,-274.216751153865,-79.684759563451,-179.516677439856,-277.884729719877,-32.102317905873,-154.716673727882,131.190617066343,-5.32424179626783,-214.925241946358,112.416552679677,20.7701725494148,360.194674113844,249.667809910801,15.3717893436562,319.593005002814,182.509098445202,-147.542638860528,-468.216815239704,273.86010725553,207.10306998454,-169.912876952233,-258.14600359307,-539.322975764689,59.9882870030503,118.171491473249,-393.355763707573,-487.912047747614,-274.740817992963,-419.804524325515,-551.114779865469,-693.045961660059,-724.525803692261,-611.896090571017,-670.53871877855,-762.781592074462,-548.100372376164,-669.093463137173,-487.555674747985,-519.864351212372,-584.945580347827,-636.444263066076,-473.51243364453,-619.337599481004,-431.387841262698,-488.166489900154,-563.90176831377,-616.990444659306,-417.994822449315,-555.606529797455
-310.192721697103,-365.969227435423,-280.925068539358,-303.787179303445,-354.279406746359,-222.783797992388,-295.804189505216,-387.089094153341,-273.781530527151,-279.557176963519,-357.541638621003,-189.148997687858,-262.934330786521,-318.239596109979,-160.404780367666,-255.742497058542,-100.910276638895,-179.032189365832,-248.248389687744,-51.185791770333,-130.454403722562,108.844052339474,8.21342048180352,-148.694227633353,102.963848071204,72.0128129349048,332.024774241496,259.64498461311,133.736125155799,304.430602347761,209.57313251262,21.2999520987372,-414.015008122485,279.645192565217,192.741476978469,-84.9403773114758,-189.425956059634,-470.80324741376,74.1713023394389,142.010986762596,-330.028756954149,-419.683420256897,-262.192919543983,-363.206648188352,-482.180637262049,-594.523029267596,-631.288537100127,-523.604149262759,-576.582228273811,-678.719670036741,-466.681606411781,-580.615133196462,-430.864117928947,-439.413373363427,-508.728899782131,-553.245357269845,-411.619971773291,-539.707258749298,-382.909018034097,-420.405915181069,-497.555968575601,-538.623753367122,-379.531169018438,-490.426001115555
-278.669410501261,-322.390681696998,-264.19929758544,-274.417313395107,-311.021292708478,-226.929126061534,-272.586463507515,-345.052244032343,-276.903453750256,-258.108133361055,-312.856602961455,-199.973157174412,-253.531172921195,-293.830190390797,-179.830472412682,-246.763533147813,-147.996743369028,-203.181265106226,-231.938938097906,-98.0399303855357,-143.597016292961,50.0738885969356,-20.3372446026217,-119.059811521942,54.6472051883468,69.3641628648066,263.16835305728,209.393052289812,193.295511439174,215.567959089356,169.896895479034,144.04669758362,-356.228765860562,227.716839202053,100.118881515193,-0.280097838111171,-116.68696116522,-371.430976695721,38.6072073707788,107.250295449962,-253.157120242969,-332.884005302629,-229.567400049956,-286.644881102506,-378.361737011253,-433.734723953289,-463.408229416688,-372.408172255142,-427.416763420997,-527.66140203771,-343.912033793031,-444.446527484737,-332.243019183793,-323.389489608777,-385.820594658512,-425.154449486268,-317.760947263657,-419.511393917988,-314.162271199025,-327.987333761496,-388.854394354764,-423.321149346591,-319.312875637559,-390.412162599934
-253.078977881382,-276.722824535964,-241.265064900652,-243.570425006252,-271.241316857702,-226.227675252444,-253.963803788318,-302.017413636692,-267.219483160315,-239.143076494215,-272.544819857579,-210.824146860883,-249.474830261609,-271.096107231997,-202.61383106888,-244.567483616115,-193.26445983603,-232.532582490855,-228.22625919321,-153.105039221406,-171.542478462398,-14.6484640354574,-66.3516164368517,-126.956334483438,-15.0127658414045,25.2399129210276,190.510222900474,114.992742546866,170.372683824643,76.5281553941722,47.6298951417909,173.402100949791,-294.286316718313,144.130265754222,-53.8388208225331,20.6302040492374,-80.4712401618704,-263.367526442519,-38.9660236228459,5.89717170356303,-202.372747941726,-248.607215253752,-206.353505025251,-228.105509227422,-265.336517796673,-266.350546259621,-274.384513771856,-213.815950649061,-268.577021528486,-358.338455915174,-214.803851225429,-298.171295674032,-225.566007422218,-208.191440042318,-251.564477839603,-290.718660358184,-224.337186202165,-295.268411115639,-246.519246442158,-236.545628551749,-270.285484241087,-298.28072562669,-249.524688504284,-289.222382025532
-219.714313041454,-220.62311163071,-205.220656100438,-198.907689698231,-222.957946565342,-209.348453092663,-218.763406004417,-247.641630518516,-234.847393066872,-203.31421696964,-224.579103870636,-201.889783894042,-234.808089852428,-238.997679192797,-199.561821530955,-231.411886283135,-197.870309863119,-239.745295087614,-214.168373803606,-184.405195338463,-175.198829950666,-52.4959419889748,-96.8377727066836,-132.642801107868,-81.248577524657,-19.0061221656821,151.095296601181,18.8482918951021,129.021115268719,-50.3948139572527,-88.5552874545677,166.97649249951,-209.980988970568,93.6334285854189,-208.017512756575,6.97853795830806,-65.8822448465874,-161.470045351716,-94.7509505007344,-100.994231208359,-169.619062932341,-168.558738382235,-172.776289434395,-186.054237859766,-163.473657222865,-107.228226907812,-85.9537233248636,-70.2099606959349,-113.237140111863,-190.827983253295,-92.5969572545394,-148.227681434431,-137.32188340664,-99.2334285435397,-120.688425002094,-159.598591716046,-139.7993553535,-176.623381988328,-181.322526159287,-149.530575036228,-161.617076095928,-178.610025849967,-176.437951970178,-195.68639327917
-176.259482944705,-167.73057913074,-168.244360682969,-158.556228158184,-170.370889301545,-181.865539518595,-175.880209409357,-191.056093316838,-200.921342686469,-161.570409186103,-178.553803990224,-177.524593732487,-209.323905437029,-201.496418326455,-177.854160208697,-210.503545176637,-170.49012369168,-231.729641913324,-189.151671245826,-190.686523858666,-161.464142611101,-72.1150631009208,-118.147965740248,-124.976813516228,-145.406069378579,-54.5881065446702,117.463951148732,-67.695877563663,108.60995777015,-156.781265449521,-180.760808803607,180.24926476768,-113.030208127705,72.3083133714136,-319.204824245102,-9.36155673853322,-49.7293755434791,-80.2588513354555,-81.1970407227551,-145.917929482855,-147.709610447502,-105.096582270374,-113.086401415131,-171.875383065113,-85.5916719507262,17.0808133901852,66.9157809172459,38.4011187982025,11.625636454999,-54.678908777878,-4.39679466178924,-25.7874362455197,-85.0183117050517,-16.1237043506836,-17.2137845780669,-50.8112545947268,-75.4464614907814,-81.8011659076947,-128.794758846218,-78.82737604413,-83.6400010253955,-90.7219751594115,-124.091246904571,-120.933015084279
-156.282686300847,-153.803375498317,-158.299466584867,-153.748509040065,-152.739582459925,-165.760498241424,-159.827813076217,-169.296193357962,-191.400834973362,-152.049835274835,-171.141522529457,-166.931291959722,-200.759815166027,-191.63457447272,-172.878481439442,-210.944424246957,-159.270505573914,-243.852409090046,-191.34487955499,-207.368410561117,-177.351413669609,-106.323719744322,-166.549054129011,-146.094280767043,-237.289043123754,-124.840232755337,34.5672587858048,-192.444892382652,39.4293644869816,-306.608660480763,-277.03550175116,161.111227462363,-87.4294691284044,14.5329262064117,-419.9609153308,-72.3397022643293,-78.4467667367497,-76.9806380869312,-70.1076491752172,-159.739766054503,-182.47291284383,-116.252258500884,-85.5260568783373,-242.14508506001,-84.3752189920084,26.467247086584,99.6256593524722,44.2362795384736,31.5278464647715,-27.9190912614683,-10.6233076796162,-8.84462146402163,-100.782609059208,-18.910564892093,-5.76415322373478,-27.3566869008697,-76.7847299705125,-65.9733040393116,-128.720724671695,-70.321365390036,-78.7626718306553,-81.7123123132222,-130.182641882261,-109.905298275746
-181.017099682864,-192.352120240055,-180.28864428189,-187.006286907938,-193.96001514819,-171.196829501701,-179.103509788654,-197.267866043784,-202.995426661659,-183.188323797205,-212.170383041429,-173.654772280803,-222.581493748002,-226.056899624924,-190.338873162808,-241.39512640321,-172.193291778642,-283.440612871203,-236.71784034675,-245.271947294928,-234.243122857153,-151.258112227474,-242.656473823106,-220.086277268338,-347.91434343425,-246.118046536487,-76.6993560833429,-360.645084712403,-129.903026496216,-496.626192248861,-425.03774926015,27.8964711015891,-205.190861091605,-89.1084506538902,-541.06419502888,-210.208013597129,-214.156442699092,-203.395607687108,-140.799744339175,-238.066554556097,-307.652101680138,-241.041769502438,-159.714992064376,-399.877093454172,-208.322244936291,-132.578144202771,-44.242448447644,-108.251226851456,-104.513484043051,-158.573686110039,-145.776023991633,-137.431210954464,-207.489742518476,-140.485368643497,-127.967197775129,-134.510976543326,-174.647425168214,-164.961633135432,-205.177243442706,-154.918579430041,-171.575377872708,-173.584853492078,-202.599290826853,-194.605087679003
-216.378101968056,-243.025810821281,-200.127335768253,-218.901500382701,-251.702437780054,-172.917530566361,-197.721277719049,-230.240439324232,-206.146715464278,-210.057393346261,-255.480669228365,-165.1485940722,-239.449998026723,-264.710877501288,-190.915364193727,-263.628838866584,-159.056015922655,-306.840821920971,-275.714220653752,-261.133243313341,-272.687836058933,-158.947656567626,-285.952655225837,-290.527492270683,-402.149111945265,-338.602550837504,-129.876173441272,-455.760838236314,-284.031615224218,-593.837387139436,-508.324179250081,-169.404837634389,-402.255605685205,-181.176811970199,-577.893522866432,-336.535213263666,-415.862995929343,-400.9202703893,-233.396005542676,-335.865792680909,-464.291556247274,-414.846731591124,-278.624251099597,-541.029338001846,-398.580159949982,-378.095607113914,-283.598567258322,-347.355871460433,-325.325668852851,-365.107780707046,-346.061500539751,-335.310232377274,-358.367947031977,-313.990318623809,-316.660861081818,-308.482918950646,-318.401311992892,-318.262442922856,-313.631252907008,-282.09754065634,-308.232938357094,-309.437031077529,-293.043596407693,-322.811905633139
-219.75717291898,-249.469510927176,-189.842353233419,-212.000748794644,-264.420309181794,-146.929773787978,-182.950774758741,-218.634157421531,-181.578343841402,-191.381253467043,-250.825256108479,-130.177244298764,-216.918771445987,-257.629163613906,-153.228910074495,-241.728903874076,-98.7180094481754,-278.678221133199,-256.877321743191,-222.604783934367,-238.231578781968,-111.80313657424,-251.923729165997,-283.311964157099,-357.78754563136,-313.682258409545,-108.218151427594,-380.818268870738,-267.592210700477,-509.575474346785,-375.166362271939,-270.478902980304,-526.893012263723,-242.158558709267,-389.593844982282,-338.33359078959,-550.069898436956,-529.289061930274,-236.598030195321,-271.956114365153,-541.147856193586,-516.586068076822,-293.434682816899,-559.102102146798,-518.889012975896,-541.853924701377,-445.624649473737,-509.408251412542,-477.657663407779,-494.240562809109,-482.079870737733,-464.565913080762,-457.568910545671,-424.107046310311,-439.336961187801,-417.567412378988,-410.752643041896,-410.618966315159,-380.445670399928,-359.039625926061,-390.128576039405,-387.784293742663,-339.263212423121,-394.594725726244
-193.279245800373,-205.947544868321,-162.592442955405,-175.863964489754,-227.281584243329,-112.819323342677,-147.482488674149,-171.631099182719,-144.736451790031,-143.064117739303,-202.580695025901,-99.2448541930112,-174.801531834565,-210.856420052421,-110.74312687869,-193.048881565509,-42.8268447531418,-225.760225664759,-199.412719697486,-162.831329565245,-163.213104919398,-58.2365792708924,-179.838673174466,-211.436480422558,-274.466070006672,-207.080351078976,-89.5859629095554,-220.913362466178,-117.867056432566,-337.10641574098,-111.434302629563,-224.864163026259,-516.928394080222,-281.706584827613,-64.1672394956007,-239.924519773833,-548.234374885285,-521.245010954696,-153.324918979095,-37.2361210844165,-501.432141690603,-499.786803002051,-171.321562206165,-459.543074434933,-505.048739668554,-541.346001780501,-441.331556235828,-512.014789440851,-479.30938346086,-475.85083131862,-483.601848088647,-458.285778190387,-457.194774167841,-423.846742952516,-431.07340505553,-401.686281669969,-406.069411763658,-392.40291628618,-378.142731086523,-349.253632554002,-373.753353113216,-363.331620067186,-325.233372211119,-371.14165690735
-158.731315010452,-152.755189639768,-138.426433879752,-139.823011274469,-177.993456802786,-97.4937461504126,-119.656632348273,-128.340556012411,-120.095991744968,-104.200406657659,-150.837221720803,-91.1588020327326,-147.471463903021,-165.300555466327,-96.2754195751913,-156.982039334879,-37.6309484231612,-197.168238470028,-156.631608383497,-134.922846346861,-120.376479361752,-43.5384161769087,-140.404848659393,-155.339943970678,-238.036267701874,-138.634939382244,-112.609839727389,-151.204446190944,-16.2925242003959,-235.657386202091,28.9240768588694,-170.827000559527,-457.629206572522,-259.365501189863,112.771443536769,-191.12394214522,-487.289809554031,-452.663459453286,-87.8160304979782,129.872062807062,-432.262068509097,-437.275621577137,-62.3425919345981,-352.938452505606,-432.062975110051,-445.203588085122,-338.309487741136,-422.507529226992,-384.998536612824,-370.896639849438,-400.214066934649,-368.441544541689,-389.854468280102,-354.820811612965,-341.089780941611,-314.639763375486,-338.457822303935,-308.063204711008,-327.89364956792,-285.984571274863,-295.326567345994,-280.342642740544,-275.165239968133,-295.340038965153
-120.180198988347,-111.236505767169,-113.26552185208,-106.349392793344,-136.865778209808,-87.709148346584,-96.5353910538617,-97.8825149327003,-105.22474048344,-79.53049830425,-113.4175506363,-85.858739341431,-130.533918237818,-134.239877530016,-94.7887651771281,-138.155025678649,-57.635293343216,-194.259543915023,-139.806795911134,-144.81096165867,-122.796207340952,-54.4470366029276,-149.16607391937,-150.545965490813,-265.680548056686,-156.116968804486,-133.233557218535,-222.143789828081,-41.7785606185445,-260.686399038238,-39.7234000772934,-217.457815470126,-439.246328293324,-163.031339706138,27.2955629151095,-259.5266468674,-457.100579328725,-423.922120850291,-105.533882462714,83.7406551345622,-418.073583555127,-414.654681772667,-97.9049500382478,-331.076593737066,-400.602222227912,-359.015380243635,-248.421894515027,-342.372497965363,-294.622033086098,-275.511415239305,-318.723230176901,-281.147991663162,-308.521939753877,-274.58949456238,-251.377368151171,-232.472506648542,-261.469716923468,-220.115504032051,-259.498132181846,-212.3985092553,-207.76698727386,-199.841921825539,-211.812896866981,-219.191890993436
-77.7110323165949,-71.9278242122853,-82.8752594798463,-66.2519892743353,-100.731925465673,-62.9255190081252,-64.3244631988111,-64.198400435354,-85.2498265517789,-52.4343673920539,-79.1536696760992,-67.1960476481503,-106.069930785459,-106.474934779401,-82.8790999831389,-116.540744996006,-57.6392140568224,-182.527699656054,-124.399309829984,-159.118328792986,-129.869734150218,-58.3514921123662,-170.457008977357,-159.705709017934,-307.699492978056,-200.225253737034,-122.617451337901,-323.160120044048,-113.619652838117,-346.261554227959,-154.051715723273,-294.007911504813,-437.268176936433,-86.2347895207749,-123.45302290703,-339.442070417263,-438.874642983143,-422.658347179028,-161.016163642039,-42.1772692994917,-424.366092027475,-417.708063868704,-218.415352970577,-355.798403370709,-401.418036375429,-304.938952723959,-203.445173862724,-294.590234327296,-243.526768189607,-220.858195724952,-264.522884003432,-224.840313427659,-239.430652002582,-211.041905040599,-192.603856039423,-177.042677017877,-198.642583899446,-153.669474799901,-196.670186934603,-149.588888834378,-137.470948444534,-137.31271584252,-150.295806133426,-160.283619740509
-51.0885371838181,-43.6325275669588,-64.5598552122199,-36.9147847063609,-78.1831400714545,-44.5153302071653,-42.5079087425405,-34.0846712874301,-68.6371193556348,-33.6351705986237,-52.6842902704111,-56.7761581523933,-86.7058415934912,-90.9111532096014,-75.5443928902009,-99.5797348644022,-48.8345647383645,-162.022892334765,-109.922777171211,-163.531654525082,-129.179594738164,-54.7168783418859,-185.318125551655,-160.497560856343,-324.189961266153,-224.659480804688,-103.351478787792,-358.904607024615,-160.50122344142,-403.394343642502,-175.569328537473,-313.656596072911,-396.280875692621,-92.1040696403415,-152.538927187378,-351.830048390074,-391.958103748821,-386.668863155558,-181.807243259152,-94.2691628967447,-394.038696864548,-391.451698549804,-294.896350229448,-336.939616870312,-370.90417468883,-244.359875845423,-169.471723366052,-250.302799696031,-206.105294241951,-181.722342226137,-217.373167588027,-182.181091580193,-191.091256307471,-169.88060191039,-151.881111277809,-137.044079973649,-155.050113988775,-109.093817536805,-157.591819128406,-108.41310697336,-96.3585513650782,-89.8899945406379,-112.430173216406,-120.844886267201
-63.5552728808934,-55.3036844281953,-78.4233149481877,-49.9517143521418,-91.1990588767675,-67.0669625473311,-60.3025189329895,-37.7077530914907,-79.7709215273507,-52.8637804020776,-61.7026676851072,-83.2591935080414,-101.620368932837,-112.890357146284,-100.938221640045,-120.808352747128,-73.1673436058023,-174.79789859964,-127.701685251516,-182.501674437203,-152.594782572657,-65.28466146188,-215.625365157132,-190.635422170904,-335.060489033549,-266.177169015736,-93.7253310593802,-372.610642020921,-220.663715925366,-420.283693093045,-176.832437500151,-332.123561116186,-351.808415524622,-112.318599660484,-136.56140749044,-391.740422333656,-365.177334808934,-344.351909222226,-186.47124114952,-125.234914432567,-373.21859536021,-363.711339581094,-335.546629734939,-299.583937358428,-330.701427039815,-173.018693558519,-134.620217472544,-206.515675484038,-169.263903555914,-148.947971549579,-175.059172639144,-151.348668754659,-169.576239605306,-150.123170089131,-126.794849608934,-115.706223890042,-139.704083719934,-91.2139026068091,-148.187697571961,-98.8625835474326,-92.7935670565169,-74.7846841752053,-113.943984582752,-109.958401203868
-108.784374117004,-105.318195442847,-122.356904698091,-104.963533618541,-139.860995515055,-123.761419478004,-109.552794894569,-79.2125885905308,-122.719913975154,-108.673134909656,-111.761704511503,-138.246810723795,-151.752662834913,-172.223508928585,-153.565458854504,-182.544658321288,-130.178277397505,-234.38662996339,-188.532117412904,-232.513892098518,-216.786652041515,-96.6957463878588,-274.626276364735,-273.164457229062,-368.270240953206,-356.141026490213,-83.239937458835,-435.040985997424,-344.727988283282,-445.83458801532,-275.106382887237,-427.209743126382,-377.488875381223,-68.6829058632886,-222.853145319132,-548.318096570597,-426.577926094638,-370.590698547249,-244.107304879762,-244.828066499621,-430.370878996806,-403.281951117146,-435.936369282949,-348.260918722003,-355.655010415167,-131.714031796888,-126.32864167562,-189.623894674667,-154.940950791756,-145.848520061587,-156.464186407137,-151.633452363654,-171.654186136854,-150.128471630157,-131.614059456828,-127.791143771236,-154.607291708388,-105.967004413532,-160.464718996998,-117.43490666144,-119.510252338864,-102.6777280998,-143.238968044262,-131.556659615205
-153.382119810243,-154.643870966695,-169.659612590408,-160.208919876711,-191.33304598882,-174.393189625068,-154.701612403769,-124.68948986942,-169.463900577055,-163.016263274488,-169.011466397313,-183.84853928907,-198.1665509131,-228.893407424963,-197.088777262619,-238.479165279497,-177.273796411769,-292.635534804626,-250.87691714336,-282.940301054953,-283.752111339654,-125.771333801999,-325.65239940083,-353.923538757294,-390.686511761516,-434.404233634665,-56.1473881675194,-495.758364906049,-480.230154981497,-475.759719405667,-421.433245030449,-536.644966123731,-454.085421924099,11.6515599500645,-365.086448711181,-723.164855464045,-532.107127571174,-443.761075591347,-341.057952883081,-414.966318435881,-520.675219595609,-486.463591498677,-580.475971330748,-484.417926854408,-429.775678509738,-131.686632286795,-151.64941999894,-202.296260336488,-171.851250493225,-174.71790882364,-163.635531924029,-178.869744115945,-177.593097506745,-163.643565365642,-157.482840020749,-163.874320677501,-176.516393274082,-136.122416553074,-175.668097274335,-138.450164493231,-151.390871586488,-142.624248824166,-171.189918707642,-164.356957585026
-164.767281894321,-164.273213131807,-182.929460883299,-170.810356013893,-203.887554644307,-184.397825671936,-163.450249685845,-135.833730328858,-181.498098422143,-177.061556205805,-188.116047621047,-190.217697912848,-199.172660534884,-235.549334471639,-200.059149982961,-242.206148568022,-182.096242505788,-293.616916331649,-256.681782681707,-285.081204871374,-290.32059380207,-117.798852893829,-314.445606455949,-357.371513793674,-337.736424828236,-411.860639465815,-5.55102089084892,-438.972946614206,-516.240428644966,-430.881275246226,-463.448730398516,-525.006434926872,-470.888515145301,44.905433916392,-382.075481612389,-748.028361010895,-551.012394298302,-449.464703321862,-375.354917783605,-493.929021765607,-526.536518681319,-499.631757367281,-645.808389545727,-583.463465451575,-436.494906357902,-128.125730354761,-168.418942522077,-205.868292015851,-184.713982162557,-189.369987499869,-166.025158654993,-189.99607605926,-162.982250585009,-168.734626848683,-166.374126012114,-181.715298290792,-169.222067865244,-140.990086398601,-165.590741471376,-130.074410788363,-157.973166343045,-146.780377789668,-171.056523167275,-170.578706995115
-128.003994839165,-117.112491460864,-140.536739950064,-121.811052756729,-156.397263654212,-142.103254296094,-117.854955942135,-92.952260824173,-140.741397608998,-134.130042819211,-144.097725010418,-150.81820849818,-147.758158207181,-178.913105835917,-156.729436420922,-185.839662493342,-140.171722676842,-228.459664938193,-187.006359333654,-223.935631855987,-210.398360401107,-59.4648350725396,-222.687486270492,-266.112771485999,-190.082070369415,-269.654233207531,70.7693139194042,-232.727143051303,-401.428654338491,-254.720442182997,-325.224158501504,-338.155422117474,-350.458411732422,-5.7960349991303,-179.013735779673,-565.457358822958,-406.67506461492,-311.672221409821,-272.564594334406,-392.564605451733,-387.686927925819,-361.560788430378,-581.052411933012,-540.14126122254,-295.379339285103,-77.8853097926758,-126.981202428877,-160.948361043998,-148.589209525797,-141.006693787194,-126.321944798858,-144.042944889993,-113.814573445901,-133.26440261291,-127.252061606765,-141.991856614598,-114.4218754987,-91.4439019321522,-112.225177823214,-78.3354124905937,-114.769853129253,-95.4060265743569,-128.564968452653,-126.150056197563
-52.6070249048711,-25.3248815768911,-57.4459920984994,-31.3126881816425,-63.5874435681808,-62.8611687314142,-24.9597011532305,-1.80421790646057,-61.2437852455521,-45.8654741332679,-47.8288345905148,-76.3829675470541,-63.5132490822655,-79.9578112521816,-79.2235765527896,-87.4377581321137,-62.6666536872398,-121.525556978117,-65.6600514013621,-122.298562354116,-71.2330538401755,28.8367403885055,-73.7856428838797,-107.619554318196,5.59971626589023,-46.7322053487613,155.444577691003,54.954401430436,-145.961868475522,24.8656546342194,-47.9597347736929,-3.22482352954756,-111.40099612153,-86.3377465917644,154.523038846738,-214.619155873932,-121.742020501571,-55.0323567681556,-58.5818643171424,-148.965142775015,-131.055028691544,-89.2428675615063,-442.423615911937,-357.550324405604,-36.5891392614551,17.9877543246408,-20.7695063871825,-64.1806462433514,-52.4226540806736,-29.3587667436389,-36.4326670005578,-40.9135231877779,-28.7743459544975,-45.448015194176,-37.1582157963407,-44.5935690801081,-22.7091608969436,4.47329511277088,-26.3934197384903,9.27725552250602,-19.394650715975,-0.520972879139155,-48.572743790622,-37.1340167664865
39.5722558333364,80.2107676015352,35.1705286021282,68.7235676968479,44.2178376511849,25.2130614118697,84.5867973739205,113.643244452965,31.4255950625792,59.0260774587436,67.9239632695952,14.0571219862635,34.4509949798841,37.630700000815,17.6498369668545,33.7615094098648,28.4050192079053,7.50726003983704,78.4011970913804,-6.89708771255653,88.7908237621039,110.374510906289,93.0213669298483,99.1426732326035,178.265734007596,217.477323849644,190.263741833054,338.375281223467,242.381415335992,305.143321973261,278.529326398535,455.837247815014,195.754249471545,-119.316419217812,427.024087587386,260.483128877435,257.683569028309,256.215531490867,163.458660780879,103.119510074794,195.527815640814,251.435099429846,-257.374754799001,-96.4554059019171,270.152372589245,138.161091501411,113.624752395743,63.7328449259315,78.7694856476135,109.596276926841,82.219730604369,90.4104003983547,83.1831034733034,73.5581770856025,84.3087907646293,80.6479216180896,84.894173849154,121.149047498534,75.6321189963257,117.881368338692,101.93960554998,116.597424918683,53.4865419023005,75.6097348491379
133.913010757519,176.887038869981,123.927439626767,155.344714144733,147.197253604981,106.418598441408,179.533628859672,228.230316050521,122.883910597944,156.827498437198,175.427501997219,101.515788893575,131.6176132658,155.497205576268,114.215851961752,157.9413910465,108.114837806119,141.273226466108,223.164586725554,105.495684424695,241.350446827423,155.640486333342,237.96781384632,331.849797271558,281.104143936566,469.477261972025,117.320392655728,536.110245014173,700.114768031011,447.813771761549,549.89672180617,985.643690480663,535.443553750032,-123.043747245703,497.602144536053,780.386186510029,690.099615260664,574.063742274421,286.256652299786,235.190341384099,552.323621962084,607.118164065268,-10.403835251668,203.543123172412,581.05408716943,263.200901902809,236.653564347176,197.270321584533,207.277423791863,244.418007095906,202.143921065916,219.393259065617,203.910087928828,192.595318877242,205.695856402012,203.340293544239,192.564094711925,239.342164802151,189.303835438829,227.768150371044,216.508061566727,234.754212837912,161.609177910713,193.693546809227
212.123467765969,250.353090030753,201.473309487916,216.456626088498,225.752799299986,172.529120864383,241.213845986528,314.350836584442,199.858168042701,229.64155603381,256.340459784606,167.403744868297,209.980805708626,244.301643029869,183.083060900337,255.118382965454,160.852810624177,245.384397039381,332.972882465353,192.502804163599,350.41286073826,158.562867832675,324.455930664266,522.982943149065,303.948855430998,626.688528703884,-40.6220931077832,574.225591947554,1038.73301465596,368.044193342386,664.37754024037,1417.05399908638,837.120813233666,-177.796407126365,350.731229543159,1161.49357770617,1073.00716385709,841.96595137648,266.186089580979,215.345853551425,864.537024543339,913.586366627462,242.129510030247,508.78477877084,842.335351458355,360.345967161806,324.217454596556,298.570850855519,300.476816560792,351.682211730311,295.819469624789,316.427855683992,304.392540222825,283.365289705305,293.395029065034,296.538962898637,279.192511096109,334.932960969326,290.285056407985,309.44152123291,301.24368625544,326.659235946543,250.14654933978,291.718499945948
246.772326920241,282.128515532306,242.940649121332,241.258554210391,256.702603548908,205.496050708737,261.017196887073,343.769428595736,238.027566652214,260.490618194825,293.688670483166,194.002678205833,250.018210492011,274.018887645295,206.795110909529,294.873000811755,179.554806730163,284.658466588779,368.79199417335,225.159953621946,382.857325525193,136.116344098655,334.462188529834,594.962604617419,264.045312486186,643.584953642366,-177.171068425309,458.761259171137,1103.69733277605,121.654657406864,602.329920671729,1550.25653534849,981.547821003978,-262.279825613168,66.0271127960041,1235.86012686681,1247.27004187296,974.850550560576,126.004106424068,90.2713609470488,1031.32417290924,1069.48645661544,401.730941384597,746.258054908632,968.96962270357,395.483329326527,357.030954872152,332.998093830617,338.353186020631,401.455753206995,335.215964691776,354.925574296789,350.342941440553,320.38351121835,326.676188066263,336.180973564287,315.992698902638,375.318632155738,332.284707679372,339.239303817793,336.874708810927,363.056412668203,287.822942389569,335.662938716336
231.005706786186,265.739721221961,230.753510058033,225.230061102479,238.631477299329,191.162982301281,242.347287751824,314.114054272833,225.94751349976,247.717982104678,280.14485295187,178.411544277381,241.518417663683,246.749814796639,189.964235234831,273.239666662606,161.900531594891,256.020951097441,331.641517514693,196.480063464438,344.450253130557,107.706787848529,285.490947610298,543.039305987013,194.610587291115,556.445705445201,-203.245203712881,288.16675666694,960.975287451651,-131.35398989833,459.18659096081,1362.08943767227,910.388586491106,-269.12391663572,-241.260586928494,1043.11601968612,1144.27598558938,927.00935629397,-86.9907350635502,-93.1607413682346,1016.76649636619,1020.56299167765,439.082991419779,858.527775221609,923.467567915184,376.978084849897,334.769633909915,310.764484183688,326.506418302042,383.476711415355,317.210871305131,336.791424058158,332.914521395733,303.932835905604,312.975647288302,321.716213848671,297.852124135015,354.986218068129,306.852933022927,321.263435190293,320.173229419997,342.836281758299,268.275998972275,316.615616727252
187.914775816122,221.583602500127,184.063034113962,183.802229996824,196.657283287324,143.970417316941,202.953330419219,255.701399085941,183.636584134052,209.449514798306,232.412731472552,138.454380200933,195.338049497477,195.461379255404,149.030303639209,217.942901096566,117.751451495795,191.675971719097,263.013536353903,136.089137922334,275.845575640496,79.766949956725,216.284175514278,437.004598195116,123.397122267686,431.107848972128,-138.593306794564,147.111104175628,778.774103211872,-264.42563523766,331.926827692777,1027.6330499518,711.30009106847,-180.503587336525,-456.771613025515,773.227454517919,869.830870480959,762.813781831713,-292.341851162037,-278.264504166973,879.160307206402,835.873275973962,380.385989059783,871.609696492277,773.128966854683,354.101566591208,298.957290848336,282.209676153653,303.776411985089,341.121774405114,283.05891686227,303.201733225675,290.344495360374,271.616282720248,283.266719326208,287.502809818534,259.65355627475,313.838495982089,259.988334158045,284.591352944304,281.251060446429,305.554834282579,223.126765188614,270.697536477294
140.750190099568,177.075499656292,136.18944894136,142.374742062574,156.304888006158,93.2430657772457,159.613584890448,199.891480805448,134.870834285162,162.813795548139,178.771038215658,92.7234900918656,137.958466353303,146.929069165809,99.3683548223992,158.720651445021,66.2487576498305,126.201352233342,195.018950033219,79.1170922282875,207.660580709014,50.0567325868945,149.885696867281,335.725718518329,60.1951949407449,303.364115914014,-72.5429543599249,51.8005710514788,608.29999960285,-265.994484313808,231.363675922429,712.475528713881,523.732616301206,-74.1127848215977,-503.155327283257,545.593856623978,582.672090281143,591.069646547608,-369.42931058145,-370.489700048188,698.699567913406,627.468884925193,279.24537626739,847.043592901672,609.747245061484,360.730186440706,297.013906808742,283.689345197133,306.737643421583,329.804167893342,274.095420891156,295.075344894566,266.414832851282,257.364674860853,265.682446543342,271.232769087452,237.906606393946,293.34862880657,230.087128897797,254.997147068866,253.485916650585,285.793348547933,190.092591496671,241.010674061526
95.6701666557952,140.930122159692,97.5943654919108,108.591965183329,122.484363516398,49.0738811437553,115.187638173148,153.402924921205,84.5164816984367,112.966742276277,130.759033594519,45.4065326163781,86.6105845849397,103.781079071387,51.1369667579255,105.978099357027,17.4960731218703,67.0983965465244,127.054479456157,31.1071903641724,139.380802492422,15.5577623742305,80.3010712589653,238.51287321948,6.7099924794441,178.679276478462,-44.224461431551,-8.51237613715809,406.727771341117,-198.671528820124,136.408980992416,446.975775438783,389.651650431087,12.0891108259472,-396.663079959825,359.42046628539,351.3553747254,445.215321464694,-266.647088997574,-319.239183120124,511.134322862666,439.874201739282,209.784593350013,810.171674898336,453.623088591848,378.374089290928,322.024969656455,301.881468582882,324.058008301473,342.894475930241,278.157085820833,307.246019143488,258.301926976936,254.873125460199,261.977884648164,271.294941772506,227.315162387171,289.159944396497,209.997325034401,230.661609461914,236.923069542796,275.477926817469,174.170458510835,230.833587671124
53.5455175892012,105.461641507361,59.4641215209594,73.4728464328158,84.7006975264849,7.94661005479988,69.7571990241801,107.140240367234,37.8481427083491,65.6150515855049,82.2083921354242,-1.11194924696837,40.3154022437133,59.1949854033319,8.70179095635733,56.8401984843114,-26.1368265373679,8.86233096969672,54.0837611153187,-17.4844104767155,64.997474146758,-20.539328170989,1.82414284125906,124.349731089482,-33.3895964545867,56.9682685987892,-19.6903295115941,-43.2467306039076,168.446287788607,-118.778716997527,45.391126909327,196.343642202393,259.015498706244,95.4026215407591,-232.827403393463,191.130359926409,158.501869840711,287.924588742424,-87.5119443384848,-177.837101035362,312.968108408913,259.899339426074,184.206934178698,746.568333480776,279.170941070373,362.93207579245,321.663738458202,293.137394732623,313.857645882968,326.136054493739,256.959148666156,298.774843555956,234.60318078868,236.377320071177,249.955369548706,254.2659516031,198.155808380189,267.218673702832,177.306802580911,194.793208243917,211.943867551332,249.731141433018,153.859584601042,212.004433476611
16.4876705712413,64.5532004210667,19.7129436128324,34.6982141752924,37.8171377200173,-25.0104472188767,27.9745842209511,56.8836523035548,6.61571121085074,27.5887669694749,29.8641102305841,-37.6497479920661,-2.10254084236122,11.2388466643502,-27.0242085164369,6.45731396834993,-59.4392661237323,-41.5898726411074,-13.3118241293393,-57.4268732595832,-6.09855500686862,-43.3317823239209,-64.7873911244251,2.30061257091302,-51.9636047420456,-49.5903895793513,26.0832276895034,-56.0951984112192,-59.3034397083552,-39.5217993312522,-30.8422730806281,-51.7372952895801,91.7814705399476,174.768086227063,-87.9967636521698,28.1453675412386,-24.3281947176597,93.5689250913891,23.4504563105535,-44.0268168349085,104.429867477846,71.0792428393666,134.959724775514,619.908062607543,76.0869669430925,291.216456843138,258.990140773682,231.216352198568,252.603042418157,255.987471614659,200.052236486123,242.012937243044,180.887740757144,186.46967095192,207.343008881182,197.792359607642,144.206356459619,210.130936291306,128.507062259396,143.433824866822,165.271738802855,198.853527533134,115.562945346241,165.649737180177
-11.9948087234411,24.664420927013,-11.2260049805959,1.92088736026296,-6.98269686230242,-44.3981898121087,-3.52947153083578,12.7489468357943,-9.46010047796501,-2.29876504540547,-16.6680977984446,-58.3584805708624,-28.7796736254815,-32.1496682905497,-50.4390411184281,-38.8201472949394,-75.0045817620371,-70.6484034102893,-63.3749838833814,-69.3959804319051,-57.352441484235,-38.0878943178432,-93.7732560054627,-92.8153568364955,-40.9658660853052,-115.656359848037,76.4827957931196,-39.614477144122,-218.553554280516,47.4125279361204,-67.3317385879881,-264.806584598411,-106.522920822269,229.050652411017,20.6449793644182,-127.139920648699,-199.74869556877,-125.155381100767,39.4814954448265,26.490067593258,-96.9184032261967,-129.580508550028,27.8994285050362,402.891965076857,-144.405051917139,180.235784316746,147.595766271308,133.733812549135,153.120738216006,159.933523028902,126.926441848505,152.722413001648,113.185816048049,117.709775578423,136.255520648256,114.996618499368,87.6572006553144,134.06929425396,79.2694669469597,89.8675947797457,102.393277706058,132.589414949556,70.5677835365774,103.248067642563
-21.6964220063994,3.90890646159958,-21.3810624809117,-13.3633944521563,-29.8787386051826,-52.3769179144584,-13.601952228549,-6.25428938063135,-14.2285009028789,-20.5710165631598,-39.6248743219791,-61.8372534171368,-29.2239427888518,-53.5521181801285,-51.2749268046384,-57.5284239447843,-65.0913267806477,-71.3069797970937,-90.1928302534439,-53.7584470820375,-75.3184257510826,-10.5993065272459,-86.407233376461,-134.369573275843,-3.0131843464632,-124.338709730987,119.559315219976,9.71585612635514,-272.460994166647,137.461586004747,-43.5040529490702,-384.578642522857,-293.21302866854,260.061836665833,104.96744943354,-230.609411852895,-336.160995339297,-327.328207680879,42.9102922578317,58.9391576392602,-260.392435693802,-315.038906706039,-71.4144100750314,141.946283995356,-346.576031014494,79.9282478449941,42.7142978057149,49.805746437659,60.4709591334592,79.199258647203,68.3171972839016,77.0419364485821,67.173236786732,66.5077516011505,70.0104690434868,48.1284973476209,53.3758346495964,76.6190299383694,49.9345078558577,55.0258796349034,53.1569672318955,78.910439941141,46.7009257051583,57.8489084327397
-6.78605515435492,14.1403045109944,-8.95006622020281,-6.27074859193669,-20.1174195060109,-46.7813647396301,3.38549383227753,6.75729124100095,-1.94589716141464,-15.5488705813419,-29.9543045841167,-47.542464976957,-12.7749471104676,-41.8472405630001,-29.8998289119243,-38.6095954596524,-34.7402413888982,-47.7579457399119,-87.2595269462551,-25.4412215276805,-55.6846392234401,18.8521440283192,-59.2827650026009,-122.54390896577,50.1170594731446,-85.2243149789315,168.769323206413,76.1588232579151,-230.665299486018,221.221029342558,27.2809373497497,-375.985121944934,-391.820018929655,285.753379528955,187.255859376882,-236.79905278718,-370.518808856326,-442.356989949572,108.451140025993,113.617645654963,-334.465155813737,-416.010707122965,-65.4918480582834,-38.2619528273245,-458.655465471624,41.9194481814046,0.486132668609264,26.0780166528625,26.2496964563674,46.1759848157872,55.3568441635787,52.7686666137565,71.3689690262095,62.6807064238581,48.339938127482,32.9534551994042,56.8292207003272,68.3845470278993,53.4589644922868,55.8368075461406,46.9086043325106,67.5067594639215,60.0059777641153,55.7842744898833
23.0796504529265,43.7165386639116,15.4968330253155,18.3910923588588,13.5536768270887,-24.536515009088,34.4942653545591,36.6489598688407,24.7110318627834,11.3081621658277,-0.178177051252356,-22.4707370556192,6.81071132783758,-8.34734104306982,-0.773231166223011,-1.24571568920196,-6.40597786812305,-14.5336564881058,-55.1353738021794,5.55520276938125,-9.62531669209882,40.2596842996416,-17.9182797526871,-80.0234983938525,107.894596230231,-23.8993953723035,224.260545920913,141.708617610176,-137.165465805304,301.705142811997,120.013685799308,-263.057642352196,-355.486670540575,306.523782638379,284.763318781462,-164.745374119351,-273.740431564141,-419.157951303563,228.100752786429,213.974926227576,-285.581888479524,-383.620895211645,65.0245655883757,-63.3620969748084,-432.965960161148,83.989093780844,35.5561932206965,75.2049655670928,66.026765172448,74.2869642456814,101.600486643808,85.6706796237258,123.283037408063,104.498233913832,83.2761759304167,66.6710702811638,96.9908354017453,105.534735265371,89.3835874968971,92.4441506838324,82.3909022727377,101.732541255055,97.1473088766872,92.9248866337372
57.7558212336809,74.53923577405,41.9051811724394,51.256952919036,52.8931328381636,5.62627441573289,63.1317247459669,68.9516723491532,50.3071442532714,44.6880511366842,33.1777002168367,0.692248290322182,32.5952802054444,29.0391665879294,25.0884233408286,30.2584758455393,7.04752474870274,17.3092324035624,-8.13718736038854,32.3372216526749,41.162156467137,56.2159870392868,33.6890864587921,-29.751158367224,160.842005420674,38.7042772976492,256.895096575931,204.426823588786,-31.4753506386988,377.257827558995,224.725382197554,-109.966924018601,-243.499835155477,308.950732783256,397.304667753451,-67.6645320437847,-122.872672979816,-308.395074713238,338.514912106935,346.891179522688,-166.704399092848,-269.57245524635,242.214662280189,-2.15502346437478,-325.690551785792,184.440089694996,121.043725856678,171.350710379064,153.652600503748,148.102148553289,189.783815389943,157.775925196842,196.528361802336,173.05276186245,155.271090132748,126.703061043929,156.898503591243,163.036628474252,144.018060597602,149.271494382615,141.349385631704,162.025085494656,139.348790639824,146.204498705103
92.2568162885689,103.689493207293,65.2615015594687,83.2409399232388,85.9965985604962,29.8492534398467,85.9739466187559,101.498381942105,66.4054568839456,71.471390914515,65.2853046235255,12.9558146440795,65.2401429983362,66.2496614160326,44.9552983188746,51.0267570846432,11.0188697410032,43.741513235218,33.7355247169994,45.9033412824694,76.1074575759796,64.3949529308317,74.0483616233508,16.2070570783069,197.154448439923,86.2931985744103,251.397716064686,261.570006426396,56.7225210576585,434.931221355495,323.993652037164,17.7427049620762,-157.690630115723,295.690160311739,513.823160270563,27.4526241132109,-32.108119625399,-209.442502178892,402.36603916378,489.202826219051,-80.9658093007491,-171.847682038837,381.07211923023,37.3388104631418,-229.293417780322,300.201250527886,221.296846036911,273.714043757464,253.836651858773,233.937048547388,282.772633010603,243.420925024924,263.711017048425,249.178669652854,232.556689030566,199.616388262848,218.568972014088,227.590464471092,196.621195879548,207.787826724223,208.647071687704,229.160060327356,182.017834529093,200.851486205213
117.328613601429,131.187788622609,80.8406774820871,105.803149639156,110.238986731219,40.2602496760913,104.382126058717,127.17759790983,74.0366352766522,85.5262244602161,90.7158620200242,12.9865833893773,87.7550698879401,98.3251922555532,55.9561159604535,63.5386634973987,8.90274519118801,58.346353603862,57.3611511912166,43.9562332607302,86.8384601944593,56.1561968152251,83.758765363398,47.410041937094,210.171029933618,104.731944673195,230.544344815324,294.867153029733,104.156982559797,476.440164271297,383.767691359978,82.2811499401961,-106.120868666728,292.711155840065,615.914965672933,110.010115704627,-14.1245116507663,-127.34466611014,436.326678064429,608.127392572482,-55.2946668184327,-103.320563060439,465.587118451395,39.24007081404,-140.766720601557,392.005065477976,314.794541757929,354.420654055379,342.228523930355,307.711337727977,349.033639036645,320.009035468294,309.615147117634,311.146599589574,293.40346725334,273.220872679497,268.239285533186,293.795843238203,230.870691606299,253.08027870809,268.152683160237,288.226513315527,220.011182393074,252.23565447946
128.023194986236,147.74428937749,88.9068988891221,116.807864391905,125.444016088673,40.7804749821802,115.217929249774,136.723529336707,76.9102732676214,90.5077061579338,103.834496169512,9.80309969463968,93.5888714912275,113.319207682565,58.3457930582454,69.0731501643371,2.3425869479285,58.7840202052264,68.2114902260177,35.2186012296192,83.6286627443587,28.8413096810147,71.3113915827029,61.6588008195412,199.034007324372,98.6445648234613,210.730136513288,291.235789960137,121.6880229743,513.41675800269,388.624313087482,97.3359587474486,-16.0830341514672,315.96360454186,674.156045843946,165.382136273127,7.36035795495768,0.756639773583012,471.099210828878,661.172803474259,-26.6950024116599,-5.11843424866695,510.736006080313,41.2964337951571,-3.67770280555833,442.201983809064,390.428769368731,406.08131727668,403.651508236672,364.638131069709,377.634564107233,374.134412635673,329.262972173445,340.978789581784,333.369405231867,327.296839946246,293.401988183826,342.299721319098,241.706813217308,275.260385063331,304.780327557438,326.126308562451,241.793578916972,289.652317152726
126.807021599046,143.917683647545,90.8810952008108,118.377088921946,127.361115916613,43.3163694902444,114.785714674968,132.453512683159,77.3564330298592,92.6111683222549,106.671459431658,13.5404130714929,94.3167172225247,112.403998407502,53.9302103438577,68.7831345937185,-4.81380202604201,49.8124385632041,76.9360234557376,20.7236188402614,75.4419642977694,-16.5063572599611,47.7962623153656,66.5382145451239,154.161495478108,81.5379012602707,163.566325289437,250.600569451787,135.685229256719,525.240742312796,339.79472598056,101.847917585412,127.511945827463,343.669211248215,653.907667336858,184.448492831164,64.4429285836394,160.536217179376,513.010060814042,605.707189293445,35.8964747153091,123.938364689541,492.585718464255,39.7412150121472,160.435843148126,434.444803077185,420.310642794503,411.755625675403,415.669400857602,388.822945830554,360.277733480551,387.287874975685,310.809386650794,326.110969197402,339.326304234099,336.140021124313,279.206178913573,342.924230586298,226.210448487136,265.305144573888,305.063568236482,327.447650517842,235.342813369275,290.207583382325
112.479225786231,122.034542002609,83.9685692506745,107.85990577357,113.859822519537,52.6162289894426,105.120678696086,118.80293829751,74.3478757376523,87.9896683380034,100.45857131969,23.002831126553,92.8157966078269,106.153853561096,43.179115193097,61.5694002094146,-13.3774828931916,37.2599861841352,78.1393023868353,-8.09046156379975,55.7103103150144,-73.580696597153,8.7889107710659,61.525318367257,75.8505009977097,53.4415416416569,68.1153896468858,175.402277889624,136.994201811946,477.08955372352,229.235869682272,108.769195319817,258.086985259461,343.976089772478,545.433447470511,154.698185735986,125.365285572203,276.627438579508,546.686979064641,441.99557824617,100.948719893749,225.635577631747,387.054759284466,7.05200502382156,278.744388750507,338.271420381666,359.052603557369,331.144138341081,346.433858469273,341.187236250002,277.056367426166,330.208933717759,236.283104567405,254.393519476777,282.835151643405,279.752819304746,212.875979561765,278.372665357091,176.838909977881,212.691634721729,253.033557466885,275.577841619259,190.245855289573,239.565589891053
91.5565338925368,100.106603842197,75.6552139254577,89.6913931531707,97.7144145833876,68.7228779643912,98.2685341280681,104.653096507483,74.9224823087229,78.0880554761924,91.5700608052357,38.1477682686501,90.613720610085,103.093192684596,39.5042410280392,57.2225167801172,-14.0889005180712,36.789946963783,74.3402702343649,-32.5385347392354,36.0972049877347,-113.040806567182,-21.2540269487516,54.9107603670025,13.7825332273531,31.6651647794204,-23.4209869536034,94.6502613548987,120.786204562359,391.787446394331,87.5100500610853,117.376831101995,338.31060492004,315.933855138925,392.340503103114,76.5563538320973,187.649087334286,337.707896901692,574.277748808684,253.290222461447,163.913432745645,291.079404309764,246.253671263001,-37.9076751083158,342.436735952346,162.402616029808,210.400307728279,167.216795713861,202.736396047067,217.848238745037,137.545511596557,209.683601868684,118.660456489756,138.721456670048,170.189150636764,176.292583785024,111.381710133964,168.967330396912,100.744205178727,127.559201952163,158.78542346137,182.679782443835,114.499940213454,160.099943178581
90.5531808686094,102.710852925969,87.8270857688856,87.3816389662648,103.741389490941,101.098875716539,113.75095974215,116.485502972214,97.6656606086724,86.5173734167195,103.93482248972,73.8231222964533,109.061791873466,120.658951842653,68.5493144427619,81.806400720138,19.3154081629066,72.9825181018331,97.0942779570617,-5.65038402881779,56.9320916689726,-93.2230500779854,13.4623362790721,84.3069777481346,35.7084127435902,66.1749989583035,-27.9250149406054,76.7256409237527,131.278816229586,349.464786480677,4.71752269171394,137.240820506389,398.441250435803,298.742979659807,257.330041011746,11.644638647527,283.343682314035,396.081710064642,627.563374045412,133.390233888007,255.242067643493,364.814273127666,163.447178004396,-35.198557061708,402.460730676536,-1.03699316105449,71.1572716330951,17.5148780401639,66.0151212951804,97.4437861669386,14.8516150436008,102.905306228042,19.2559927404927,39.0143520834632,67.9354221932052,91.8682357308285,30.435060740719,78.0145642842717,37.5996706012251,58.2064427167198,80.5713629890187,105.859139757441,50.1738727299831,103.723739854203
127.831633985334,138.971221737567,129.372260274095,119.25414187923,145.683362115205,154.288311554345,159.615152902443,166.840548317841,147.930551867011,129.150419997586,152.708568369912,135.414289938243,160.811270122803,172.427310762317,134.787831596975,144.186135051443,95.0164263117738,147.301937745962,161.520418363039,80.927191070307,126.43459126748,-7.57550039887539,115.811160018427,163.998369954212,143.15111297954,163.283359093872,67.794341311308,157.47753523725,177.73035208148,397.741914856049,17.1706185597702,152.019404374858,460.132229272737,339.188608933624,155.490172057286,15.9233769064219,394.870465368512,471.768067271325,695.361084168839,77.602677445169,360.04606843697,455.367429769574,169.489946365559,50.8821161767227,478.415287137586,-49.5790206626391,43.5207626533005,-17.5669960709077,28.0863563089766,73.7025623884519,-13.9068867324554,88.714576801729,-0.0128587191376202,17.746115426148,43.3968846718387,85.944710792821,16.4525359740066,65.3346287295472,29.8289768664954,52.3342898855009,72.3226099976684,99.0203754643317,43.3804921349081,107.293686085777
184.719185905267,189.917852517042,179.683613274049,170.898060762462,205.790166170651,207.846962361999,214.652156405248,224.216161905774,202.204602627618,182.91161938923,214.604059762298,196.648304651209,220.685299088507,236.896795337029,204.135124635345,213.488891200768,179.638697008108,221.360398809232,230.188072767588,166.645955398484,196.274328923217,89.3628355866241,210.779621670064,240.973659035915,251.48818084682,246.295072573068,164.183540363525,272.622700651976,191.759123172853,455.547721754209,61.4914423244947,115.338191070545,495.320378400311,403.037567730028,50.8136297314119,44.3740322324191,449.373110793195,525.815401689039,678.791959262695,23.4078225004865,418.866689216724,514.637271383592,203.140247712542,190.475747532156,533.537665427159,9.2623935242503,110.658010280721,42.120908094938,86.8468614135901,141.715000292985,44.1767507143043,150.434616754515,55.8380104613991,68.9784905065959,90.899007520162,146.824659060365,59.5130631030021,119.75706830643,73.5372718129626,102.717832549997,122.944553201511,152.629563355422,90.4159775933291,156.191148758428
227.964166134713,228.990035884218,213.926140676554,212.638388932201,250.273162590779,237.834589757662,248.886411401607,255.017352505502,233.778015261394,215.003209486603,255.225535961934,230.747896406581,256.430963200631,276.884638948052,241.777500648087,253.004935894505,230.405427110172,254.313049887446,259.611612185511,193.862650272067,223.604769273973,129.086192964144,237.244977672109,258.766417580932,273.954448584313,248.76194872504,134.533657661204,303.747555451179,136.437770794483,331.967021576325,76.8250010733564,15.1182208184359,465.466407613043,361.372666502198,-106.950349532365,12.6693479611496,398.843375740347,512.134741019812,476.146551601701,-56.6969154591712,399.510808050452,495.226516896723,181.673575253232,297.613030314081,523.766274873676,69.2246892887486,164.803797435142,95.7957514706176,151.245695365726,206.5430949798,109.914939098498,203.645885035741,118.465688926103,126.818131748954,143.339831093784,204.778020709447,110.888290266224,171.36180311836,124.26806249855,158.058688687044,178.562154328607,205.870642053727,141.772163263087,202.346616374069
239.733329198728,240.870204617787,220.349786832405,224.38013730354,257.501055249916,239.646739219284,252.411630048598,255.552443877682,234.801772530489,214.682514716098,259.495588873166,234.714338896133,257.894038161367,276.002011946584,243.522707082664,250.402544302889,235.621658640964,241.532124079968,244.493327972737,170.833146125155,203.856476348153,106.89661067267,205.044520004862,217.280884460611,213.706606170961,177.0843941588,0.411734070404227,177.072132622765,31.1590808674865,-40.7448449844702,13.9065362147865,-116.310773477543,360.686061928839,174.320958137086,-360.403389219615,-134.382374774666,257.918676628597,416.163555758853,72.342245344819,-198.120049615267,307.576972278681,387.877184446505,64.6587439253223,295.656174738696,432.126680276369,62.0818975584017,142.183662730729,87.6565736325876,149.952935124551,199.573155935008,121.887144117742,199.42017648887,130.589769873567,138.66907726649,145.880947346323,207.339883709988,127.310268972317,171.595164328308,141.471812830593,175.030624435021,194.329041189632,209.071077872586,153.903391751848,210.528166272711
217.574149411732,216.538163841932,194.292862886161,197.666091663839,224.479688928017,217.368158275839,228.280193899849,227.456469832477,209.381465179644,183.51996556476,224.827049062762,212.820754795257,227.301520093845,238.769143145491,218.520191188795,212.812574815462,217.747681544432,207.353142077554,201.672064240027,142.693202153593,154.723164699915,84.3137379342208,158.262116783179,146.143132250698,155.917047195747,74.6148503431822,-52.0274377248036,-47.6232489727541,-114.558361916846,-416.669769314477,-175.121991531795,-239.22682135697,222.480673862492,-1.6341403437258,-662.178548529122,-396.120381142,92.6786924671979,277.217760170668,-435.432576138429,-437.219150714324,178.203284294328,239.693427312517,-123.28253940004,218.696174879069,292.854266646406,22.0301913931995,74.5376743894976,40.1186008836425,94.9935016708891,140.070149156034,84.7258608219422,151.50861166028,95.5787848794997,103.129160068037,99.7943223960362,160.325970576248,97.3498233217099,129.755672159257,114.708658567807,146.372540102591,159.950262222128,160.799986977089,119.253710680482,177.902829846884
178.2182524416,167.044149491599,152.003840915939,150.763172167824,174.392396835477,184.790594113883,188.649791729271,183.477538344441,174.33749813418,139.45995107622,170.793027386645,179.39837289699,182.697666887239,189.752815780813,184.308330104252,169.141709228497,211.838300447264,183.548008387374,159.541591552103,141.470487203462,118.504092350541,109.712361943083,142.301910435139,88.6634486583251,176.81846270614,8.80404328019548,74.1042968256963,-183.837540724999,-240.578107065868,-496.97447603286,-393.107295648144,-302.274976517752,144.19258831807,-39.1955302020121,-834.716085015469,-624.637483606355,-8.0086154010661,197.13689389566,-862.452728450833,-675.351902521314,101.498376909298,155.677296607803,-286.516919270537,206.520304516111,207.546388373272,13.0370208540252,33.5147042491744,8.70781908572148,47.6108830570506,92.9089389853815,47.3142207638388,101.34794520284,59.3608661377978,58.5432877173987,50.3752626610794,108.408967730595,54.0094410135996,87.7650022011632,71.2111389484143,101.904849890529,109.24476641613,102.449058357569,70.772250142125,132.363329954495
149.562295378675,126.225011213477,124.408961703135,121.195278607611,143.304523002219,164.818264812342,157.567356960052,155.447091911498,149.65361534872,114.945275437977,134.15321086968,157.233425933927,153.97697652821,161.095087741012,164.552526886676,150.312114728604,230.210450050412,184.78234700442,146.774823715936,163.931652254498,128.55377716814,157.679378511698,171.932166624066,90.3083605543605,258.879495351067,31.6491802477771,228.258020694571,-136.32671153455,-233.181570536881,-344.048510920379,-460.174105632295,-254.817871496609,189.790946970382,-32.7137397732872,-795.363653020564,-612.275500525361,1.37470515953755,247.632009303765,-1073.77278567797,-776.247787997011,152.907892952683,204.130602002096,-353.499455432592,341.802582545533,252.84840895747,41.5670491179568,47.0055781193172,21.2981310793352,43.5757536246354,87.0751872152972,43.5966752842957,78.6064960950357,53.0601265498091,41.3119557404547,34.0078340977778,86.5298780457811,39.3935594612386,73.1760368999276,47.8132137179687,77.8557348169874,84.2552099538152,73.3105262642717,48.302520073554,106.263575282269
132.863864156892,103.402323498777,109.082568873207,110.830723601393,130.267487805012,155.185980436665,140.175245556823,145.574349218931,129.146136123071,109.836797425123,118.996602660919,140.310897362228,140.05779949243,150.590163958371,152.78312444123,144.563069928099,238.185013369519,187.807916087616,153.219392574263,172.808876837609,155.023480189986,159.988022679563,198.571288514953,136.604976226173,300.299382400266,93.4082276334887,224.94752446932,-53.2658138866457,-102.697811980653,-274.101445414958,-411.983950088149,-100.213030743891,299.267392448941,-108.046550510884,-722.82342443634,-373.062373885301,87.9416885327086,350.064056455373,-1101.69586223393,-788.771137246724,270.590117278158,312.665325535439,-385.641847955686,554.607358129781,352.550114840878,57.2870130715703,65.2731180538191,40.8702036676025,52.7742406297761,85.3336068831954,49.7806620080979,69.0987910341377,55.7236027526682,39.2422869367365,33.1512110876757,79.1347008700529,42.7645735022983,66.7378963531023,40.154268878385,69.890614872791,79.0523391586295,61.3181598511355,44.4246296124362,91.2898394217071
106.916164550625,78.240308356722,81.2522033602078,88.4992394521003,104.415545957553,132.594992849005,119.232346913759,127.85507120412,97.9922215492433,93.0967391805261,100.549043802633,108.18232936841,113.470385952433,130.364389017625,123.271169394541,123.826678272103,200.785073610797,166.032317126094,146.265714329726,143.997155375869,154.540556364689,100.790661974347,175.557712151245,167.199658135787,245.066892681439,105.994281320468,96.0006469463888,-92.4229755431523,16.573608023626,-395.961022798375,-425.060298898643,106.343655278366,347.479561987412,-211.946112015719,-779.068955138687,-92.563305324141,193.249457224921,360.348145501026,-1047.20634586137,-807.759365634052,331.911123295264,351.925137788415,-440.40622466371,721.694673933923,361.519241737333,31.8989747611364,38.1025227396548,23.0377596084237,30.7424615273017,50.0440773990728,28.8417192212162,40.7798402091504,34.9313277450479,17.7628691609972,9.76852156117925,51.1122463662675,26.500720591321,38.8451679228759,21.253715487106,49.4363385528409,60.8855500003971,32.3890345727908,27.7753480121278,57.6609556662824
82.2139816108113,57.3977347151265,56.4195635303713,60.8540026782442,73.2848600550096,107.028053208457,103.404436355544,112.508344182108,75.5812195080385,73.1341788158596,84.2679338232496,83.7834815160901,85.5921365154354,108.458490719662,93.1283396240446,107.186865901021,152.523629642497,145.260553536366,135.495483389835,114.883555151425,150.805711153579,50.5137033746545,144.247068181809,182.755920352881,174.074074311419,95.0083273410766,10.1476600032058,-165.626636629287,92.9229479339847,-503.851780108861,-455.142794541541,320.514024290672,298.186390460727,-235.985887542602,-828.912244547779,193.084383814103,292.335354036917,271.097244619205,-927.483541219323,-742.137728436244,340.243041697511,306.984265032977,-392.97301490273,792.259449617791,272.539173269918,6.53808850459595,-0.736593585933401,-4.50141280692608,-4.01688013245321,9.17468835647311,1.91238226301858,5.38146150652257,8.53034601786713,-8.88864621430989,-23.3013034159193,17.6739077502209,2.69759570472779,8.93497207119745,6.48674399156874,27.6924871622911,35.0607522022682,1.66612936450121,10.429509598519,22.0044212621062
96.5298721339769,75.6088558515657,74.4785234987299,73.9831216101214,83.3217295331216,118.502883804761,125.495461656917,137.678703489168,95.1886381382114,96.8604352276229,106.023702571197,108.818999367497,103.549790022823,127.394532292599,109.489138895847,135.959617963255,158.195028545356,176.399337489357,164.381546937178,141.197652384613,196.479603174071,72.6640098015077,176.688341462344,242.17597523034,199.291201597148,158.120961192616,33.7460077543252,-99.3279866096887,231.590019970737,-387.449141903606,-283.574147270913,528.191112409708,225.169673557284,-204.147769670409,-626.768488193151,561.124649807839,389.559951229629,202.765101393652,-695.069554131597,-454.098311679865,392.580628364564,270.580967932612,-99.3979044405491,807.583696714307,205.086871527963,34.7892602833949,16.5331220017301,19.2211988692819,8.71321725932552,20.453878230064,20.3885663977746,11.1629261310948,24.2832167259717,8.60306109937908,-10.3038006098972,30.7091467446881,17.7510721420554,23.2028499119922,36.9295365223847,46.4228727085283,42.603589991346,15.7000246720876,29.7177946708545,34.1192014094699
159.674511625086,146.449302185473,143.30075604815,145.826480550282,155.532754828175,180.71138233258,193.20283420404,214.195137311104,161.26387583144,177.212607664288,182.988583486356,181.048526157279,180.565027226568,205.076757273762,182.86097317633,216.789485327408,227.765838040144,268.417285546633,251.948720890641,228.667313053072,300.610541567992,150.188979071485,280.945441130668,366.121702932543,328.064671951139,320.891247366292,98.1264309653286,118.68624132446,472.605616670869,-43.4324236856053,130.538274776601,707.418724808666,210.295139225787,-215.321331152198,-116.525152210074,939.815538281253,487.080798018441,232.030226951733,-334.869702827066,41.2541543042167,502.486543348888,305.795214061829,374.688685175953,838.978958397776,231.423085352693,119.039743936668,103.857544531721,107.007173733786,92.1545272450135,103.907863043794,98.5079863911153,84.5608122877799,101.381378258865,87.6254489038221,72.8218619213992,109.551841418036,88.9065055767475,99.4900764578377,118.238455534673,117.204282538116,111.351624064414,86.4043864167943,95.3891074904033,109.035350274834
256.223893065594,254.619260900366,245.379966705557,254.214099765898,269.960795470358,274.646658587889,288.429855773149,325.053343363106,259.189617296303,288.042123873175,300.875593150532,275.880278799762,291.208429546591,323.148459377669,290.043446074995,335.732916309482,330.564016465847,397.612176881562,386.930002255626,355.27409520834,443.498406488849,246.150583455213,432.12487031368,532.329354541564,505.858963252824,550.096572901508,147.526050660722,421.724699258234,732.223454208112,403.687034720508,631.500532510047,836.73397026843,291.505535050021,-276.285023951669,566.440595347786,1182.22409862686,585.647541144966,340.032981042981,97.6735142235729,631.545706956802,603.741520457879,405.395351213261,847.354735438614,914.792110179904,332.706889348879,232.842106244539,229.458793595782,228.418413495091,217.648335730206,234.919602200427,215.091654274521,210.096218097657,220.363774918096,205.494698019536,194.256406256696,228.279564417121,200.667556002772,222.199470689565,228.09837847197,221.366760608017,230.593833666416,193.110862548039,197.014936691678,221.658843250302
367.466745552768,371.48308750431,356.702381941956,369.866890860565,392.849863370933,377.223398396832,391.764497821491,443.651851783261,371.123864122958,405.27297309541,430.09578805039,382.269725819954,411.807826013257,452.111640233201,408.694525579207,475.269800836477,441.113151758953,542.022208905247,545.340205960463,503.468222569135,605.089989712226,349.870576162924,611.585815328115,715.814175387626,684.664337506424,811.29598206762,178.692599287713,765.349492560515,954.125243096137,792.260262317087,1101.65725696457,947.933784810414,466.661453933731,-304.714874433947,1216.37968429796,1305.67504630276,701.97045794667,481.955272457965,488.388903257797,1180.9069820837,684.581763198631,540.853619032723,1198.52507233019,1001.73259301131,469.883087538534,349.341986944225,352.821972234051,348.055536049056,340.002564743023,366.846825090637,333.776516952791,343.384176005368,338.879554623407,321.701147714011,308.521974391371,345.25190541632,321.533012372994,351.208553288986,340.599078611258,334.224696614809,355.259483256296,308.423088930543,313.12759452272,336.911679699556
452.059589669117,454.875172891683,436.853151109737,455.834690929034,481.726563863067,456.442654605191,471.263591168448,528.894439915197,458.799536322275,497.070708943071,526.486891126149,471.148227930926,509.039655624776,550.060935520945,500.729868731385,586.188476085913,521.265290934304,656.437437947742,674.305199748324,618.026727291391,734.669209578056,418.387700520986,748.458061605611,864.199892825726,768.179189055576,1013.81752460607,146.523328399168,998.148751737431,1141.60903004058,919.886104209536,1453.0007761426,1063.13738243783,675.83244198258,-289.904924698958,1602.91251348875,1397.27089860763,822.831290319534,620.907888549844,721.729229921372,1533.1186765245,753.012808120838,668.706625906349,1361.36784973082,1013.16346832168,603.845341555725,421.690478621755,425.113297470256,423.789461193174,412.255690631388,445.899810355489,402.224428902349,424.657980371333,404.726326158404,388.319288189551,381.08172322325,418.147612436275,401.996663058366,428.384842123964,413.182277756578,412.545014560819,429.590233230141,390.773294971161,396.129297109535,414.165895918219
450.646470390699,454.682718530041,435.338198688345,460.479966423991,485.375157323795,460.587377510111,474.458954356069,526.16753410683,464.36530885688,506.642179405934,532.648867947242,479.747993072787,522.494197117679,556.909902432047,502.073322463548,594.912878781874,508.268095228973,662.367623616103,691.203171927585,604.128988818332,740.934954837537,370.826941458704,722.660800095563,883.692026281264,629.353133698694,1006.03889762163,-20.7330610097787,896.926369465131,1205.94050306873,654.047835782669,1503.74654689411,1064.08216577732,798.153261536639,-305.728081360367,1567.64140965605,1345.42694816392,850.584178619492,696.311073438408,742.292380106205,1578.21309895967,728.567632502642,713.874187482049,1270.97549915998,841.417283532368,666.642362060672,395.909570612068,400.35556252664,406.843003131687,390.6267687654,425.318209140777,376.410609657471,402.414326822242,379.283659955881,367.690062848957,374.209045317238,405.138397028477,390.615852701326,404.506973668515,396.817365122611,400.536594115952,410.648754473692,385.400503198076,389.800721379274,408.429274972624
337.636515871814,343.263433142811,328.496845224232,354.287217086398,375.410824734035,353.308386048346,368.905853211563,402.655825508104,358.36289241511,396.534526154603,417.247790269088,370.703403099984,414.207370723104,435.865608850826,381.362984443956,469.506463974802,373.093082272169,521.533153738731,553.197955186866,430.200723720976,572.821921774246,193.905599014269,499.863880087545,713.741667635337,288.629425473728,720.169927437101,-267.492056482149,462.546787058194,970.044941642817,142.630023184073,1130.33638550323,778.937910182941,744.03144943632,-343.90590573447,1185.08700777959,950.809584726491,692.029095404655,635.977799190958,590.594291118046,1320.55592368616,541.103837638511,616.186978296748,921.986011425974,470.809050844075,592.39484682919,274.252704290605,273.332549806703,284.995972531439,266.201013526094,291.52095835169,260.119931152831,270.615190075754,265.442781952795,255.631419803067,261.66358730606,284.280730597,276.496559288864,272.53040399272,281.823089545273,282.43456013797,287.737821613702,265.559629856052,279.147717061308,297.480372172935
164.83308968124,163.772673589501,161.802899846789,183.303289435652,194.552261339725,175.306645467397,194.558426682897,205.37667514781,189.886588827379,213.643749655429,230.662478387549,196.268345177356,232.930075770183,240.188987323309,199.5036673741,269.6534011612,178.772321975974,302.729478403441,327.961574829204,192.600730411334,304.237956089369,-8.33714182453327,198.732246939286,412.277214368316,-43.4387863997642,277.904007073352,-409.390849673068,-21.8653248217632,406.570264439623,-243.949971473704,494.455251811532,228.63964417599,554.462642939468,-311.262251828399,735.194282737041,301.388262413496,390.954075662503,448.081361791921,418.847128604094,895.643470053353,268.638697299807,402.76663523958,453.085394412495,43.2869165631391,401.023350612053,134.947752962792,106.773128355963,121.739110913265,100.185381955321,104.91512595404,115.287844177209,93.4634240951021,122.120455739663,103.407955545645,88.6693078183633,101.882771162492,122.35283109443,92.2177199639222,125.24929414285,118.928032276441,112.656737249393,84.8109529337282,123.127353678261,125.526318288251
27.1466615203906,17.6718716859901,28.2608131413818,45.1312826343639,40.8650320175064,30.3926048896383,43.5059101577765,42.7766345898123,54.4474186362701,64.0080994479277,75.9293210250498,60.4810675473143,83.5636248777792,84.1748852249922,58.8086409761255,102.905094299997,33.5093972371583,123.52706542523,135.888404501038,24.9294022571669,74.4723344937339,-119.079265110574,-29.1221790982587,111.725819145799,-197.945539263936,-115.697605359909,-356.608048429554,-307.289755818948,-275.522199642341,-304.456895603634,-85.9191301748601,-366.924932075339,333.61137067284,-193.503083972668,428.172462094719,-262.979889528926,79.8844762987084,223.741027840581,366.92668078221,492.756406984214,52.1357140120362,165.821238953851,76.9301969659918,-267.702995894601,182.416180402194,55.1395776925457,-10.412822339232,5.88307756623894,-15.5922553881502,-29.0167175894989,15.8851960344676,-36.7560394286845,24.3005588678687,-10.158065425451,-41.3802265792168,-40.6900179416569,17.5200716800731,-42.4849866990015,8.94625998131908,-2.31454656471807,-22.6175045915232,-54.925710950424,9.38398475633737,-13.227154205739
-44.4933659986282,-51.8471518808294,-35.746743181938,-25.4509779856493,-41.8075215835835,-36.8382932275814,-41.8479477761831,-42.1227203300901,-15.1009182071577,-13.6235942034804,-12.2517661257393,-3.76069478274774,7.32422098391139,5.03334970413277,-16.0116307999239,8.00935160912613,-28.1429281068294,23.0575893251506,13.2026766832506,-42.4355727491528,-65.0300147828993,-130.352178430519,-144.01550159845,-121.775276807606,-209.095526112612,-365.13062672522,-213.318172719478,-397.258161972703,-834.641586698684,-187.307708963832,-452.861993394625,-833.030494079488,107.472333493022,-72.3467004460423,236.885143207932,-568.063291071325,-175.920861024996,15.0552586277528,381.654574841591,175.05094137944,-78.356586668238,-42.9804173603637,-127.137193760828,-428.716865055189,-15.320206696424,18.782693035727,-65.3694152357598,-53.0120756716135,-66.6616596672201,-86.3125721209497,-34.2641676781492,-100.075023364884,-23.0947889582074,-68.2395422090955,-96.3025799330263,-106.567326894866,-30.3778307539147,-106.580623703221,-50.444665202583,-63.4326586513761,-90.6603412091363,-123.689032140721,-45.4967688699322,-82.78250837788
