-2.97235395469104,4.42228271307692,-1.1599430067087,5.14724709226986,8.62707611239596,-3.11734683052963,0.724964379192938,7.32214022984867,-6.52467941273644,-0.0724964379192937,4.49477915099621,-20.0815133036444,-13.1218552633922,4.13229696139974,-13.1218552633922,-9.85951555702395,-12.1069051325221,-9.42453692950819,-1.66741807214376,-13.7743232046658,-5.14724709226986,-4.92975777851198,-6.59717585065573,-5.36473640602774,-7.75711885736443,-5.07475065435056,9.13455117783101,-7.17714735401008,-4.34978627515762,-5.94470790938209,-1.44992875838588,-3.11734683052963,-1.37743232046658,18.6315845452585,-3.26233970636822,-0.0724964379192937,-1.81241094798234,-1.59492163422446,0.942453692950819,1.73991451006305,0.0724964379192937,-1.30493588254729,5.94470790938209,0,-1.30493588254729,0.942453692950819,9.35204049158889,4.78476490267339,9.20704761575031,15.4417412768096,6.30719009897856,13.9918125184237,4.78476490267339,10.1495013087011,15.3692448388903,16.0217127801639,6.08970078522068,10.6569763741362,4.6397720268348,9.78701911910466,14.064308956343,16.6016842835183,7.46713310568726,11.5269336291677
-22.8033242577464,11.0516185941617,-14.7834471590086,14.7815437866757,29.2633528409525,-21.3889154462543,-5.33212954739767,25.8263264883793,-38.7890702628156,-9.69603443567258,6.82833694932986,-102.100987675595,-69.5125476710767,8.80568556279539,-67.7001367230944,-52.2204092393285,-58.8244209824423,-47.6190702476511,-12.5516327407596,-65.213856500062,-26.6709596054399,-24.189049014803,-31.9559168528892,-27.8479343135295,-37.5323163961475,-25.1670226546475,42.6182725753516,-34.7078684055587,-21.0021188346177,-28.4249927286202,-7.16986463335092,-15.0817253472757,-8.20330300973381,87.6089828123954,-15.4797274837659,-2.01141201622744,-9.61479873296229,-9.09029196614629,4.54441771100722,8.69083328552425,-0.598459748867132,-7.49682687605366,27.627531911508,-0.724964379192938,-7.56932331397295,1.93454594591265,39.8079431978801,19.0062819756394,39.192451747632,67.5434914942012,26.0126654876389,61.7510591813168,18.8612890998008,44.2443445240743,67.9969583672297,71.0929038639829,24.4007121520335,46.1448270672251,17.5208332703598,40.4219781039964,61.0801029945304,73.5548696649752,29.6316612070763,49.5477900170364
-68.6898669518534,-7.17484390077458,-59.1538610061501,1.37820373799124,20.4401010725251,-66.6306384958974,-37.4910457643054,22.5795439943179,-101.092524781644,-47.0648290844435,-31.3040991726687,-220.584839972157,-155.401832541881,-16.4789867005847,-148.324409136094,-117.405018075621,-118.80985763383,-100.247026810537,-38.2763898160218,-125.816861940998,-59.0981464502632,-48.5717193887228,-63.1295587643511,-59.9528534981712,-73.2314524658453,-51.4846045506306,80.9884609660765,-67.8272675482582,-40.8675932473627,-53.6782760182939,-13.7727156773759,-27.9310963723822,-18.9964226377846,167.066481725898,-28.7444979228943,-7.12164199144659,-19.496255166881,-20.4325577331789,9.93517454175348,18.839458219237,-2.72476466839086,-17.1242179468936,51.9967393330329,-1.9175142445317,-16.8882403876229,-4.40601126908019,61.1835865793188,24.6922353390907,60.4981462032644,109.355411980161,36.9341927575464,102.046084802456,23.424275947569,71.1738602814597,112.552131767093,117.837054148989,32.493096848831,72.8039014208735,18.2114495618883,58.1169750372526,98.0348724970305,121.593765784077,37.7482499687811,77.4979717246863
-103.903781479979,-48.1711593995669,-118.44989247602,-34.8532600129046,-39.0498006304461,-128.564525151406,-83.521104315392,-19.4714034231129,-153.8972809461,-93.439238423393,-104.877364207437,-278.550100242399,-190.71781187904,-72.4437546686571,-189.641031291986,-149.498581956402,-134.623009447483,-116.931524509605,-63.0473252448359,-130.585718885358,-74.6013190909476,-51.726095430283,-65.8366715846869,-69.1625492271766,-72.8004480627423,-56.5763588918885,83.7591197920879,-67.7299895369958,-40.097660106893,-48.8935849846944,-10.8668109297117,-20.4119336154824,-18.4831959277138,169.632371124796,-24.1679088553696,-7.36074749075961,-16.0315784134434,-20.3458903518455,14.0844486032384,24.6133795789666,-2.39162193516644,-17.7278469930922,53.4975063540389,0.699268904600023,-15.780598352169,-21.2728351931146,30.5906000269384,2.12931659671634,32.0993122947297,68.1305923592427,11.304795732735,68.4393280368234,-1.14459421065612,43.0348633112345,74.4892080141757,76.9907349548596,5.19895036570602,38.5605472626199,-13.5677846007749,20.9717002569831,59.0311674067602,79.1791336830721,1.76133712383117,40.2895669638973
-71.6196280262048,-47.8726617309502,-133.115040752469,-26.8682584133358,-73.1611782527283,-172.861905312826,-83.8443318760008,-35.7419258014235,-151.504720811148,-90.6806340718784,-122.57292068407,-266.561649385786,-136.408012021354,-89.2273822944943,-185.917153514483,-127.426125894518,-109.065132212795,-91.6059855537332,-61.6898965143391,-89.8937810452259,-59.7065681851753,-31.6397685460635,-40.2453108385431,-46.1987888628818,-38.258497944559,-35.1880590662568,64.4852077531085,-35.0170718293359,-16.8216471277298,-18.8240728616527,4.58602382704358,8.93409084540507,5.1704862143229,117.350629624893,-2.00868334718618,8.08306677364126,4.60900814666119,1.28897504851404,17.4652280270663,26.8414986723708,6.1095246229588,-0.00744707240945064,42.5874714152472,10.7655761587789,3.84753170798395,-36.7894892954763,-18.8056733649661,-26.0874873556227,-12.6338981156977,-4.74413623842771,-23.9442979493901,3.90353837777413,-27.8907184886563,-6.32342864342005,-0.842305532692711,-4.35394778704511,-28.3162841141203,-22.5649174075322,-48.411591032485,-29.7612899613346,-12.0840348406642,-5.7397896091531,-38.7790267376738,-27.1444978574356
18.8185510977982,11.7514714913618,-68.9731734198142,47.2989935532347,-33.85427498436,-163.307221162053,-14.4719948718468,12.9371848327274,-92.7833120893325,-32.5745844562344,-54.6365332305194,-260.048947370855,-45.437733225973,-38.6999304948435,-194.797027061532,-92.620036438985,-91.0167705378179,-66.9239718892438,-35.6094494856575,-59.5631674894536,-28.9236791380261,-8.42810801230721,-14.636366001549,-15.738067620034,-9.13569152917293,-4.56209546976527,65.4462342364827,-3.80197388493497,11.9650521892384,4.66054994395013,25.0585265712693,39.3018146554553,40.0667363985063,97.4026321851118,21.5123097168458,33.2105488984422,27.701584544472,33.7220338892176,24.5690138797917,35.8335231098081,23.0301340964482,28.0110871514879,44.5833389001779,26.8033451438418,31.0800581949323,-38.5723090771228,-22.5641288749205,-27.7478279309746,-12.3602920577528,-4.41213909274109,-24.7852067858366,2.90988253339617,-21.8860552251326,-6.25716356268286,-8.52942349727448,-12.7524851216194,-23.8499812238028,-31.9715902610887,-43.9074342885643,-28.7259115322007,-22.9495971069016,-21.3088407263907,-34.1047675094041,-47.0656833470608
98.6853013094894,66.1604751473936,37.5062668337139,115.899502436974,14.1626161921029,-94.2984934290935,70.2221251859887,62.2426365794119,-16.2601370423307,18.4942444399275,9.2733690333817,-264.954971449159,16.17861189114,8.9303996631978,-218.240185227384,-76.5112984293876,-87.5650889960021,-58.5537028024864,-9.50499666474767,-40.0424848006114,-1.98478548654142,11.5412054165576,4.89858405081663,9.14914038407448,6.6171589455511,23.7691507315814,81.7239485947852,18.6738273912166,38.7466442994568,18.9730233017275,43.3338672318195,60.3727802185493,64.180343588252,106.298945406927,40.1203695333589,51.2738575709822,44.8997435462364,59.7036001322966,35.817045476959,51.4713971193109,43.6919216411664,51.3809287654664,53.7470380025446,42.7730097545469,50.8413845329341,-29.0591186123532,17.9715122855115,-5.37079765680854,29.7907429310291,58.9744983739446,5.78377159993626,62.6821686190364,7.01198599265449,40.5596548313838,51.0958944537165,54.6314382457573,16.5964015680023,19.6868710225892,-3.86621027362812,16.1020345333806,25.054591991132,33.3600587572836,2.58214973894542,-9.58571396960013
127.355680832768,75.4839136170425,119.367224006133,128.929675099688,15.7492764300763,-6.44042360737286,108.744738815175,55.3294561744414,32.9702528070185,21.3956179225363,6.10176383566571,-229.032228314288,24.4809289985813,-3.53358645835119,-199.321642139166,-66.6174739198331,-70.4649540192757,-46.9070879266419,2.37286724774095,-8.3441431545501,15.4226643719967,34.7237082928281,27.9480750296542,32.0934944300301,26.9734540588365,42.6353220448167,88.1177565257967,43.4693660852963,60.3836494577385,35.8248823139375,55.4475136368711,74.2003956609296,69.4057723194016,98.6703883159363,53.3591335671181,57.2523404828891,58.3810177086139,70.1313017836581,43.6979887369742,59.1925890148503,60.1656039034751,63.8257856367662,55.1035136254974,49.0108753076742,58.2648700379486,-20.1981432315281,55.0338132645002,21.0457075349266,68.1830256898168,105.755807282098,38.882052693682,113.543698096905,32.7601196622392,83.7035727770585,104.987733756322,118.51304981339,59.4297825638283,80.117323705386,35.7502176586281,58.4225650417351,71.2563097571607,86.1415836924389,35.1318451052572,41.5412934292046
108.343659921653,42.2500687456231,134.871874272675,93.4202851190941,-22.8183734435029,45.8552968458824,87.4045950548018,0.378265148985249,36.9304203194405,-16.5578290270936,-55.0874000876135,-155.19891963742,-5.66764559036242,-71.2629217687436,-129.195665567707,-45.3277127492411,-22.4590056047726,-18.8986530585112,3.35224863363252,29.9913793653847,31.2618219998972,62.7294309280112,52.8436068923287,46.4330367627335,53.5507493238413,50.742409375313,87.2393451005065,63.3994213750497,69.519854225577,49.1952093437252,58.9588745127797,74.7349256943063,59.6915194810491,81.4257310270339,57.0501532012878,55.7713797428794,63.1929048623406,61.4635018041147,42.8420075390485,53.0113815223411,61.5514782086722,63.377739431294,45.928842166656,40.5779868532643,53.625935254784,-22.6652926351403,43.1155380616429,26.3682043839298,60.0824238719957,86.9144893913646,47.0253874829137,101.808092577321,38.74288344156,88.8650046471485,101.987672812422,117.216587560514,67.5472695378131,88.5056359400532,42.1166749168836,64.2769515476116,71.2357784405564,83.3278615998827,35.0478360440826,50.9000106914489
52.6705034784388,-32.7700300220629,89.8574226598208,19.293168952618,-89.2680358117541,41.3810106398428,30.995329323161,-80.1406463769445,18.4234930446349,-70.8775220820968,-149.897422737347,-124.310921530121,-44.9527601512314,-168.808165137062,-82.9768735505025,-32.0827962297758,34.3251068517242,6.36045313026055,-8.31032748366466,54.3836357784815,40.37393037304,82.9778017308792,64.1554453096007,39.0726768518364,68.9236416053321,50.9667293525936,85.1616634069033,63.076650971027,59.4997237333762,49.2762988035847,51.6904322343048,52.5828383869869,34.7278989387869,70.97268059602,49.4122695556904,43.7063931581328,46.665592094348,32.6226125311408,36.9746698951363,39.8861154704073,38.9518075658998,41.22880534561,23.9309780134639,19.4354528388849,32.563590411305,-36.3653023953247,-35.6644161194636,-8.61674623178595,-11.4733387357776,-7.9381659695612,15.3376683979583,12.5760898408645,17.3771180254407,48.3628668849332,30.8229575321282,29.4862256651798,30.4140845271943,16.868272005173,12.4685544475458,25.8114555836139,12.8359324437868,4.20589723582357,-6.37406697254587,-11.6700633255653
-12.6660722455414,-117.747153036926,32.3321721195136,-63.1618304418666,-158.594981623976,4.30978369689189,-16.8100476986988,-152.654679036751,9.29498280750416,-108.30889218707,-229.785118599706,-199.059129808293,-77.0277267124997,-250.521222308649,-116.038759129946,-58.7094821826974,46.0993349429339,-6.61873898077122,-41.7530354302775,46.1771475923563,20.5232644129013,74.0070942214252,45.6070510618616,9.92374386893354,57.5219154371422,33.9822190940793,68.6780538102252,41.9277745984032,29.1647700652042,35.0709290393599,30.9594608999888,13.6151276339725,-7.05083794619499,53.2083714011647,31.8480384449061,14.9662067165183,6.40176803732954,-10.4337377921898,28.4172601682852,20.4564588268972,-3.75344388116815,-4.68496398267344,-9.13393702371626,-12.0879531554889,-8.01750307377677,-45.4029292286531,-137.606065863368,-60.1642569134512,-104.960034494424,-135.607473564459,-28.6774583661661,-107.268192230141,-10.8887328716235,-7.50740154378073,-66.6022250607014,-102.032556286707,-12.3406127905785,-87.7827530431185,-17.3126351555058,-21.2595657286266,-62.9178390866804,-109.874487959637,-48.5963056919244,-97.878580837445
-37.9483374382322,-146.560263068033,14.283306904831,-93.6139808257906,-182.314157114173,-19.902518754316,-21.3206450596566,-170.133729070203,12.5150750090464,-104.648202631832,-237.064372658887,-314.455880963606,-96.574589131952,-267.781535847609,-173.024621816947,-108.719348370867,-3.37688939787926,-56.1758994514559,-87.8091037425404,5.17706108070518,-27.733767731317,30.8491568969599,0.520234586639168,-27.2416051860832,23.8475580089239,-5.3299390133668,30.1282203317374,10.2511542703652,-11.4719362182646,10.5995683055731,-0.100081369164607,-25.665665679904,-52.9520676765832,18.4206690702921,5.16720032048276,-21.988045751649,-39.0012409692913,-53.5402506429865,10.108207511786,-8.24697556913836,-46.2081211026217,-52.9354153480489,-40.7869192088544,-46.4252672434163,-54.2985778006027,-38.1759143757854,-186.95614563103,-79.5056926147805,-145.512096500179,-205.359042393185,-38.7536793867606,-167.339686485961,-14.0265021642243,-25.0843547402826,-111.250796613466,-174.86602898593,-16.044753650021,-131.789034584707,-14.859975960587,-26.9602405001363,-83.9900050260319,-162.187378526969,-41.9583675634966,-118.703607195966
6.13503900141219,-90.3990693148265,48.6601421913835,-48.3068330957361,-132.139761478104,-1.2826737690781,16.7135042793623,-119.123404943133,12.9925193317928,-67.4122970913315,-167.341497431264,-345.471182429353,-105.565135983682,-229.507427382935,-180.070516475775,-142.581725221205,-69.1832373203807,-103.33501597605,-126.557806012498,-45.5395504900545,-78.3641957282806,-25.3807397524107,-49.4479468125613,-62.9541564847832,-15.2650634508743,-48.7908557835791,-18.818582008387,-24.57883661822,-49.2842674421808,-19.0244275542239,-32.3510188336151,-58.3190418941176,-87.1278306438925,-22.0935972761656,-28.3748975653916,-54.5298700970422,-71.9112477699881,-87.9218248747968,-22.1855566335604,-40.8462667314018,-74.2565121495245,-84.4325834026466,-65.4072039142176,-75.5859882388343,-88.0690770062513,-29.8678488797728,-166.331249333839,-62.7693579923169,-111.224529633356,-167.361302354428,-17.3589997716717,-118.132562854849,4.26077660990423,9.11887842459564,-63.5264653274545,-113.444936419216,12.5469199170099,-62.736099739525,11.5814817938043,14.8847965791731,-18.4743170712749,-83.7126638457178,6.78962368323759,-39.2866764725723
93.0489073522551,7.64005382987755,105.562450193244,30.4428553124884,-36.209800972997,49.5789346696105,64.0994989246317,-43.7352196310555,-0.841259106011942,-32.6145438923453,-76.7874229088787,-275.262033121317,-126.240232828764,-200.60916814674,-151.569007208167,-164.172457718652,-113.977944117801,-131.101879865669,-159.50389704817,-86.0716182927903,-117.913719028312,-71.120524461661,-87.3823153537833,-98.2186371310447,-53.2825680485803,-80.594857664205,-62.7736054610418,-58.9754782245937,-82.4686305468784,-49.7481748236146,-62.7441966584711,-88.335271573078,-114.60892623979,-56.7565240452157,-64.0802427165543,-85.1253348352825,-99.5940103060763,-119.462775578382,-58.2571801735889,-72.3938661419665,-99.2459385049284,-110.545777673417,-94.2544601058818,-106.232981560747,-114.662436537839,-35.9703005047378,-128.031510570907,-44.9978461338197,-50.9100661784568,-65.6843595248846,-0.691878598984696,-2.04526789931937,22.238194223198,56.6782397162311,37.4134928841074,49.2246928241962,41.120213000415,84.0196177533797,39.3276113510136,72.279405547883,100.870530408032,97.6154264236221,59.7480195715128,104.808128358755
158.679776884928,71.7487400646562,141.908744511833,80.0857722398668,31.9432062943814,92.1881344706887,82.1324856216894,-6.89385862364052,-37.0233834125039,-38.9024254077743,-32.8110179917694,-176.986928356174,-170.711537876791,-221.337354067035,-116.898899189971,-183.449758655596,-129.517914059607,-142.287163090345,-186.141549033537,-103.673955423483,-138.082601564146,-93.5257981648688,-103.273300058732,-122.549202432265,-81.5109888480952,-98.4330393783252,-86.8702951904639,-83.3474826739733,-106.179075667502,-69.9231016233802,-88.1085872767361,-111.40840087602,-143.851119888054,-78.5565876772049,-89.8057476041988,-112.553551047395,-127.796834443418,-148.903047483668,-80.0713711126377,-98.1931753925309,-129.273479920608,-143.106138484703,-129.039672939462,-141.552788394995,-144.416537040887,-41.5961558871676,-119.266178197637,-36.3507510593101,-14.4524470295362,16.1510762481709,5.20080020914638,89.3244267420025,40.293268981277,82.6730348261172,115.697713578752,189.644195939002,58.8272974918152,208.436348966801,60.0688832849396,114.087116899985,200.8044924959,258.843607718974,96.8226459405347,232.471845370393
166.088810345553,70.4701576310922,144.461479911917,73.3554134334574,31.5055499114412,108.001942938126,60.1243960260672,-20.1172276779063,-84.5996227256122,-80.6158431291895,-48.0326894661925,-58.0315962121654,-196.486763196135,-252.292003420828,-40.9846932662015,-157.695865653487,-94.9965494800475,-113.185804358568,-168.103746906718,-74.1274679092329,-112.757930730552,-80.9748591194955,-83.3077672524992,-108.741808392677,-72.3241081535086,-89.0848642260715,-76.8124843350618,-78.5564045933738,-98.7558723735281,-59.4643650306817,-89.3741286189215,-108.362553254983,-153.396233792549,-76.9569925736476,-84.7311640890151,-114.49768188174,-132.424546104683,-155.407215909784,-73.5303560255631,-100.968795093051,-140.954145327776,-157.520159221876,-144.202216436507,-158.711863334347,-156.31059805974,-36.3809181885351,-140.836229295723,-31.4579593596373,-14.4545076938832,29.6658371850986,7.00809902265273,99.8937957274918,52.0602252651266,71.2130243540256,119.447023946556,210.824422548056,58.2698262157687,227.990487123901,63.9174143761705,116.800252831759,216.969643959727,286.191174885148,105.224363421973,261.044022703658
133.014063237188,40.111779515063,127.629321559551,23.1276332646991,5.89007720362247,118.950341505354,8.6746693636416,-42.0412765888895,-114.160897645424,-117.512619842231,-75.3465140602799,139.346034495004,-159.257257629328,-234.940561691639,109.158327680179,-54.4642246473613,3.95739716454849,-21.361876211405,-85.1643575638327,9.20129663375396,-37.0420821961396,-32.3645047435159,-26.5713930763876,-52.2635125211083,-19.2044478962958,-42.6472434300404,-38.7243579935263,-38.6362435513814,-55.9300301362782,-19.0359313894837,-55.6041844464077,-73.2055138730561,-122.554861335848,-51.9209523709703,-47.3047840228739,-82.0038934460635,-98.3606245137639,-125.895028098418,-42.05998539415,-71.2806927603955,-115.837209985019,-127.951666644953,-122.684109459281,-137.809714723267,-127.808802166176,-50.8662254807721,-167.888894570717,-53.0811845804017,-46.5861473345506,-10.5134987612098,-24.0019498945805,45.8944748725174,18.1799798788587,8.98497136068894,55.6298413011547,140.578423934485,14.448125347313,163.36097011679,30.6253110883951,71.3607670154043,157.516379205547,205.425174313243,72.1724298313993,199.381575728427
73.1019813109149,11.3835277375212,75.8103016294716,-57.7551168820969,-1.01380367999221,126.197857505666,-83.578101808204,-57.1884944553054,-126.633771047525,-147.800069107589,-87.6969640252111,389.311608125649,-94.5597454959971,-178.505666146475,289.802784316057,77.9705444812364,126.561842473509,95.54182841318,7.68244252522854,99.6254954732031,41.3406629026264,23.8451673026364,34.3117224478428,6.41111622767654,36.1697628900961,10.5492117862171,-4.21219847402879,7.9427839899259,-14.400852003197,18.0894024689099,-15.3954330595413,-36.2063670372537,-79.7762011997769,-29.04151965329,-10.2573982139167,-44.7966741856137,-57.762423345859,-83.9548393129495,-12.262580951735,-35.4049107605675,-78.109122984504,-80.4660568077143,-87.1086669452763,-95.2572123326876,-83.0943216695254,-107.140540645184,-182.178742620293,-116.828521351387,-101.686822793763,-60.0269777489575,-110.712410247906,-27.8096080085176,-78.4208386978915,-94.6682230032382,-29.5783237048952,64.7964589649022,-77.1246545356706,94.8087948694586,-45.0951450418222,-7.21609925237519,84.0342089086906,126.33494984857,4.39617566891197,133.1015930442
-25.7682565382776,-31.2488499529241,-40.7465052487185,-155.458863805329,-22.5297297362374,92.4667632172333,-223.34612637381,-91.3064918751626,-152.67612819441,-195.700837954231,-108.617567792372,585.68232754267,-62.9040631111166,-125.734989803436,425.917223108945,171.997680639529,211.818858383012,172.666256665305,52.8346536588266,143.217925023741,76.07970286872,48.8427626447228,59.5440277714161,26.6446345763264,53.8376259914347,28.3598195568418,0.636380943386913,26.8290180903757,-7.56933149384641,25.2593524153307,-5.85734787008183,-30.9759314441154,-66.3221859668277,-33.0650732429291,-2.48380017268066,-33.9411232526801,-48.644619367103,-62.9225544375919,-7.99808691930856,-24.4708810667092,-60.7772965842875,-60.0789553378609,-68.0726977440837,-62.2128911805854,-62.1722159391563,-158.365457970081,-182.477266056916,-179.881107668953,-158.112580115085,-108.937668092443,-204.126217783066,-105.70407543572,-182.162102507449,-196.003274906741,-113.563103283323,-9.45135762704213,-176.315411489201,30.1650455187984,-134.411676313152,-98.3000119545254,13.341629828456,59.1987660637797,-76.3593782597933,77.8562187418891
-145.617764001456,-110.229858262785,-182.740984123439,-239.230353099287,-115.101037140458,24.3481441405081,-345.408227206419,-167.455809179875,-175.592393327937,-243.449461362085,-167.237984567299,708.663232132441,-41.62936715373,-82.1633700799548,500.389716797542,225.780525739725,245.832260486036,200.063818782025,66.8087032202212,140.860764798732,75.0250538623988,33.3138083982098,47.2127428473022,14.4156162071514,37.9783386281996,12.4067175119737,-23.2827249792341,15.7815812693748,-26.0336046713915,9.68147357204749,-23.9406556833499,-51.5368100575688,-78.2187760663188,-55.7832389460713,-17.5241396597987,-44.9623200579651,-64.1973952387815,-68.2278407389,-23.1496663109455,-32.724182754852,-64.4523780219121,-66.4482184366037,-66.3974529634559,-48.4958503503285,-67.0230291110538,-142.954729708875,-178.732217684191,-189.236333338173,-194.598358872393,-183.313197092891,-230.947625716731,-198.398280345702,-221.237787441379,-256.775588044164,-207.582927545623,-133.932278034277,-236.540707827889,-84.938853770282,-190.94958428699,-181.662905469206,-85.3186178621648,-74.4237305090453,-145.904888861997,-25.5290574129999
-247.922843179309,-230.392211730751,-269.077411733431,-305.516040059342,-278.898456925721,-10.5161609462042,-373.589650822774,-288.401415469536,-129.869142969208,-255.814525088578,-262.619315663487,827.94461314838,32.9312075438298,-31.146445220283,555.747872444656,277.779237728601,256.350723107545,218.768145871989,87.2437726436284,128.10957942171,72.4872515659471,1.40561728462248,28.563514922074,3.29099207927893,14.4268505613738,-3.88417557934294,-58.8141775980479,-5.1757011816173,-41.6625015659141,-9.09771435468583,-40.2986612426199,-68.0029703710149,-83.9267032719059,-73.9942081029181,-30.8248479684177,-54.238066514721,-73.0776225682406,-78.5951128776396,-35.3777620846436,-38.6726625076109,-70.0921809771691,-69.0489985958289,-64.1597004671681,-41.207354940778,-71.8375150153471,-81.6024408974282,-189.3971796578,-162.461339703106,-221.926608116511,-291.539446118532,-198.70128898052,-308.442605537527,-202.222340453414,-283.445714859492,-310.52926954596,-306.969501006889,-249.953404808599,-244.304590420995,-197.991971789455,-233.941693422161,-206.107389932247,-272.588088894988,-183.709542883041,-172.41598903293
-337.906929658788,-364.417900717018,-290.1277375409,-382.559430155216,-436.11231947049,12.2398136871752,-336.379411126909,-404.976107609503,-12.1011742611462,-232.824933379819,-326.097345356667,944.560131077268,146.052590196784,42.8423802311996,614.367293972281,328.330957909468,265.432545717607,243.461560258605,109.352484989767,122.649511299349,79.2818935703962,-23.4299937254107,22.4890507264123,9.02653415949765,-4.00187709247069,-6.67103660616197,-89.1186294890197,-19.7058513930802,-43.7321535003796,-20.5326563906971,-42.8267425288202,-66.2431319735341,-71.468818819557,-84.3929187476809,-31.4045063577768,-51.4135230511894,-64.4127215712681,-71.6591665844655,-35.8739042498082,-38.6210029935568,-65.6083427103194,-58.6482306554913,-51.9095044912913,-28.7107966348475,-62.0810610501001,-44.7909853544416,-229.839478777576,-160.744813985849,-275.574966775054,-417.181460472739,-183.261042374162,-431.073607664232,-191.139614712199,-316.085319617098,-414.03781027231,-482.762365238993,-252.814671993351,-394.459557504732,-190.35081293766,-261.041071380163,-317.706534489953,-455.503175922719,-196.829943808543,-299.52128316892
-431.237813770637,-441.587660428709,-301.304694330269,-454.456151994725,-485.750787191638,43.3265838344491,-301.496422952025,-422.641528119484,104.684267001349,-175.203430829128,-250.72243823518,981.787719426437,239.654077679859,164.291033835511,637.084011820579,342.738368090815,263.307833262302,245.905881992382,117.88964444749,111.875467312249,80.0129851872274,-45.9412132345795,16.639146710745,19.5965681388862,-24.1431412522579,-9.15081119123194,-110.636826400004,-26.4566217449692,-38.9780543876511,-27.4443133211325,-41.9451384985068,-53.0800394330149,-52.2407218820133,-100.021904993087,-30.4020028974324,-44.5954548671816,-49.6893436930863,-46.2986666576235,-35.3129250419144,-38.7627155912599,-52.1315328467301,-45.8930221381484,-34.3764997117553,-14.1589516987638,-44.116696844814,-43.0977536150023,-283.784948978589,-193.596109541873,-358.207331651251,-543.832279378221,-211.750226250197,-566.266656611283,-206.80118599682,-376.678219675675,-532.39423168922,-659.797569285208,-279.841422292817,-540.530628069942,-200.804982182695,-301.899774875839,-429.504745706601,-612.982311006388,-218.564895088411,-405.786046680508
-469.274769683566,-393.406952907496,-298.473182713448,-441.351255094534,-390.83961983254,68.0060364977657,-234.583720888313,-290.948971182208,204.734205055028,-36.1479442790945,-19.3946737977162,917.017685881613,338.498937869446,352.359530754243,585.673387836184,332.447706050481,220.016889455154,217.336822028786,130.811781569337,75.3560607547956,68.9538955301148,-87.5955368135461,-3.90192007928148,24.7873114993778,-56.5051161820798,-19.3603121109661,-137.570216579794,-36.4438366468802,-31.8187251280584,-44.7969287532746,-46.2298776029348,-37.4875963185658,-30.6711955551731,-128.146905298538,-40.2483847045819,-41.5854660176826,-34.6602438045295,-15.2260777255296,-47.1805780462028,-41.1495764061783,-33.5700926377937,-27.8166662585608,-16.0619505956051,1.61294359363101,-21.8969329506434,-21.0903517619522,-296.608390007976,-201.578236652827,-410.416920280745,-636.897920237859,-221.248800152279,-687.394056887752,-196.816104744314,-425.514863502921,-652.830766915759,-851.999328630463,-305.690899008773,-710.399124515585,-205.653663119677,-359.274950269959,-554.807130617072,-793.292712504818,-252.515221788345,-532.006028178065
-369.347408554017,-218.257124779117,-211.144283177584,-291.0803290719,-183.892886571546,126.95125752986,-69.3877276145269,-43.1002720202324,340.073325872221,213.453215516313,284.57065492426,793.674177394554,501.422390059549,590.14415164074,475.387640219939,347.597207351957,128.749919683184,181.835574060755,169.552763769012,14.7245203080631,59.4762388660623,-149.701429576627,-32.406253031743,31.011403357659,-97.498937235415,-31.2057509327341,-181.9219023051,-54.5618071973595,-23.1718469644078,-79.2607321723341,-54.1737510212177,-23.2101777261741,0.218563777395136,-166.791106645572,-58.4574286953948,-40.0181630394267,-14.6507946455378,17.1265954745624,-73.7932360236039,-47.1739223938684,-9.60574339336349,5.34155742130461,3.71202561034055,25.3619629589427,11.931056692986,59.9705033125732,-207.025570743057,-126.709706677428,-354.829440020771,-615.547318421003,-145.225426112836,-705.520668583699,-118.761761268589,-388.551041409257,-683.702606087707,-965.000743090992,-268.198707138007,-828.237627506028,-164.554867396007,-371.390208476244,-633.762491259851,-942.253330491347,-252.688086132003,-636.09225421227
-164.303763955975,-3.8627763181611,-45.5197452661474,-63.5008697276825,62.8926402404021,198.71448828775,138.960765870171,233.058067542471,480.199685932092,488.016935621666,585.117581048682,601.539374675064,668.497009327655,807.061500664812,314.561290949936,368.394681687695,18.0895394768996,138.88548468266,207.476491506242,-45.4787866202343,50.4720379416483,-201.693673054836,-57.7396958163407,36.0704278878458,-130.490913185885,-42.5042439080969,-227.662813727154,-71.472862393299,-21.3730654695609,-112.549765871279,-64.4319095980325,-13.2933428120083,36.0275363133211,-206.026323638986,-75.9881983730332,-37.4671530549878,7.11764008748015,49.212320888039,-104.815224323897,-57.745695603473,15.1750025150614,40.6700910854244,18.6617013422395,49.711993738475,50.1736621451164,178.366525358089,1.40179360873621,27.9856479701845,-167.320731309402,-413.44586659583,1.18189203731637,-536.024016281395,3.85925884062662,-242.212270884408,-537.784468144636,-846.427630702061,-152.647161833043,-755.243977681798,-80.0729896440546,-283.990071168654,-572.096850666838,-910.463778985166,-183.559860594909,-611.724222936533
22.8307249305223,135.511242873358,95.4740155174995,128.762866391047,262.255277351737,201.538849885822,277.329565118941,434.535736440969,511.438759045113,648.543576379911,823.419163562254,294.828467957728,696.244161114018,902.645361297051,93.4514195452439,315.202466984112,-86.9460129863594,66.1883738120437,197.099431777947,-91.1104264625625,25.9939976074755,-214.893508476735,-78.4071050630344,28.2214282827011,-141.178729077362,-52.8421623144825,-242.298926782279,-74.9241750267423,-26.8570501512101,-121.609782643405,-70.6905277755565,-5.39808549354531,67.7387964904405,-227.29177205702,-82.5314020248478,-31.5334212613845,25.5867615824645,74.9846112677273,-120.546470367183,-64.6898243433291,35.0455479969939,64.2278503279281,24.6716605019775,65.6667662637139,76.7458633507328,281.919548149404,276.155168394214,209.216909053074,102.997535240572,-70.8718367451192,151.846257000239,-208.139213685557,121.532070515113,-33.6640607843141,-241.682812035364,-493.078456621062,6.34202564116543,-467.155024182272,31.5771789152351,-102.893736042482,-348.671824615472,-647.576436299073,-49.9941534807608,-429.049759221558
141.827739975578,183.445432648057,158.526126652252,246.905757397318,401.086551276742,128.106624758309,323.019414021024,523.252458078538,403.935435077468,659.460565168702,943.6967310906,-48.5296099474266,543.288605795691,840.125015028054,-120.495712240752,182.335985690183,-170.861375242792,-17.8560671963266,146.759583229242,-123.856246866833,-4.12562983024652,-190.97045391639,-83.4577210437192,19.555382834193,-125.020863536515,-48.6821340604966,-214.765566890164,-57.8061830557011,-18.8319324818851,-103.145562674091,-55.7883736030059,12.0639386259082,100.970087645456,-217.528992925746,-66.882891146284,-11.9476293013378,51.2899158809404,101.97364562783,-106.775687492414,-54.7247057841798,59.9226159771561,90.5766271850413,34.8434674568193,86.1049626173107,102.7849520414,338.66114783356,549.807835083976,366.940550920766,385.194696382702,312.074138591246,271.590805338412,170.207520983232,216.363176652948,182.247565479044,102.739323026136,-47.6641426047077,180.931412981145,-77.0174059594504,172.385369451117,127.300633792811,-34.8109464322316,-248.893692174106,130.883091645496,-154.192191348596
221.682534930291,222.564407100444,175.082186626093,319.541595444585,544.402777682199,49.6816842597037,319.334601728912,550.939966726763,243.48941803259,598.071450757396,941.198878795753,-281.673649722741,320.664176493679,693.893882310951,-233.993562413059,47.1153570660857,-214.207670486442,-72.6621460856247,106.872450544668,-137.338936886541,-16.7897190687122,-148.988982681947,-62.1226687776334,30.1468157002214,-89.7984619337552,-23.7399254560593,-165.69340958646,-28.2979468487366,8.19151333236426,-72.5008365090854,-22.919843799542,38.6598894749651,135.963439029146,-184.676126785765,-35.084511822883,19.2399495475257,87.8720502671537,136.746534063949,-76.5053234544819,-32.4428018378739,93.7217993573105,124.83531417724,49.2578148215026,111.257117907294,138.497644824385,338.397188013428,770.047475513264,466.031981762966,608.086927506897,652.571711986636,354.04664299041,506.181800165721,284.944164017338,361.076965409446,402.902108409149,365.929366388542,338.925231645756,287.707976823536,315.893822375337,340.062394332753,259.087257093848,163.391177833124,316.70715032658,135.38434185094
252.448464547665,293.647785044694,156.750851662027,346.51478943161,689.824902880779,-9.97315896481236,273.508244116118,553.698704943695,89.4790805408466,510.570185817263,840.904806754621,-412.319367393526,130.286989928439,534.439031771787,-277.818839772411,-61.5977099375736,-222.419852117871,-106.585533981236,79.3115360260955,-129.369735445051,-25.0639771613382,-106.574094005196,-39.500937729415,40.3469813715739,-57.613737482601,-5.46120130189916,-124.350333707851,-11.6951922899342,20.8759748237589,-50.6545990038446,-9.56447025056595,46.1858428001145,142.510055601486,-153.049116384101,-18.1368393083906,31.6737205259371,102.689853983108,144.867477395551,-60.935932995374,-26.2324328914092,102.736423203724,130.19063059224,36.0218948434765,104.467210356177,145.408569147958,273.619021012333,849.254960586375,470.677357169099,684.189952399533,853.379422298742,385.311083888415,718.129480262936,314.541636304141,457.138808090466,587.851224249324,667.041426978847,433.74744181156,540.265433180466,404.771944485977,467.977951288366,433.993082896532,488.382206554396,431.695539877945,366.158521630604
198.905391035249,356.124741396106,72.9470411224023,299.97283662095,746.676756529072,-112.431187548289,160.54259546123,496.449327716596,-93.6883645527302,355.779503785034,636.865066180482,-578.523286186394,-68.8774691006888,320.992609130554,-349.330486449702,-203.397491328755,-222.388162706222,-160.108141884017,10.9855110358372,-119.165062953137,-62.2651175490001,-71.7296973909112,-46.4085112224986,11.5689117449329,-43.5796958105809,-21.5470294398276,-99.17936105673,-21.2289097455991,-5.00955833034097,-44.5309550537589,-33.3058293690898,13.446532303766,91.7035514178097,-135.410585742686,-32.3228826933855,6.01530243248457,62.1520005560174,91.3489761479592,-68.6300724135351,-50.3867880356661,57.6456509980951,79.0589432324796,-17.4857267851787,47.6191601372941,88.9039308022461,167.413250616795,722.503052993838,386.11256105723,589.910384649338,859.884737444164,366.701679822672,769.899012544605,312.406691030046,468.464611800005,636.4719567503,820.452043034899,455.901425121914,654.64086396619,419.313333468457,492.541519971239,467.87115290983,673.227072548365,436.743320297629,482.355699229692
93.9089042824306,387.823095919321,-74.9799839751917,202.684498391824,675.070349928659,-307.577581400466,-2.97558040574341,356.65814682631,-345.779396381881,111.534535961378,318.877571965699,-831.261083554335,-371.501127313852,-18.9195809534732,-461.154365475962,-424.303442221088,-219.881440872954,-242.519195335029,-128.320033400961,-121.258167996859,-132.816340306062,-37.8181962321607,-72.6944651677598,-58.5210202647743,-37.9297911240971,-59.8521126914995,-70.0811196866715,-40.7141527923506,-53.6006807628139,-39.7272396529889,-65.3699299932874,-43.2897996239496,-0.296419357882666,-114.472279004562,-52.0216758690277,-37.7991406091483,-16.5480141904726,2.58618301339041,-75.7371657945223,-81.177164712353,-15.7495283732542,-3.05251709007592,-79.1658918886728,-27.6818160362455,-1.87090074555677,70.4520814530623,478.191154934557,275.77811233409,434.165019281915,762.864325706703,316.207542661582,735.64805607164,293.725333703721,435.484392285657,604.513667089573,876.080285366206,427.015445494866,678.48326949122,378.19548197144,442.329118132441,427.952262707299,748.470105894825,360.799358394794,497.46784211657
18.2380344202498,407.441395705385,-221.819586169828,127.600537958455,512.527002518777,-534.969302176454,-144.295984481928,174.090351573205,-613.417282674216,-164.464917060329,-95.4730811924332,-1074.55657108972,-758.348950867789,-483.467414317375,-554.835010196165,-677.896921500406,-202.226040107062,-328.486360399241,-310.079749404142,-124.931401721156,-214.441631374975,-0.00205381278556693,-98.7956910963368,-145.229541883227,-30.9455903963243,-100.233567214104,-27.3300932741477,-54.9048689435605,-109.269245240092,-27.7939926857955,-90.5505883677507,-108.987672157934,-105.713133281837,-82.1368579903045,-60.2335467453928,-87.3861467829716,-101.920669531642,-92.8649657536534,-70.8875729343835,-103.016987749767,-89.7289956934624,-92.0609369200021,-137.01653799074,-106.907835596314,-99.1513427247724,-25.1881791033144,252.14611231468,157.795629817467,309.757336522681,649.982154853252,214.545931802513,680.362071233503,233.243070215716,353.584810616284,536.567606390671,859.949285922524,340.597337355,639.842040305895,286.945399724395,335.014688090046,358.650506758794,728.751076220478,231.922260618352,435.270278052687
5.88463089258409,398.242780453482,-290.930846436042,101.176193624719,282.390765207818,-667.105136720501,-207.903297660311,-18.8061304324587,-780.291783279351,-414.156852978114,-584.826651051831,-1163.86130230094,-1084.62467196213,-1013.30014298521,-582.068734286246,-850.72732092411,-159.050519093556,-380.771197019789,-471.622857653955,-109.508088063435,-281.513331897628,33.7457978197346,-124.244993063623,-228.957217980994,-27.751863684949,-144.912514488156,1.67881037740522,-73.0918047439494,-174.861454606279,-20.3286910016542,-132.122406881694,-193.036698976724,-229.088046563752,-71.6274709170532,-81.4718504949624,-161.223920362969,-201.85853773941,-219.927465848993,-74.5912980558768,-138.349961050213,-189.595411479951,-208.309826190085,-227.512369350023,-221.46211588203,-225.077544755453,-173.438206488375,17.5013156825628,-22.9700277002403,153.591842913564,445.757899930652,36.7531683279243,534.69614349378,120.811446309025,187.473713651462,395.594043559153,695.113516746472,195.157340312292,489.986563931114,156.312861564846,168.954044115714,218.436506276413,548.676812043016,50.4987049715973,267.26732220544
24.2019886649962,325.001623992955,-273.340923456115,73.1592372000378,-0.775068130777608,-656.877965534541,-217.378894280229,-228.482929548626,-792.445211141679,-620.920120202906,-1081.9335040689,-1018.10784779341,-1232.0083134076,-1495.7490783687,-529.137065270384,-859.986003056886,-90.0745054139035,-370.615082300849,-562.085939512728,-69.6329650286191,-311.431983780071,61.0723911117456,-141.406881468972,-289.018445768356,-26.3768384072171,-187.080403100096,-2.67723017800953,-100.999834016087,-236.975144638244,-21.8451273123634,-189.98950960304,-282.456999675094,-360.511069308346,-101.884490984207,-123.465632204203,-252.503502179791,-317.047328053043,-371.668433459113,-93.3346984852064,-194.203624510795,-326.650722274536,-348.190050327886,-359.234244942795,-367.600563774657,-370.45191860543,-326.323614448524,-316.127491397966,-229.914104732294,-95.9407715239795,82.2154396406882,-128.148514401252,245.287396569367,47.3353663316847,3.76416795791398,174.537719903549,364.197971213451,67.6853516380436,234.333057638052,51.6177328646077,-17.8740884936272,0.111886558084984,216.969798595283,-139.390432153615,18.1020613701312
14.8357314951674,192.70186717616,-239.776070963734,-6.98682108432815,-285.533894357119,-576.860149768291,-243.862933625115,-444.903643311075,-713.324653701789,-769.229844968683,-1440.95098824233,-720.044910619804,-1231.74723216027,-1765.99295699126,-438.997648906893,-744.907338355115,-24.1101044603583,-318.417788164018,-582.581207493509,-30.7505926693471,-303.453182679715,80.9810710527621,-141.376622255027,-312.902808366151,-23.7459909365163,-206.413595786826,-22.6003813601953,-124.874993071779,-269.88391457561,-25.9295855087348,-229.21752042996,-341.765392511496,-452.057912334007,-139.262709196211,-156.160540097883,-320.823898958529,-405.573634055512,-476.772268109178,-105.876195163561,-242.225803631725,-445.137291340204,-453.255834468821,-479.242490019367,-485.481844768502,-473.695506291225,-355.761968031406,-685.278649496333,-302.853960430812,-330.480842476739,-336.653605551695,-121.046219063799,-68.7855360712622,111.667709750575,-45.687851970796,-2.98255472279716,12.2746467362902,55.4144632993317,12.8522309882144,38.8163397356391,-135.633256540419,-177.022176433216,-114.662836991893,-253.821201398338,-190.470420430998
-68.1369847634994,12.3908939165244,-248.981983150574,-141.333603487337,-525.562626432081,-497.590900126521,-314.527924148601,-631.770578373098,-619.900468098764,-843.714148384613,-1566.40534415314,-466.16608641968,-1171.87831654286,-1734.38815339733,-387.389485700948,-611.280115039118,-11.2935542924906,-282.826593645514,-566.445945016081,-28.0380544507261,-285.432675605853,76.2939807363813,-140.409593991563,-316.425869940539,-34.8960450554571,-207.040643522242,-40.14818486751,-142.712233554891,-275.966347490535,-38.9687057518653,-243.913392392494,-368.65269154747,-489.18260810255,-149.370722338077,-171.589218657802,-355.630064600967,-444.56765182653,-509.117114658381,-107.259094472694,-268.492022964048,-498.139319196566,-497.118925180327,-543.369551739789,-544.912688136294,-517.085628488308,-242.303772691672,-939.432878987957,-176.468582401723,-398.501045515,-662.06169020689,73.5003534978295,-235.388143384376,270.884811719229,85.7625092797606,5.01992918322029,-197.449678031465,157.11075486798,-26.2161384975255,95.4979694089425,-116.659554716489,-172.179143128829,-312.852848075239,-271.602688985118,-274.303176918933
-209.953754606261,-198.758416024259,-278.751637839522,-287.31989383529,-693.705752322849,-410.857395244744,-369.726077705627,-749.986331934798,-508.857461649091,-832.036606059718,-1489.77941494848,-338.900925043598,-1037.44950334766,-1456.70114352206,-385.294249304258,-488.470301109317,-69.5176917153006,-279.365990059426,-521.8624814999,-65.6234275637394,-274.490739742513,32.8264116162378,-156.317277869233,-314.104495354919,-69.1249483590856,-210.154198592136,-60.0973582167521,-166.888026093526,-276.197881758951,-68.7676429339689,-255.453284755196,-380.708866289896,-499.705147682848,-137.134503130997,-188.42392750257,-375.534789422763,-451.939706831282,-509.999082812924,-111.854026875438,-278.051617711465,-501.68159621337,-508.234124657425,-557.237519784102,-563.197525286544,-531.037836901256,-89.7098344227717,-1026.87832392944,20.72251166857,-298.286965330832,-852.934064642582,282.941169471087,-220.009168728884,386.0819667455,272.61327424154,182.289301187207,-224.203753942717,276.566794068815,133.717509478194,147.709433922336,19.3385725776879,24.7182695416638,-350.090499328398,-233.398543911039,-248.103046600648
-342.442740741527,-381.799339592714,-295.628173610438,-392.315715322398,-766.953049526431,-309.682434061385,-353.648726749557,-778.319588874127,-371.467986273763,-727.010873945208,-1274.1414356701,-243.935687087324,-784.661111813547,-1038.15645601525,-360.625488413809,-332.001088179266,-149.494878989112,-256.756742462566,-427.26015248812,-107.285898793311,-247.203391600903,-30.7514247470024,-168.906890327456,-283.513044824729,-101.759631391949,-205.967884080912,-83.5038405594269,-182.540216155611,-260.452243022482,-93.8228223363254,-249.328695700399,-358.890219910777,-472.320187645515,-120.605773679361,-193.525524019523,-365.250103073101,-423.412125816792,-482.543073815468,-111.728510203661,-259.339951819982,-468.312689458797,-483.553213876971,-530.045166992984,-537.919102380686,-502.382701024245,16.2501598845498,-1019.87791635856,129.538082803491,-168.601803775411,-965.641562680737,352.628767193917,-143.31530366961,386.272970169177,368.481855831657,359.146839306851,-146.92886187639,334.349288478763,370.042583052685,169.000981643495,183.358456462115,280.662141747008,-248.94572337761,-157.46323278282,-151.687997810272
-429.420395384226,-502.410615796065,-323.32313831483,-456.93590313832,-778.623263225317,-244.745126314103,-316.60552188434,-762.267551923441,-262.15710436559,-584.623369338602,-976.465249858096,-98.4850026412436,-476.849163328693,-576.433214107215,-251.614028194468,-124.069206536865,-172.059749954471,-164.650981846028,-272.276445302489,-102.738275924076,-167.503772469262,-68.7456773343825,-134.163873394161,-191.200129533732,-94.3626996351445,-154.651956431633,-90.1209402238887,-152.075800834501,-190.739998351648,-79.1579476917466,-188.893377475279,-266.363880034374,-360.800550345982,-98.1919794014525,-151.790299706211,-285.933188467801,-325.371042614833,-378.687192005659,-80.2082210776581,-194.680161755763,-371.082609912017,-379.890519729818,-443.087413735271,-440.867702729612,-385.097369610573,76.2868716373888,-998.388877341879,129.477926607725,-123.039097094476,-1053.21367803395,304.844709613612,-130.318158730972,326.329179003149,356.616728596666,405.363363402948,-84.3659809118455,339.560444906862,533.703803347619,191.217825710169,301.415604094169,457.062380466916,-74.6084605397058,-44.1197160759623,-14.1100271173394
-496.55739812689,-604.575717626561,-380.236718063306,-531.080699716345,-813.564379842856,-233.870587031152,-331.725368784921,-781.989225575878,-199.772420831657,-497.394732456606,-679.571539383245,82.3748517525163,-185.656735204887,-163.848012328082,-73.3453913023626,103.780019102923,-118.828665611914,-18.8119714874391,-85.4356900718931,-46.360305612266,-46.043768938814,-66.3974872498978,-55.9039079232552,-56.5856148766185,-54.5497750563247,-59.5985613844057,-78.2910760418281,-84.7806161491338,-76.5122864803477,-37.1584554679975,-94.3724853593101,-123.397667246259,-181.247735114655,-72.4796869660089,-82.057046103942,-157.244882908467,-173.494391743236,-202.578572553138,-30.0753576885727,-106.719231247587,-218.254360136411,-209.16818041087,-303.233259239821,-284.620845215694,-200.054958824933,133.698908812479,-965.399912371178,100.732288687701,-159.041736497422,-1120.23424520482,245.231940794665,-207.296955798989,276.310485887368,300.242642486902,324.9668577194,-126.283188964771,323.919803987528,542.703208464865,218.272951270341,347.947119829964,501.449205464586,22.8290586011357,62.219469582884,91.1606491418562
-576.077085869221,-741.676381272798,-430.53977461571,-634.150060092805,-902.022835835076,-210.144768709334,-368.314236084423,-835.372238577094,-111.649532598232,-466.590343397893,-422.760144625167,282.571793828527,112.852613405692,172.227350523777,118.078744594199,308.205877730457,-46.4410977898737,119.744357869049,89.7285872994096,11.0005089161129,67.0863183255954,-62.7420888807322,10.3110274482495,62.1333590147246,-31.8912535144335,25.4611115392504,-83.5553810654723,-34.0091540895665,25.4610426611322,-20.1145877531649,-21.2920575241045,11.3757728494275,0.17161760373711,-72.005910928232,-39.8240350693864,-42.0482115416995,-25.0537216219397,-15.2725364837959,-8.37822343090037,-41.8198209931696,-61.6389734297912,-34.6256967767856,-157.551698279207,-116.806360851803,-15.2979014178124,204.391536944673,-902.757875501701,84.875189785236,-234.719462883391,-1180.48513213192,197.619756505154,-365.490637631652,214.37433221715,204.103379854009,142.698899681848,-316.61053425947,255.440565995865,364.530409560077,183.344247433138,291.109573244314,384.63759640552,-122.646881821011,77.8036397422154,32.5303132586034
-678.376698977172,-924.557746835293,-449.401514839046,-750.093935175873,-1006.95318955693,-127.032189218184,-372.795309817587,-860.170895436489,36.7761307706849,-422.868207353702,-162.578374628246,522.907538491495,433.730615969356,466.111711501336,308.326497598419,476.045113749904,18.5026175516382,232.589618131851,245.436174432844,53.5847474501483,162.110830018078,-72.3634605141904,55.9095466019545,161.161488297779,-24.3378725143485,94.166920347948,-110.146445268267,0.8228339234336,112.602294622982,-27.9779042953311,38.7554375819122,134.488938053732,173.038501378562,-97.5998870459019,-17.3045559993346,58.5109878379053,118.954256980813,164.24642976237,-10.7106895405183,6.46888319900357,96.4353147802016,135.41759833587,-13.1958853743253,57.156319909458,160.491078469422,274.114662174821,-826.185514256559,72.8448898702941,-328.691756246526,-1265.92314526842,123.562338805078,-602.345220076548,89.9005514546922,30.5699161438107,-146.65845025815,-647.43498259378,92.4120275913313,6.21136368478295,35.9335617799596,97.3658850675935,76.7357657270502,-532.035675254518,-42.1785146672733,-265.777932019892
-785.679381430127,-1129.41291390251,-448.52901403981,-869.521701880613,-1099.94771592538,-13.8395139690353,-369.315459619043,-853.431671921313,191.896552943214,-353.763973192208,114.719791158829,809.109425590539,736.942387813669,713.207072797103,528.966585006348,635.672075641047,115.619872118805,355.41168085278,394.176082446205,124.050634543716,266.437924916738,-53.8134940050219,125.51147346447,273.97182526259,18.6433079693678,183.319826355444,-112.021658124662,66.7635147185543,221.01241066516,-8.64200966085951,125.919467168346,270.614957534033,354.143798381693,-105.390763981317,34.4605578419996,183.593140772266,283.873116985205,345.391176196746,13.3954112055284,78.1162550364633,278.247135482776,322.905103709379,153.966533336942,247.93487470363,345.113954051644,328.931530640134,-717.700866515052,76.7560807968306,-389.718853467265,-1330.74255811509,32.8524080797364,-830.92670652151,-64.9262035953906,-171.629178409609,-457.109526577495,-1025.30102107782,-113.971614815311,-413.876617788897,-167.345386692598,-165.913281062194,-330.834932817732,-1017.47761469929,-230.298966545606,-697.282428477355
-803.590729094167,-1250.54236491315,-384.511062675586,-915.798802298857,-1105.6603026342,130.257535053822,-332.330477669215,-787.467067290598,365.972749115595,-221.83860648258,411.177785019073,1114.02499144056,1048.77090328396,938.801589156199,767.475962148483,810.941442757554,246.576209313617,489.620841333373,529.075244527477,217.599271527587,369.013549442851,2.70738994173017,213.394615215784,377.095213234736,88.068307068696,272.794035035537,-73.06128960353,151.416062464263,324.75607724394,44.3972115178048,219.022861338636,392.937511998452,509.190727112425,-74.2903872342537,109.436706989004,315.448327982378,436.405586778737,501.313137283404,72.2864861941627,165.92486454964,447.56625169033,492.461210254277,322.91152864718,420.611418829015,507.879240090077,359.937290676537,-495.314175165734,132.282340746279,-328.246577839086,-1228.86554288965,-7.98575944938606,-865.395138156003,-148.325155793088,-246.069726205835,-573.653846765192,-1246.32776320652,-218.74975329712,-640.978448202341,-286.256983571239,-305.48110297207,-573.678049337135,-1254.52597203889,-318.136149861521,-984.665156685517
-596.775126728905,-1111.24040929315,-148.569781363436,-714.671295985547,-833.728736150548,377.256342549004,-108.567498098087,-469.811292334143,665.338785406818,153.730967794712,862.596299604913,1388.24925287186,1441.61873685742,1320.31760155498,948.594155552884,987.893040403983,338.410290739876,589.855251769602,664.742655245871,272.699582277242,443.859064322978,46.7658244496187,272.147075837704,442.89303594036,132.562054352108,323.095259541656,-20.3619984422576,209.643125119538,389.849482911505,99.0066934589724,290.000034932444,481.792270378591,628.137197228074,-12.8833022618076,183.800032793066,426.373732134556,556.475997814039,632.213040567132,148.495453712106,252.78093630791,585.357408100142,625.903565683577,481.548931842476,571.462765399394,644.217651784321,393.668012643674,-135.786774265553,258.074034742298,-139.352011070655,-877.432567497141,50.7054133755256,-648.136758836644,-98.9424924464286,-92.357824782146,-385.237161269352,-1121.76386362262,-118.82957096243,-492.044523189393,-214.301439143437,-173.328753531731,-444.947482731745,-1026.60347479749,-174.969697903949,-904.094238989613
-184.456786717338,-679.999489903832,249.362108116058,-231.872610437213,-199.754665274161,715.14779691841,337.957860951592,209.146962795861,1065.22213997328,824.344924336363,1546.21353138663,1549.02604548405,1837.49310889762,1931.23008979705,1011.07956832795,1128.29760408716,342.826754103503,629.409645705318,835.685264182245,273.60501365749,503.3056414549,50.2120780240858,300.65468855799,509.632850478887,153.522119613608,360.313668556556,30.4405753506748,256.610279194532,451.081362955121,154.166696873952,364.719393614145,572.488258052158,762.830376973607,74.645578712251,273.295536175408,541.288112539295,685.857549851935,785.663579267145,247.144141578744,357.150725740438,737.351191601502,772.42748857425,666.226556079119,754.975356071955,800.942857899899,493.342199943223,287.293953797029,434.590553233522,73.0604498318169,-333.402764373339,176.255951374152,-353.251993133733,8.11149710682676,155.905470052829,-67.2868179050904,-667.135553483211,67.7312423501888,-104.326218177877,-19.076516462704,122.744609249493,-77.4737576709854,-542.13423656978,123.654245457221,-569.344359076685
225.532494015578,-146.007634335423,613.404391645267,294.236062257054,589.551910310572,982.256072431539,774.958367662225,991.606731700137,1359.66726256198,1481.45489252462,2215.72079543415,1516.6278531326,2053.28385981313,2490.61621839126,938.8586590741,1208.78465856238,292.474507136516,616.429291262159,1014.95233902873,262.32978786477,560.511589484532,50.7316970188434,333.632004088857,600.087409604596,190.47597549377,422.902156137768,85.2228019189917,330.892613288329,536.009579408443,221.406987270831,457.663403021012,678.571752617325,918.586720154024,170.179628696793,378.896563993721,669.981391773091,830.13400376225,952.52062741123,355.006621147768,473.682237475072,905.157006310873,937.108946622467,867.885702845948,962.136058539831,968.834170056804,649.035565252729,802.084971658512,625.401932324779,334.10473963925,396.244140193146,286.705550029912,-33.2189316925464,35.3370706629816,269.944459835929,192.590453928023,-70.9928171437445,107.834505351887,228.711129618363,90.6380706658247,311.288283471575,190.271915013879,-305.017163159628,349.421454067424,-362.26260483502
515.813395841347,369.829464760822,815.09257461219,670.601476927916,1310.99240308683,1087.75889484483,1004.01785168498,1573.78794300413,1456.44475728682,1841.36954413479,2597.34117050615,1336.37103660283,2080.52390126425,2714.5225185577,793.325561721679,1276.00025545002,272.356305989843,611.117461670086,1159.48636517229,295.111755953792,630.506807432511,115.968976120571,404.795655879763,700.881521408336,276.773764933623,519.60662389204,173.734072818465,442.824889592882,636.994765381341,309.812132769707,563.600423391817,789.253226737254,1061.68016582597,264.971359533204,484.240498613389,800.160406517252,963.042950790826,1093.51660508983,447.752927502215,583.958298928163,1053.68581501823,1082.56993517988,1046.13972587704,1137.31849457556,1111.37121861345,714.638497212563,1529.21013770032,781.541980315638,802.637746852896,1317.65474793505,328.380955364701,491.726295095823,-18.7215955742202,255.440902849535,433.878127883392,380.30655151505,21.7873305151462,338.172062247691,39.1759826893298,312.179687497182,185.807787594958,-563.244129756501,407.231817896977,-509.579079900291
767.950717751132,921.007452473214,932.149475109066,984.053360259598,1941.94901107572,1123.83127394479,1100.69321309252,1980.78758336271,1476.28282215492,1989.52655475539,2736.45646964456,1157.39468402125,2059.53670273775,2661.79231428821,712.974505859793,1378.83111960857,355.923363042605,697.291762130693,1283.6250127365,412.818451254901,750.871008144768,275.993213166126,535.073893302522,823.353447669695,427.952989888751,658.613556461228,327.818955567269,590.686044651239,764.300232120667,439.256807796125,702.136497893867,922.823414267398,1207.00108734013,388.183594376402,604.984150345659,951.619021643644,1106.74799680792,1234.0992715757,531.661710674752,715.885964794929,1204.46979923091,1226.07936306381,1218.34732063689,1296.84537507772,1255.93515000967,534.055006246586,2288.30928890468,749.986532819919,1306.45493820918,2147.67822560704,215.690442405235,1093.09353584445,-88.6765331637656,246.858347268928,576.623994612705,380.821836385014,22.2560522974429,71.9593860507206,-23.5606646114055,268.016045639134,-74.8017963227608,-1065.03414293069,411.034518828333,-865.609172112921
1023.95037037475,1461.75007838965,1028.56080396394,1341.5748101541,2431.48286142045,1134.87710066812,1197.09783155967,2305.1041683299,1465.02988532882,2084.38224853707,2752.86700157771,1006.51813724115,2004.22222464001,2475.77488591035,732.574523306666,1425.99304832237,501.925431961469,831.807728957725,1356.59606305938,567.92273229522,880.577109447178,460.846722301583,674.605073448707,935.171099786299,590.866911538515,797.520965463206,500.978850104555,726.169098555703,884.561031767313,576.107591479586,843.050122731654,1048.43584375186,1330.66422302595,518.808212967471,724.191861711393,1097.69235364688,1241.16266271103,1360.13108112819,575.855851850281,859.931606412988,1342.74178458711,1352.69266317564,1372.46972023641,1438.16522666699,1384.02527352531,134.175076940373,2589.00594021615,333.693322521248,1307.76255912321,2546.40514975963,-162.214899946695,1282.00069477474,-264.011048054724,117.791856545527,293.941710238254,74.5587190027078,35.3147369233154,-640.198830959466,-24.5260361935051,153.999607501164,-554.560270851468,-1217.48778453827,383.697523603429,-1050.9452104857
1191.93048130294,1792.74358595772,1032.22047195822,1620.32911449296,2600.20136205525,1004.31096959588,1253.3928552339,2411.10028527911,1302.00431348634,2049.11178050695,2563.85767692267,743.147681740772,1806.52932743369,2119.708916394,686.824975617978,1264.02793927027,545.792143674811,826.612743255118,1246.7213776103,609.914203765779,863.791821449142,529.260443705835,693.496168391042,900.229045390564,631.943949004305,799.759484891318,566.245009204622,731.182851872771,864.10317873068,600.3833075789,851.391124989664,1022.85270454969,1279.09654681646,545.80193364475,733.479673217594,1097.45425553306,1213.59901455614,1311.921172041,490.617542606482,886.097145113349,1316.90452476222,1310.67379012561,1373.01953786543,1414.27753786732,1332.89647898833,-235.40238806298,2272.86374184018,-335.773003039426,690.143141833146,2617.11035625523,-643.958650958319,1001.99590077832,-568.22199272122,-322.493095937796,-355.610470155674,179.095036800522,-212.496652866032,-1359.54668876709,-88.0534347338605,-257.990808332567,-1111.02821691021,-450.201214485968,160.007566230194,-684.123715566415
1230.31152968085,1834.34449833838,926.458799364741,1654.43713746385,2390.14707838549,693.116063186716,1185.50763831638,2173.99069238699,973.107716612201,1768.31047545701,2083.84682609776,309.359307536406,1437.32053828706,1549.5967307401,440.151982111673,878.217740593489,386.000145310789,580.216046872925,889.542701961972,443.454871770647,614.230630863256,414.672511036937,516.690235969693,633.592002453608,471.194353250037,575.010999824827,454.433281806839,538.984893608146,618.051333422932,437.623780486714,637.315951630245,747.679635480161,943.79507161886,408.432359751801,559.809242599028,850.323519772501,914.233107762856,971.45918685537,276.040926596444,694.016357662768,1012.18938540506,984.093718392294,1118.49778954643,1106.08107100448,987.955977594445,-299.501933509107,1829.89473520555,-706.477164853515,143.696136686221,2671.02409623916,-757.526112835091,808.197628227115,-666.717454539323,-775.753010650203,-724.880506098898,967.648280115585,-576.358086502625,-1397.80820218362,-201.027027374757,-860.870452781436,-1383.22794416841,1118.66297018017,-216.913964080331,301.141060008197
1214.89852081657,1692.31455752819,842.059780963938,1491.14036405217,1951.75870530679,384.328774012545,1042.87403631192,1724.40641140161,652.418956332148,1334.88432591678,1432.01048557645,-151.165403656165,966.004175135954,884.673289747048,77.6378311730625,398.105020605479,117.941465897035,209.588704552173,409.782450772602,159.513219617858,243.526682958632,207.530087447336,228.755213660837,246.037930097026,195.469023579273,222.668381101605,244.055176266547,238.656431461123,251.128530570074,173.043320545837,297.11965646125,329.441134547836,450.065599379093,191.425361691486,286.335875083097,454.517638032567,460.731061016198,470.34346440482,66.8546065102732,378.778311131857,543.789640058927,495.046479894735,710.795072756239,629.987303646644,482.950248469342,-41.7678554853827,1766.25337512435,-433.617150216695,308.887529912298,2696.76333872804,-308.275374680225,1029.58515394745,-296.450770373291,-695.35886303898,-401.852135839446,1708.81415356073,-571.690383952566,-671.701897746252,-147.372368515867,-1109.03109598431,-1023.20142663099,2519.86096341914,-371.33868137274,1479.45181729147
1185.24829023949,1446.63742898998,846.44278375868,1273.11247626113,1441.90343295017,254.963567968766,896.802486460649,1253.20567993535,442.162070282191,908.418520735603,776.371797922303,-485.797934925584,465.880881844104,275.407692596651,-238.526273156842,-38.6465554807403,-95.5284044568435,-107.391580902601,-8.20570691321405,-75.5093815909311,-74.6940382648733,39.2015016748732,-20.7809104693468,-82.2655403586606,-42.4190137052104,-78.6251265382862,61.2519642493297,-25.297411116804,-64.4218629355704,-51.2246261190036,-3.61521441707314,-38.9946537064546,16.9626415833794,13.4275762080732,42.5277032395563,90.7467366372834,56.890691666756,36.7309441940216,-56.3580384161661,99.1846560777691,120.274764851004,62.5672958529055,324.563185238402,197.465390208439,44.8503675776001,284.06526355702,1916.14545980353,159.829000075403,917.100000964913,2500.3263376739,310.283086583404,1355.93551121576,261.958917431481,-83.0707794902247,279.236939121088,1795.90816939388,-129.875805190802,243.683855737103,72.5282598137993,-736.340600460326,-112.751388009857,2997.06202630136,-131.329866292491,2307.87680210443
1082.72006853487,1100.4709954884,823.744472910137,1025.20694355757,920.050406462994,247.20461742231,701.134059016909,801.332708561764,257.488799744419,510.484582322259,169.934262957068,-689.108032751599,-3.73522473452607,-241.50460701666,-454.689063514022,-363.202682571849,-199.081969206256,-305.490355021051,-289.410096079528,-197.287109767037,-273.109870296797,-49.1562763990811,-169.805451038791,-289.619942438401,-178.489571861609,-259.985870778938,-48.1417118123443,-196.793615107684,-267.93279656465,-187.339289964887,-205.981212990768,-283.40172398564,-279.798501253389,-92.1424154696997,-135.792213230478,-170.950105054475,-229.704705994586,-265.868921004505,-144.865241898101,-112.426942595892,-189.304844373559,-246.634740572343,11.8039476792708,-122.582341557626,-261.397304672015,471.949848342742,1782.71054032027,563.351904992037,1265.22497289564,2112.12500917949,659.885142745237,1411.77180122592,593.009566311488,510.85885016127,765.154043843813,1578.55561121378,319.766977219325,844.853019742615,208.686243821781,-125.245167316303,796.603797694998,2822.71883043195,212.382800710388,2624.4173159362
863.037042514781,698.54132194251,659.502851437822,716.584565290313,425.683992340657,184.481345407524,407.112849022979,352.551342874841,1.32380749943444,95.2272625780833,-383.056478198307,-832.624275881083,-408.915777190112,-696.549672824116,-601.468381794662,-586.523477322206,-241.961430192087,-423.595897064918,-472.838216611616,-251.451503849855,-387.15239257351,-86.4507220460943,-257.075556656755,-418.723579038296,-240.110647961439,-363.206204709035,-105.855512857756,-301.802681878312,-397.89302343972,-265.440970833948,-337.560410264274,-449.193486726578,-495.012594774496,-143.867741976546,-262.975850230845,-362.526644258116,-444.741215288755,-503.849646984712,-231.997088453318,-283.447102531155,-434.220940224099,-488.441891035749,-253.6842067776,-377.354834419281,-501.170780155371,485.256937377373,1276.36631528039,618.062392296333,1124.59736252603,1692.14455619964,680.739523920296,1217.98691864108,633.905424586816,698.502481236539,859.283457355044,1530.22967032392,477.787910182062,1049.99004929891,187.664785926744,239.410112029807,1215.19147483121,2591.96536559517,364.684468730724,2587.5864866511
572.618398067067,327.432022470053,399.039763750816,389.754759825401,17.9418886436433,19.1972049371632,83.4192667823302,-48.8340092949404,-298.334728206357,-312.203202778714,-839.812060647466,-939.852077435187,-755.827104872915,-1085.0214618035,-689.469775290307,-754.836714638385,-263.289052917106,-501.03904468433,-607.377118472669,-280.642598657316,-457.65695676987,-90.6858733249512,-314.051016447927,-497.519001507265,-254.448248469263,-419.769533654315,-118.45866769491,-356.645846269409,-478.704250308419,-291.005885532545,-401.500149083598,-570.490301166459,-655.043307714528,-136.818841876975,-315.538078310904,-497.193820313495,-608.624779318834,-682.723199502663,-264.63410149128,-371.975516459249,-627.310451341637,-667.967749267563,-447.078635910804,-571.689207605379,-683.492091182233,302.800699750715,678.246168902267,401.914180579395,743.1215766866,1264.89573152622,478.46610830643,957.669091013361,492.754508444615,543.800917936567,699.346299367097,1524.68380823441,397.425289047776,1004.36788713122,143.864469517489,286.271304278773,1173.52247536655,2398.50962590221,344.864107450117,2362.4323580278
306.095407657557,48.1082398287548,162.599644557941,127.843072532572,-262.619493271463,-139.682687849304,-159.246091701535,-334.764568779997,-533.479732324664,-623.929187415742,-1138.89181006755,-956.539938410277,-1020.08446656753,-1344.76302089208,-682.902831755347,-860.042981988284,-234.405543462937,-518.41994574525,-677.225239522198,-263.239973958902,-470.323753946278,-48.3385987767785,-306.473898266614,-502.785794224629,-208.066656176561,-402.888800816685,-60.6638055795899,-334.158846061685,-482.194448374164,-230.754615784014,-368.004060737272,-618.082176016103,-711.360253398967,-51.4128213070582,-260.416997649239,-538.637215603622,-682.835363923864,-732.774696931174,-198.550177692397,-323.27833871576,-714.815805333375,-726.549899293315,-509.949092693982,-648.813489234167,-740.095164235754,-49.6564842538802,175.535349844701,26.6554203366626,338.96738226157,795.724355933164,147.256049169421,674.777402781726,227.711788569104,272.564117059806,470.016199855103,1294.20018657572,208.226082631637,853.602443941435,100.852736412503,205.163977858867,1003.7783334692,2085.23321288221,269.942815120018,2059.26702427934
117.762651856353,-118.336481565814,10.2055180470763,-31.849843616629,-425.324259116624,-197.850808907683,-278.509461670577,-486.011488429715,-628.045629703905,-781.307882393963,-1268.7872564512,-836.479572189722,-1127.03204520035,-1425.58236589558,-564.703593973042,-849.209706239988,-133.742529151162,-451.266451165588,-648.66363434923,-178.583292983888,-401.732936956637,34.9439530627491,-218.604525943761,-426.258157554647,-103.146534177786,-304.474514805835,58.1230563675496,-229.903815297446,-399.951440274172,-90.9692971834537,-254.526080971101,-572.599938986747,-647.749852483724,86.2611509184451,-131.834677016744,-481.811910546818,-648.873954191497,-654.822633118202,-67.4039128438969,-184.527734016184,-675.562177439292,-664.924193673268,-456.050842034185,-606.476910837176,-667.44827774008,-401.25187395065,-228.333368973819,-357.807478931825,-53.1399132729554,314.978756299228,-182.799042287356,310.499799939358,-66.444072947688,6.13594597285345,215.858323275308,856.0671997261,-18.0190778919629,644.07882718095,-16.6747631006656,104.112727999714,849.450306705528,1643.80941249994,167.037333896964,1735.98499880657
8.58519517845294,-170.524217037085,-54.3101376776401,-97.9709993538916,-502.296070339678,-159.526651093558,-293.938505863911,-525.519519654095,-579.785843277271,-790.116912355033,-1266.4236610885,-615.654849308011,-1050.73093699147,-1341.66433802586,-380.770054766463,-720.125940945838,0.720451817506655,-322.151763451611,-539.145618535345,-58.9632068753045,-276.074406283503,125.716853511483,-101.303333155662,-303.298577977074,20.3898638968762,-173.706613399436,183.26100541935,-92.1540176622685,-275.553767577836,71.7047191591855,-120.977061972225,-467.010992346813,-533.781047100594,220.300444904937,4.99356017264979,-374.638467990946,-549.329560815622,-540.476235592628,69.1635568439576,-46.3181661925852,-558.989872218127,-557.698892989404,-355.475713764778,-513.8086246758,-553.599963245832,-564.148013040197,-543.703947587995,-589.857779807082,-415.52488853197,-138.844042329068,-378.93980431855,-146.055808420136,-237.420276743507,-211.038538118945,-94.7647179972261,344.839066683651,-190.694758004011,359.385650457005,-150.284471491554,-10.1916475907344,632.704352055138,1140.23024371122,60.1208177583808,1367.41725549396
-16.2061631490385,-125.808897851639,-36.3495043821793,-83.5598867616468,-513.995417364444,-62.9012849977974,-230.890113920673,-478.716338964441,-431.863243930074,-689.162134045421,-1156.0494893,-372.008965984995,-857.662651406867,-1146.63751048995,-190.29785835669,-525.061651436344,139.766350967884,-159.387002984281,-386.152158631155,70.9770745495289,-123.816189293258,226.40127203163,18.3897989435288,-155.843435089487,151.534558583596,-33.8421284386052,297.23474048051,55.724540267148,-128.780624187426,231.098642024536,22.904131615196,-322.990135299828,-415.818716316407,341.868572293178,145.869765972758,-233.428843967827,-415.203477065654,-429.198757768006,203.283019329837,85.4519851608772,-404.924925413714,-435.900701747833,-223.484472769865,-394.43850161912,-439.698528314939,-507.743419298522,-732.891228409607,-602.514331192772,-659.228355481371,-525.006455297838,-409.181158906104,-594.596069410069,-231.818393447191,-337.812838366591,-413.19572477075,-136.5904942047,-250.389977806375,24.0374303422038,-184.598417292151,-131.24525754244,329.644539046783,622.334902817303,-9.44780349741905,912.811954259527
48.3987419896161,-43.2028520271011,37.2615508516324,-8.90270613422311,-494.758891573491,61.7465816716164,-114.907349747326,-385.007641359275,-248.363433058408,-532.194578990722,-970.084299770192,-155.646798731755,-639.716973622209,-906.080783765954,-14.3704857940725,-309.239345919109,286.789416278644,22.6856921933711,-210.064450381193,216.759695686052,48.4115673175294,358.162834244098,160.56376937723,14.0078791200465,302.623284406398,133.35664680878,421.341810473255,226.375342935167,48.862714060247,391.723954537904,196.54736287745,-136.628697527686,-265.956720287471,470.733469664177,308.327879943175,-50.227887084603,-235.984786580917,-282.664227483222,349.797591067576,240.164207275076,-220.170757924324,-273.383673153341,-47.5286804386294,-226.712439711348,-289.914994842116,-378.671430086708,-764.685861119308,-491.826262245207,-711.691449457191,-778.043771173585,-374.898513188662,-888.434636391713,-169.890259609715,-390.314896611291,-640.91449111663,-529.575066051811,-269.726499153681,-308.26841308491,-151.633926533187,-264.092948687498,-3.32193834473803,108.280598968312,-59.6746865985474,348.167714018041
184.893271974323,28.7057830960582,149.01338956645,106.436686907869,-474.41791603797,205.548539414967,41.0657234673874,-277.822002952125,-59.1796252413885,-352.418981645091,-762.740719404368,48.87199004655,-424.600127149995,-661.441031412814,157.672757378786,-89.115318424486,427.015802419935,200.590684804743,-26.975305486417,359.183898591636,220.336262927326,489.481899250522,311.601508410117,180.353786079553,445.710445961895,303.673450029572,540.590587978151,391.299664579791,221.671063246549,525.944937287435,359.911301288936,55.4966739928293,-79.6408215517835,584.970683069765,454.394866655656,121.277564132843,-36.5195798616396,-99.6786640484891,481.305518460717,377.947256854636,-38.8271158529321,-83.2653421325492,121.371911836973,-45.0779206674811,-103.996977646173,-340.545947513,-648.485637806427,-412.856705260798,-598.126243439469,-892.673508031794,-415.50186086222,-965.572333949692,-199.609483018821,-442.127243556929,-740.342817759012,-859.955020806959,-340.080927179557,-610.746028764011,-135.687294335036,-379.408002880054,-331.498620967827,-456.857921572104,-87.4644346030965,-346.826067720309
372.150066608411,121.404478045129,327.099774585128,265.376568049211,-400.987760537475,390.44343834381,251.545662817174,-129.492779928258,170.278537577335,-129.583650640794,-522.544207064233,293.019690105173,-167.237253418901,-384.788316028558,337.504508033463,140.65950138294,535.041140512493,356.876625595748,158.182435128571,466.309616696002,364.206939773121,574.099623828077,431.132785692154,317.647341522177,545.706299365686,427.362739516859,623.013430055903,502.134254857278,343.079883560824,608.570967815112,460.742539225309,197.574018650592,96.5649865868346,656.568627215297,540.24479180658,217.892295921197,124.406980378915,73.2352332324597,562.990143536678,447.625388403741,97.6268669300629,85.7340201406876,231.335208056601,97.9638825006423,71.0833855048702,-415.31140123076,-438.50389368685,-421.434056766544,-437.330798628086,-955.234249805059,-574.243757737357,-917.237027214052,-355.213344176621,-539.59110655738,-733.771891027804,-1180.30561828334,-450.599136782293,-843.851615275665,-133.626843233421,-390.901773059014,-590.581021477026,-1102.80110063974,-18.4881270622378,-1130.215100104
561.598295536873,278.18125344514,549.730999085477,450.617616103752,-196.632129234708,603.755219345421,488.33681439144,89.7279610668285,436.218767193049,145.940444634934,-181.018821259738,557.787382247036,148.943526740522,-27.3111595336469,509.391244614726,380.977886513715,610.441058352287,494.198344607861,354.414828519313,545.617576836919,487.209281870117,620.354101089246,521.612893096252,438.113420831996,617.355622738502,512.619744771452,681.18791290179,570.233040828491,427.998833764391,672.979990441667,518.834375354225,300.931442361181,248.326137629724,709.779724960181,585.122415294319,265.152923255536,250.494584912354,226.026708235344,614.554037243321,468.941773760494,207.975706786008,228.331405591115,308.886459847608,222.134559943305,228.417850900641,-557.597649570384,-246.043885110575,-518.371031530765,-414.93364629462,-1038.56975803014,-811.580905829534,-923.320871419426,-631.170583419282,-711.48468150818,-690.34897196079,-1430.86678758396,-610.660173569821,-942.574864867728,-183.975599022375,-326.711318105731,-681.528856613679,-1643.64418366944,112.037197911721,-1814.38796147866
679.176926856572,461.930610158361,701.676653588521,596.574321942329,102.70858444443,760.069179445488,656.290472795981,324.65684936362,640.837914498856,413.824808475726,252.016614801005,735.802745202492,454.530213894551,381.667484767255,634.948664098332,592.17683368646,661.568345672915,610.15556256257,541.714770413002,617.060520604558,603.738939608573,656.911225078541,606.902141848131,554.420700289148,687.670850433387,594.878124447572,736.788354542175,638.79150872706,512.491768437169,754.928079158636,577.589302981211,417.356580722184,398.45419466726,766.139021783223,636.331150192722,317.449441574097,388.236066467091,378.278133244742,676.053041126605,487.428312345993,331.4514768692,368.534752953451,391.602022420592,358.794849569505,388.298762990019,-770.543988770422,-170.241657011969,-734.74764438488,-648.553018266507,-1103.49631901853,-1122.53439313284,-1065.77125445287,-1091.29355256285,-998.366741056228,-709.86605279217,-1436.89977865395,-943.100158349363,-879.757337490039,-451.961958602159,-370.63831870498,-599.244177593181,-1742.35413981018,108.859830650946,-2064.14031608505
712.629851273484,599.385281829722,728.164640475464,654.312276495829,375.716246192503,789.9419640181,708.19706147905,490.819620940721,710.878045655053,599.949677148162,656.319787761579,752.036695597137,664.593300924248,730.693517544,681.208617075998,700.447450086676,667.909770348796,671.95124813266,651.723796962431,653.62016804884,675.948766458976,667.667976756429,660.705593214849,629.025407359808,728.783073768587,650.344000492486,756.593859125714,697.200147488818,581.478199192656,816.174841752116,620.653857019238,537.870072819264,516.430632896922,779.16177464838,691.134469615287,363.191020187094,511.205104309567,496.966978739076,729.498678266748,511.125891898771,443.731949991295,478.525920569802,460.384495540812,462.787678317634,508.842855504061,-1005.84039111096,-151.84464672341,-1000.85010144123,-972.739686414203,-1004.46574544701,-1477.96360204604,-1190.64908602664,-1711.77235380673,-1331.29180526636,-798.531300271176,-1070.73351212514,-1432.97310644562,-676.979690995673,-971.282296781277,-583.69769920595,-458.163680863249,-1231.22331994956,-109.254021790864,-1632.27814911934
709.602100451795,656.493869740492,699.304711190049,633.169633144857,548.263168847333,714.387207652541,685.934072641232,553.011221333411,665.939962520272,673.502854277074,902.52126021318,627.769675946879,736.651769056732,905.719990812364,635.393887724829,655.736658673654,592.672035461964,631.840089645199,625.018979048052,600.753809164296,639.358751287076,607.960353001794,620.305526013893,599.560896572571,675.328298836895,615.341776996414,686.980161427125,682.346654576706,582.120212773525,779.564625919406,581.615892231169,594.893799649237,514.542608856129,692.230632200701,682.388629860192,358.844323046012,536.303764486622,498.501530854772,711.176537419619,504.999790868651,481.935112921877,483.728803753987,479.961174154159,469.982900080656,504.036117607119,-1084.56555218164,37.7038916236796,-1067.54920361318,-1001.12591535747,-570.596762299174,-1663.21543710293,-1023.61175894934,-2168.50810422983,-1468.74700274166,-801.472541498105,-361.257824997021,-1746.93842835048,-359.310252935394,-1428.43445672475,-761.941684619312,-342.379961368526,-263.384007922787,-358.958021893003,-685.503939460302
658.108596395454,610.884839983964,645.126694017265,533.403382608735,590.707801454634,583.642090859696,594.050787413284,489.044243443645,525.510995979703,609.499871134295,915.723381272685,416.566033977865,641.411080792922,838.993840374146,504.352830293066,467.55943902545,435.127011369457,474.400919949238,463.651853699401,443.491360500894,476.747372458131,462.433707865721,464.574057751947,450.330039524029,507.391094820435,470.002994557171,523.408393344519,557.399529619509,483.613950895037,619.375173909903,413.628728466489,551.21759834366,362.687367430043,517.69113224835,541.658906340825,288.368438750967,445.264403826964,352.756154598355,594.885535887142,405.565025261963,421.664429887547,358.457424486243,437.623332519942,385.451371274155,354.609942366496,-856.854544433194,534.105179292296,-752.554444637468,-537.872845204082,218.370161364911,-1430.31258101259,-470.871108324199,-2102.36005889908,-1246.22781153109,-571.566096111287,491.698254299764,-1622.71303573705,38.9521905839677,-1478.25493719569,-716.473770008876,-213.714238578343,783.756312647614,-450.855211387328,256.560607344943
474.745991563409,426.248846687306,479.279856717552,305.678170481901,467.005828641782,385.572465487944,351.346733846308,272.866974146265,259.167970808793,371.785977828834,678.646246956009,147.630295221997,353.712242299681,520.865900099772,304.510669902678,179.090840772056,233.635152289005,232.38310580903,207.908216694253,217.844184643662,228.395822851092,253.660822827003,234.41572073278,224.469587432566,266.696136940291,251.375154546882,290.156154543664,347.548318792332,305.2265075482,372.425973205769,144.926271782236,428.265554236421,130.372602422815,296.715943222184,258.4022074084,158.974232201174,288.579220695323,128.093597774029,403.432226589714,172.987129886534,278.129975986709,158.615088456092,322.396610079699,252.197379637532,132.321674930464,-380.205257172672,1084.72536652346,-190.277906795692,138.9384996864,1011.16256220613,-839.200553609333,193.545485041471,-1560.72131870115,-809.748316131912,-182.627147239625,1142.91770607102,-1215.80590043892,430.35455298508,-1164.87429607772,-508.432901127769,-30.5509777013023,1465.31173658419,-402.615441214297,769.425677294034
147.819119931411,134.663647065783,160.3202241874,-49.7325105508464,221.004521008161,93.6362806668402,-52.942353316139,-36.0248696457881,-111.222578503264,5.68468226268339,274.986338562041,-140.046484242449,-71.6802577176086,41.9868215289018,70.3844068393565,-149.160705212415,36.5289256251129,-30.4792639667229,-83.709979872866,-18.0856741491955,-35.7756880199064,27.2844540718375,-3.73177467266258,-13.0057200815768,9.40886169791658,22.2401527655458,5.85977876804233,111.692478634727,112.315514746204,84.6155403710627,-114.415165542438,276.888497922106,-87.2923405135647,39.2966655865415,-101.526594123501,21.4528982837927,109.398063304599,-76.5273109440899,157.059194527275,-130.704811353282,87.7261751781917,-34.715515351949,143.694631469104,96.8441539805949,-71.5019259295733,84.5098177324525,1241.35044087831,270.131638759647,531.640244984299,1297.02383433094,-251.977833993756,555.073851275699,-910.213350576694,-447.501337974895,122.55622562314,1336.58701257745,-825.118096636407,693.906794133224,-796.878234074555,-300.243825180425,152.404558522741,1555.02562566904,-297.069205603442,824.797549634815
-198.306573328149,-128.995589531237,-196.540422173492,-408.890002822409,19.6661732869891,-223.298766326167,-454.641482377356,-281.027426279335,-451.66946146801,-329.520010805317,-112.500979238234,-380.410445555669,-478.448327135899,-413.979013866529,-138.918189054106,-433.410024921712,-108.450251149595,-242.087055978292,-326.124114462732,-203.90826453536,-239.797175478878,-153.90854488788,-190.907799508488,-195.303199662539,-209.265069771072,-150.748900058704,-275.972259982489,-102.991864848362,-18.7123891865833,-214.193994060464,-252.355608546886,162.995400467071,-219.101430638094,-231.660630561701,-422.965121678434,-34.4966510440927,-37.6624433883723,-195.960665886316,-129.738385064711,-374.35150916017,-78.7519339111572,-154.809994490779,-33.1032806082107,-48.8538087945606,-192.518617053205,262.197744258009,915.49876122622,380.391245483499,448.625622151087,1031.76660759029,21.4373331459005,505.754207430443,-462.931816743106,-291.313912437612,189.387199362815,1158.89697147415,-583.259561790408,737.946111155082,-582.245567485109,-163.08972723605,257.914424464918,1231.42485583616,-178.985962640631,653.526100378166
-427.718266447443,-237.632766978458,-446.13490825535,-617.506682353751,-15.3563725074494,-456.558102120905,-670.196915884314,-355.406256128845,-646.073146597018,-509.06647924567,-360.324237053401,-561.209968373303,-754.328850529606,-719.304160742531,-299.390059122209,-624.948769891562,-190.99975288989,-375.0636760825,-469.472550374726,-314.3677918817,-358.271476004473,-254.194501900224,-312.411869689898,-297.167675320061,-358.270872637981,-255.601886644465,-468.867002054781,-305.154708308106,-80.2899032518416,-495.649389088714,-293.276366885396,108.251370960482,-259.781186403514,-443.638354222658,-636.949073870278,-20.6651736451477,-95.7306629349266,-234.910910997898,-419.264754955248,-511.393503168508,-169.99296784956,-189.573320533423,-163.999219710177,-152.409554887121,-230.404179076525,124.46566541525,445.177346355522,195.97548311778,134.101357797345,655.656465819954,-12.7113087983446,281.629373965104,-299.547972921088,-269.055530816404,73.48478658097,875.257261001153,-472.741215542265,561.900541360438,-512.488183628658,-78.0549081626559,253.543463717971,825.440434225911,-104.823159374103,445.11950296949
-508.799624156673,-163.431526823798,-565.648319653783,-602.847830637327,66.8556412146942,-596.403616226912,-682.298259838847,-289.2778619383,-722.816237613654,-547.265839233952,-507.825745614177,-748.434942489073,-935.633188563977,-901.602619924468,-456.441131984427,-762.801308446928,-260.601847000713,-472.868834763453,-560.878358642428,-382.858267827388,-439.848073728462,-299.001563306658,-401.416551773173,-370.458659233058,-454.770275696842,-353.795774545629,-534.357780869242,-517.590909055463,-153.844297268455,-704.977580563529,-381.010324407355,25.6756723895075,-300.241194046542,-548.198236478768,-759.510990758721,-78.4744596429475,-118.42563452177,-272.86285849859,-661.154733824539,-604.762292377367,-221.791928798492,-213.39410803259,-284.49761058708,-226.471434390996,-266.820501727974,-93.9373106645967,118.324838215015,-15.3446015290743,-82.4886421453344,444.518671568638,-108.215385120586,130.086010994613,-267.126016258863,-237.349077162866,-43.2009085192941,639.143811503853,-381.608257074793,316.259671894749,-445.2438248355,4.94486503042759,180.637459478469,518.720334774904,-83.4127608843392,273.768561034019
-466.797879812765,44.8414262151578,-600.298121840252,-387.713403034568,167.621942766684,-701.161604085354,-585.32095147012,-159.833300730381,-779.324113696376,-509.080373762936,-632.711655403681,-977.321629612305,-1095.5037164617,-1029.77925827315,-642.428724728773,-900.351560371155,-357.448913985369,-581.074829789448,-662.346347705862,-447.42850837787,-528.330375813338,-323.103585685848,-478.494972350257,-468.132429341846,-514.408877104317,-475.082702235251,-505.321909128601,-678.059568933821,-297.15309781955,-778.428847943404,-548.256629833902,-169.214319783932,-408.46955436215,-570.684176557273,-800.474558304936,-244.50527232011,-222.017715902736,-367.282691983889,-814.774328601578,-667.739792647599,-291.818012277171,-300.1725550846,-407.981986957875,-304.902316847965,-364.486043666502,-200.659596531608,-61.5297137505307,-69.6699389783978,-95.7215149648922,325.507517509653,-71.1439264897803,145.650561539459,-153.095650141617,-97.4958360463626,6.83338986871897,504.043065671216,-184.448264293345,227.897002253489,-261.015898561466,133.303996479309,174.920840557682,372.255075445887,-36.1007150118443,201.359928292045
-325.717829962047,299.877765633024,-550.722179502489,-84.1065350116403,268.40625206481,-773.653998329668,-456.742440366072,-13.6570037573465,-853.43803588613,-439.833103496899,-733.312466108398,-1196.90643287751,-1242.9341855491,-1108.32775287653,-821.333146335907,-1029.93913576149,-453.804429363294,-683.480675880012,-755.065471499869,-497.392619031489,-602.897745747607,-329.070541720123,-524.079287657801,-559.456782798767,-525.179737096917,-561.590547488808,-450.764052972242,-695.496068212725,-461.052917102276,-734.547309396262,-644.644961536392,-402.085435192627,-515.407832999479,-568.902677024533,-746.517060222082,-357.541312569273,-396.051683911611,-470.22680860081,-852.451361562158,-634.896076511986,-375.092673878073,-419.367456066961,-474.655858237078,-388.369590373459,-474.389775356574,-231.896489438141,-214.778743762676,-29.3318621569398,-33.5345968084674,210.391873129211,67.0353635045917,268.695868522281,64.6307674601128,127.963666011503,217.11061288862,499.802150171136,101.893555245645,360.660820090377,12.5468254636594,308.566219623499,324.233812473963,387.032461781423,75.9455793563955,261.536452487078
-157.883280702359,484.115943060554,-432.677513245068,139.664516266808,351.128930190283,-777.722505878175,-360.823842088631,86.5008453083842,-929.639428252677,-413.248256536601,-808.848830005676,-1341.95707034794,-1378.29237239749,-1160.88928784532,-945.892174417977,-1114.99699407378,-496.535907839925,-731.983763655381,-788.81928095,-500.596016981406,-617.939904566607,-315.291529476319,-516.288132560402,-580.948011008629,-496.745171706825,-558.002231588125,-452.378963142362,-598.057102300157,-557.24204639548,-707.504539716336,-576.783595718901,-530.070464728579,-530.845041994927,-623.609017269849,-644.939537091159,-309.790328561312,-517.008236026776,-504.189541566169,-790.549866628822,-509.972667784155,-433.875615604742,-482.968866265319,-458.089583199905,-449.930962413884,-514.183475932142,-282.976189267894,-435.546953421712,-47.5108736515771,-71.0227301001147,78.1541897237292,164.163765416668,325.546895367059,238.124605472197,294.606011921043,383.381528373183,560.758670722967,314.09937843719,520.916223317574,240.887497862083,449.396077175999,500.385002071471,424.864524721938,172.648391681297,355.36508045573
-94.8681087450208,489.38482535492,-370.552639287162,155.10225291373,300.617258054226,-758.189134450215,-377.902528364603,24.0405646393443,-1014.76045346481,-538.050602422853,-955.818650138813,-1403.73403722484,-1528.14575151812,-1306.81199375522,-1009.55538899856,-1141.08270445295,-472.997563874649,-710.840322557095,-771.180276374566,-452.654006620512,-565.913036111883,-289.311810356439,-459.567850795836,-532.561314439376,-463.188200250412,-485.717732236291,-550.636750083394,-507.698197852928,-563.697808726696,-812.926746248218,-447.948215010446,-551.006275682258,-497.51116309995,-791.952662438661,-596.170137276056,-223.859663174743,-543.69847584942,-483.274136012649,-716.677504418856,-385.906489494608,-463.770102129991,-474.936439939824,-425.230659066361,-481.064169532055,-495.482333898883,-346.330374116333,-747.272598753158,-155.581808140703,-238.120947898904,-141.989513920057,163.998756869631,206.982669248701,297.652533052254,290.869473953686,341.461146426244,503.893482023683,356.793679866102,477.868433005555,337.610713776591,458.549686017306,491.993949593775,265.128710653099,164.414922537438,311.041865476557
-230.945865211406,268.903448021466,-493.470872692921,-67.233315657032,-10.3094909585485,-833.493435159751,-560.848706746058,-300.757838474532,-1143.03503033478,-876.289947275196,-1290.00682999076,-1428.68233448447,-1703.27489358524,-1654.39818461609,-1039.5341096403,-1131.29672642904,-422.037877492278,-656.349810666474,-766.696142000395,-386.195451057615,-497.212101769928,-256.271171936757,-388.589519325452,-479.569420200954,-434.798215869457,-415.079300312557,-675.967305998898,-496.251798231127,-539.984557224473,-980.592118482507,-401.647690150034,-584.734046026615,-528.842832143962,-962.961556299584,-662.319915388,-284.416728405418,-555.892332146961,-507.672797379505,-718.469207293625,-342.361921143094,-509.02807841692,-485.276064017431,-461.868505724778,-513.270958331693,-520.465967646704,-404.070562131834,-1111.10839999254,-293.409534840232,-441.2289842083,-525.036984453351,107.129994582495,-29.6983917979352,309.487722690695,175.190481206964,137.621253567977,168.53294999551,320.720298680646,196.192562252083,335.604306016914,345.424024167398,266.009700274449,-156.313640196569,64.0057270286842,71.074941066014
-527.437791323718,-135.915889603,-758.148278373826,-447.730136572986,-560.193954318906,-1023.08331132223,-859.038451354425,-836.347867021179,-1298.83913315355,-1350.02960260122,-1776.00436277115,-1457.45895987126,-1869.11334634705,-2130.63698656674,-1063.00907206839,-1125.60765969875,-393.300941923395,-617.629013853061,-817.881094143445,-340.288652717224,-469.87910310175,-222.18043024685,-342.10918143196,-468.621669867517,-395.537865483657,-391.314684339933,-690.853793286814,-535.255006691275,-539.411396875397,-1005.86602459116,-462.170999225653,-670.016241938517,-628.86399702877,-931.257843538453,-776.484861827947,-494.999746245306,-590.333791590966,-612.439579206709,-772.672797362854,-404.322198316744,-590.650198663747,-573.34146488118,-577.763658168763,-566.704966731711,-631.113715082062,-491.499375433925,-1499.64572460772,-441.321583084565,-647.461978866571,-1051.24400186796,29.1493493502069,-302.476179979777,319.162962659675,84.8300864353726,-94.145185963081,-377.625542453348,325.520674162515,-164.20506887354,309.693268108598,218.357321085541,-10.1125161006549,-612.760221429422,-61.8426817288571,-223.456506094856
-827.411115034029,-594.022065205487,-987.132037429771,-813.575365884079,-1156.3209167363,-1196.6651064212,-1116.43281803633,-1359.23412347033,-1404.48031341109,-1748.50343147276,-2202.38560648487,-1489.03742944156,-1969.09419114091,-2487.66145437503,-1090.96164675601,-1149.90575116015,-417.213067184881,-620.470905581405,-898.600411675785,-337.707089692411,-490.950970899817,-205.640594256588,-332.999875423679,-484.893978311797,-352.003856151455,-405.554548870751,-553.963991769142,-569.303662015011,-542.728805785487,-822.010549535674,-556.115687863811,-725.380924381362,-680.933017963934,-701.641309073786,-784.759661932126,-669.154140666393,-600.412964579884,-690.464590445573,-771.022818652987,-531.350907917247,-642.86957447844,-664.920915261365,-705.536195677205,-609.154913103836,-725.303995868774,-570.696867356248,-1918.25744904297,-579.338610913089,-898.741714622362,-1604.55567334518,-31.9689142946302,-584.27623543439,320.452268790072,77.7062611819289,-253.885145828838,-792.278214435647,370.479906294078,-359.08711964102,300.998344099036,158.905764507663,-137.718764548429,-749.021706267782,-171.09596743061,-338.650782137072
-1005.84495758788,-973.828393096778,-1082.86624432425,-1034.18446107273,-1618.94384300765,-1262.60717215267,-1215.43975883012,-1687.61687061258,-1422.64128242329,-1915.3859641052,-2395.14104835692,-1529.52153052817,-1995.21792149507,-2542.81546944981,-1146.86834181505,-1219.37270179535,-513.5953216196,-681.890750565665,-978.342063496848,-396.968534993921,-548.844090043505,-236.220483473032,-372.001212777759,-518.025190552817,-354.178535712189,-452.293500031279,-389.26314486164,-600.045845178109,-539.458953260468,-606.91220758199,-624.299288212861,-708.305381294134,-645.643843508005,-498.893836162072,-669.15805984165,-659.767147305291,-598.720414837328,-674.548680752026,-671.129052778183,-638.819294769373,-626.744704805802,-696.695713876791,-801.752987845553,-635.8764038852,-726.194962040208,-504.357549381596,-2302.42344927752,-587.299698153476,-1123.32389502966,-2030.91840609301,23.8918750181107,-797.988928618213,361.951022108491,145.682066040114,-243.464479337626,-777.438077364635,413.493909597649,-199.850124113603,326.889929002141,171.958814520044,-24.0947443919052,-469.156482195562,-234.925560426197,-183.012853835815
-1082.58267245346,-1259.01362729994,-1092.43254799025,-1154.6933256385,-1937.08684705299,-1264.25369968122,-1194.27799394874,-1858.84693897726,-1387.93902585685,-1904.51506911483,-2396.84946620908,-1600.62555446937,-1994.20704007108,-2359.04119949791,-1258.24595376854,-1330.73273307408,-679.661958753634,-809.916528563405,-1070.32464178986,-522.903670248699,-651.187747483814,-322.112073665788,-473.145260379388,-596.199460069306,-431.995386925952,-550.786230172686,-326.404934742774,-657.652668171023,-588.534320976707,-529.506004928502,-667.349792655536,-672.8414647453,-632.621628120375,-455.199204009294,-575.291864604891,-543.299770627912,-660.925776847648,-668.365945928447,-539.164650274853,-672.858651255248,-642.84866153916,-742.056190968039,-899.561071542897,-728.813773513401,-720.074257290563,-253.310073439142,-2485.20592736244,-348.182335072306,-1110.49377792921,-2239.04542130142,274.039666294277,-818.286303228,523.526451805229,312.854867763943,8.08609654053701,-475.185506707577,491.535065959094,277.011213393107,399.783084031291,270.24869027723,290.437457825231,-150.790913886631,-207.700820285849,48.2270901807631
-1141.61447283218,-1503.73083927405,-1070.08250725307,-1285.82618898258,-2165.2650913614,-1234.40880373311,-1155.54182745288,-1981.75645847989,-1316.86066952036,-1853.96459974325,-2336.79611263734,-1656.16917174081,-1966.85017370356,-2103.39213183069,-1378.47556262977,-1422.22065258939,-851.100911914708,-950.702628019514,-1154.79930262673,-661.328090012286,-766.395844309121,-419.658225456554,-595.234884701702,-702.419837899849,-528.635570250701,-668.814108881536,-339.169992160538,-707.849297432364,-697.820849479936,-532.213821124067,-679.977952910057,-668.075055454497,-700.69240032132,-487.606899961975,-537.62834299528,-486.433089683598,-779.524840326154,-745.573344659672,-433.873388246895,-638.372471907978,-773.726650806658,-848.245279496167,-1021.04965427865,-941.713808656323,-778.475645821232,6.97761607991261,-2394.76472690523,37.8688695445812,-801.10764252554,-2298.37043157583,601.012140262018,-661.628325669292,753.004839012891,591.128463347861,404.90772781955,-367.966011725599,658.553352490344,766.985109274648,498.288352101597,503.897801749275,665.418520966338,-321.223095904561,-60.1088518184691,25.2301474275154
-1218.04896801223,-1711.05328961817,-1025.83693137392,-1427.58941990206,-2280.09347970909,-1130.12542732163,-1135.64044587032,-2036.27587510782,-1191.02823334749,-1788.25220919998,-2229.12422389753,-1595.05367765627,-1839.35599840133,-1822.07690082522,-1381.87911262364,-1395.53055279101,-918.073218201572,-990.307477948749,-1143.78018688751,-709.41111758636,-802.968973710639,-453.31820737775,-645.668680992351,-748.847621393832,-543.012711692079,-713.458183268637,-309.101656351695,-669.247486937488,-768.139079691857,-460.805409372439,-626.406146659305,-688.276064412485,-743.56114783419,-448.210101622563,-441.686434524888,-519.862165566033,-854.920648768551,-795.05398513904,-342.038001701814,-572.304576541425,-923.36776905753,-908.201943810145,-1128.11068279096,-1188.26277021711,-807.940084266344,46.5818223913252,-2243.04417861325,251.868555896611,-507.586313122751,-2388.83666933092,708.447188301765,-571.387625686539,830.707105365993,825.816683232536,645.986143088434,-735.049351579113,824.851973289391,886.175613696091,534.374963406916,807.673213489159,876.144326506926,-1095.60621631708,127.337921389106,-416.693573946128
-1323.68730595329,-1855.39056986749,-1016.56422346894,-1527.36021522328,-2265.56828216623,-981.133121948339,-1141.38798046084,-1971.89013895659,-1058.33432754804,-1673.27067549929,-2045.32273205582,-1412.307326916,-1589.78448351589,-1494.73324402182,-1205.69376524347,-1227.69095546179,-831.449695498185,-877.129443397746,-1004.24379139625,-623.670515126358,-720.623751880594,-388.721689083392,-585.808164521174,-692.015890352677,-440.650267638278,-643.36307651497,-190.586239773273,-527.21466288289,-732.758753397246,-283.67120726291,-506.834287270297,-710.1509574479,-672.204928571202,-276.619881425197,-284.460279106737,-571.746939489973,-830.601120129571,-719.787247551219,-248.453069186069,-514.44831648042,-961.838342656352,-833.360825987011,-1202.75509509441,-1323.21826959274,-727.749727295152,-188.579301370342,-2324.69149229576,55.232577228274,-627.36385322034,-2588.07587886275,414.556746463109,-781.4274580836,589.197577824418,746.569519528173,450.816636561475,-1358.83096471486,776.268132098654,467.540314587848,405.247114203069,917.401135187012,684.966748153349,-2064.30214523126,150.258869941654,-1154.17614707168
-1467.13904056485,-1952.13663920372,-1112.27828026432,-1595.55566082947,-2210.1833425425,-920.111743334248,-1196.56113158897,-1860.63033745104,-1021.17360104396,-1552.9633195232,-1854.43865911803,-1223.79722671487,-1311.05998375306,-1195.2150749679,-947.995092258327,-1014.35677890099,-679.530659474503,-699.070348558068,-829.654166528414,-485.145198908574,-591.46652677334,-282.482038969097,-475.011762304395,-587.367564436616,-286.552850419241,-512.639600434703,-42.8708530085205,-350.67859060044,-621.559199909547,-89.700365294822,-362.16525710125,-694.584658046748,-552.855358918323,-37.4185383961467,-171.673922849355,-587.600911843351,-735.348400122069,-597.47579084328,-170.95327872191,-460.303355237264,-885.628771692886,-686.585557184635,-1253.1271698508,-1284.94996175957,-611.57045474668,-533.113199709851,-2595.83789395379,-424.080070124487,-1118.3362880218,-2745.99711834541,-103.041069223129,-1193.75526766612,144.236045229595,295.061441515685,-117.714610455906,-1826.02691813997,434.138981789837,-281.834759336246,128.341902997535,626.205203958369,58.5393929880855,-2747.56981595884,-118.990140431453,-1903.99760320707
-1576.956334714,-2000.60567612342,-1241.0385187968,-1631.30267877017,-2181.5193782008,-968.711607203823,-1253.7807721049,-1783.9088144487,-1059.98269621015,-1467.28490073529,-1723.095475707,-1077.07218349454,-1070.70018654761,-1006.18006664972,-730.304792177901,-836.320224930773,-580.79645903925,-563.689915323837,-704.153489153942,-391.951200814447,-490.117007394719,-213.243837659375,-378.589084366255,-489.693700619833,-158.115866270654,-380.740051676762,71.042767819434,-195.191329858344,-471.26649594187,56.5801006767905,-217.560623947753,-584.954680559773,-460.336104333414,160.255576544287,-94.9934232034307,-525.131983821324,-591.674140745999,-508.490319905836,-94.449963104383,-360.084814398617,-735.569980366329,-542.643791719681,-1227.33262643526,-1106.15048552517,-526.336903281085,-762.295016509461,-2683.14089577856,-815.146308342473,-1502.60785015953,-2651.48984868899,-479.250859183404,-1444.88029905686,-196.074478831844,-226.47882420139,-652.340720363068,-1968.29444734973,14.6030102896981,-938.813050529172,-118.846123762634,96.5087740118288,-694.685909705379,-3006.3513211713,-525.803872652382,-2417.91373639774
-1527.36887405694,-1940.31787848889,-1231.15322395332,-1558.88551403478,-2116.07296292742,-969.007193435235,-1193.62268457791,-1689.73980117822,-1024.63622423358,-1341.76917885732,-1589.52768108626,-874.669603032122,-831.760966556911,-872.404926276501,-538.307144974532,-665.37884243064,-526.246170050856,-467.685402005367,-596.850844786897,-339.739142942978,-403.887864547091,-187.639035332963,-297.344182408455,-389.383381866155,-72.8867219236253,-255.870116548257,140.78477357392,-65.4613745063988,-290.804047443392,164.721148023178,-77.2790625555233,-378.306594623756,-355.150489421494,271.148178680676,25.3044718348088,-367.030409535458,-386.225562648697,-400.170103335142,19.9734897211171,-197.213161269025,-512.357165513966,-380.279940754734,-1047.92724608569,-829.78616176007,-416.883061116225,-765.849753361568,-2372.40558105278,-891.891836770267,-1441.71375854365,-2293.70515997563,-534.658404686145,-1326.55100223468,-244.726530568514,-451.404364293738,-799.402612157899,-1883.66192123639,-172.741866217163,-1193.15609159169,-166.33324708378,-260.975948744479,-1131.64411132681,-2946.59908959696,-754.501017741033,-2568.35876720764
-1281.14501662249,-1715.4959574758,-1019.79655000549,-1323.71113166824,-1904.91361407513,-804.157449743918,-972.57777884709,-1471.66735620773,-847.486629288835,-1087.82775861662,-1336.29544656901,-539.413979745826,-574.761920418351,-669.036327007052,-310.54412357933,-463.188873562307,-435.495480195494,-356.933033750354,-455.993356390792,-280.090806519521,-301.124526724476,-177.319344932334,-216.610379948085,-271.151741059146,-23.0652000767754,-138.564246356496,165.972867762343,35.6203774317963,-107.157168273763,243.238631639183,46.1116608115449,-146.276254920657,-191.10394258143,314.417151649346,162.949483276128,-165.490341710342,-142.538917839437,-219.510476758653,147.778226892197,-17.1340350451713,-238.300478511541,-177.174846980828,-725.351674592808,-486.948301898296,-232.696721137872,-541.390916841202,-1837.11598577112,-670.846490426397,-1042.98474359616,-1872.84847620233,-318.164068850848,-977.499360633633,-28.97184192939,-271.984469000039,-559.197382001041,-1675.71842935721,-13.1899438687472,-1026.07346126667,1.00379639059095,-210.872089437058,-1054.29102219873,-2627.86670633342,-644.469953206927,-2346.41096597892
-912.20309413115,-1325.22010490382,-688.344636933752,-956.012757475447,-1506.22918092467,-512.317793460974,-652.027726949091,-1100.43474427495,-584.988057347594,-717.684789141728,-912.508947664995,-90.7125291683454,-317.648245283759,-317.833616141031,-54.274372883969,-232.377399672761,-302.227004278318,-217.094219197553,-277.075088820225,-213.768014839242,-190.885743140321,-189.225815880227,-150.827277635944,-148.696536403839,-18.5784069860878,-48.9331384060295,127.533753613456,87.4333257412461,35.9769972538548,260.670653561014,126.222373159981,50.2673768724318,-5.83674079848907,299.732869554956,232.276808966445,5.49231024528628,67.7896056912016,-15.0917435140893,219.528256463051,120.521151180051,11.9352100660662,18.7286479729045,-370.509426240107,-148.291420980514,-19.6578924456024,-136.561430526711,-1347.76358420487,-253.485389168151,-591.864055169265,-1591.9413521773,68.7736704749143,-666.100013692612,346.564752399539,136.446080643368,-194.646599097955,-1415.07563242776,359.627558089915,-669.22315788101,291.765890589582,107.640422334932,-672.458002978999,-2096.27280211599,-309.428254664238,-1893.83650796499
-525.848692078825,-854.829122729732,-343.020137072332,-557.323418169711,-1003.5987301154,-171.792409470177,-318.374239923685,-672.028784892921,-278.169151868808,-326.729698267266,-411.255130877493,442.271508945278,-20.4887996409594,153.834220056344,219.902275312765,50.3610661000557,-163.255682474254,-44.8029988179567,-53.5475750340777,-149.728002157599,-72.4209844790935,-223.258988192544,-98.2592557706091,-25.2399571772231,-48.0252742894931,12.4499396701698,37.9812019774636,91.6974862364581,127.561066940108,210.266978606074,156.332757633781,199.230155334585,144.549674493473,228.832692520549,225.532334570732,118.481813847144,203.62598707605,145.508678269587,218.567705145415,185.973155561148,184.290748849362,159.989093635489,-94.5508835398201,100.968180929399,153.008132428177,284.124878892987,-991.524175001041,180.247848407303,-253.435127599189,-1479.14461060039,455.857713505193,-522.11596819486,718.491319422579,471.11580937445,21.6201178327359,-1222.28790630836,684.767695148373,-419.588380059561,563.256016223707,361.503358017568,-382.6023181145,-1565.58014033094,-2.07429734365624,-1463.79529419126
-213.507366003938,-460.761293974385,-58.2981211865536,-259.060333148812,-574.910896761113,161.817938554832,-49.7842032946021,-347.16904482602,59.9676039925025,-15.7889675041379,-18.4036160839172,1011.6129323042,349.97468257774,607.434940033249,532.005674531234,403.596063107498,-12.4143881706519,173.741388716557,224.753371760424,-52.9296452367952,88.0967393692671,-227.63742365897,-11.3148611953094,127.425752244944,-47.8676265689892,91.374187131822,-27.5646875750745,106.443597673385,214.898198346526,160.233105532972,186.223251390364,323.65043515274,281.716859531537,156.807836035054,217.497748183791,205.424291161805,311.035842221902,285.146223496561,207.012274446163,217.808078692461,309.229832708988,288.030167184375,103.600161050143,272.877453418592,299.500787246713,518.378571394756,-681.352968896837,437.723395853885,-9.60043130107538,-1347.26792564181,660.55709511191,-429.195014477233,903.64268834741,577.052837252472,39.0154394411938,-1101.60256744596,787.611123902574,-368.456321627332,662.35888292793,370.591980945441,-352.511539983344,-1244.7091422235,102.76031086531,-1171.12383767991
-21.9522789452837,-249.354598402635,130.798684737745,-115.433218589214,-326.498227356891,428.622241735283,129.047197757989,-174.489907682072,390.9356825632,211.368533911831,237.630602593509,1497.79435973526,741.798968144455,957.457905056139,845.815753453712,775.095142382272,147.331269219355,413.152091770479,532.087817661765,87.9739427400197,292.912726145895,-181.61663535566,129.665250402789,328.263515322646,15.2441110857856,226.707954479425,-25.2720367325643,186.763155789204,357.336863414931,172.945160623568,274.915046901288,478.616582556831,492.754047215687,142.654914133449,265.513494275433,322.759588719422,474.940548229926,497.693327547984,235.409040339102,291.512714373538,463.860613170557,493.003915141046,300.231835775632,456.744545811356,510.191229889398,598.978600831487,-304.591998139149,556.99657310881,261.886543885793,-969.440522584464,736.672990474472,-167.501899303203,914.326441285417,605.640046497813,75.7470010029997,-871.468882304866,748.59499140965,-336.545848706795,576.330597337566,266.380711077123,-381.291431844545,-1060.42907873988,36.4517198394853,-887.885918301202
44.8811736742604,-225.318677827045,225.303282996347,-76.4898156923154,-217.590814447349,586.598145054673,254.930475428477,-56.6391443434152,676.987045269116,427.15583450589,521.825661643155,1784.29341488413,1091.51042086726,1255.76537037765,1054.56098786711,1087.61880683684,246.915598972474,594.636535293179,799.606958002841,195.385498084059,468.519754823265,-164.857038124411,247.631769486312,519.455323268111,60.5701086363508,362.857617597521,-33.3331747350518,273.405238214176,515.553667819907,189.521276116958,377.418296192239,657.927967698692,765.189568843138,127.599807659404,314.497572225868,452.611683029268,675.213326440616,770.839786181992,242.847762922971,376.662260446543,644.541815261219,745.683675991934,479.547471705743,641.07090324303,777.309128645482,734.447951891618,111.242973268313,710.800271335388,576.798891434933,-392.104849279264,867.00347842109,234.238670385777,922.406526388357,727.467553844591,287.043837391121,-496.422011777018,748.057525352963,-189.341853431716,451.536546674184,250.411963933697,-239.603341709685,-822.890717682048,-52.274762049798,-519.240693095179
1.35284415728781,-343.448861012116,240.089673224429,-95.6606317203291,-173.455583917043,649.243611276027,340.608552249157,57.7030153260225,899.853333018473,626.135362990836,863.935279180253,1849.52094920527,1371.09547420663,1495.00805478967,1092.64822944605,1289.51722270465,231.858908714824,652.323290802419,938.719489706033,183.356569260412,523.578941438316,-257.826314068047,240.728505046963,582.678448565619,-19.4725415467061,374.12828437934,-156.453040013845,233.683731649878,547.417044756841,90.6884948211098,359.439153229885,725.196957995029,915.77899208001,-8.27122844207565,242.234094388825,475.439317978055,759.713855800695,916.876059243347,124.9295882327,332.221549190408,733.940121138239,866.976747242496,531.19849264248,700.134431227793,918.367361873568,953.44937195683,400.48165749805,873.301118132264,762.380002595907,66.1278443952538,1034.7497781113,456.176555668454,980.55422397635,848.405256138841,478.198261052581,-215.221106807851,804.344331883164,-54.6289360139538,399.564542018993,317.181300708702,11.6155717751248,-511.160694046501,-63.821371131993,-118.779036641676
-118.526988168386,-522.863674857027,188.369815404039,-173.540638694514,-148.693506122548,655.882032030585,348.582513180404,124.892225473274,1036.23464223148,734.587563756799,1113.76894514081,1762.24304086122,1565.93600388825,1582.93880509723,1008.634339645,1354.1126923003,140.814384678072,598.026822397432,915.135406680531,68.1961912703054,444.286673855081,-424.863317114862,106.532350676839,473.062901916212,-208.941611439559,220.6699489294,-376.061449975056,45.2272280825956,391.569600430414,-129.258312140853,178.542617248391,584.417474383813,813.657057099431,-253.899166175808,30.3247148731165,330.730025795856,640.542629742379,806.350166947182,-102.270319477002,129.437460101406,654.353135173979,754.929827027759,434.767267329283,595.822370746363,804.867639109937,1095.96635906367,468.728550361679,894.660371832459,711.724070192822,215.063047951734,1105.21159951354,343.226748485314,1027.34359121526,823.473993828963,387.849252609132,-166.636762336927,829.059394266659,-93.2629051302082,412.620903196128,327.621124948366,156.297426854038,-202.954921413211,-18.3143717290684,299.936706773262
-300.053788799439,-695.259182294626,61.8695242969503,-333.20113263691,-116.310441286447,611.498616387451,234.92251239582,129.357499785817,1055.18903029558,733.497673326945,1237.36764657372,1621.57455337336,1666.7173672527,1556.74896082709,894.551846554994,1298.90649562236,42.7689370837914,495.449327129453,792.969317037415,-66.461861248753,299.656335414871,-568.871927113631,-63.0371038842325,280.766469139157,-393.07627062142,11.348799628521,-575.995240714284,-167.304694888209,162.624460139877,-351.01366913743,-43.8864415789284,336.313420349761,559.013665507191,-461.487164958635,-190.63343902048,124.66783272501,412.715764987405,546.543582259639,-308.057462831979,-77.5570569336646,469.824725302556,515.987148256271,301.75821979279,427.84547502151,542.655702214233,1131.29318519692,401.772888803695,821.854168932351,573.320731820899,177.91623627125,1107.21438330054,124.665771890924,1090.47593888248,722.665156965059,79.7458652569415,-210.525195983847,822.935174468076,-272.148258013701,457.465572583744,224.941334481414,88.013416757502,18.453911828486,-27.2938815948286,671.121018968206
-555.917288348206,-842.486306026375,-146.516237428454,-571.96359205929,-72.7138928343276,490.759492377213,-2.95772160381383,106.386370799112,950.08078402758,661.085910296109,1330.50100295431,1473.90823179179,1663.4812134483,1551.1372325722,771.923299962165,1179.68891719441,-57.528090424478,378.060694504531,652.232940492392,-181.04250770607,152.260161053542,-653.292705517154,-198.804034673007,109.447933720426,-508.774247822002,-142.765735707502,-683.999048788745,-301.183757635039,-10.6071409290392,-485.636846646995,-189.195317751773,130.367653442619,321.226258745378,-543.74165946389,-308.816602288867,-14.423379583984,208.735838820956,312.467161077334,-408.59174289933,-172.477154080852,289.378657716535,301.456374627721,224.466028857376,285.411098770228,309.348201888106,1236.19209350224,388.383546716949,904.008821540861,616.388364933149,182.00324732302,1239.76993047335,108.707390483585,1314.52884609741,768.283488298377,-122.646367356416,-175.891996631924,934.057495202126,-409.345397383704,604.746090179809,165.338692832647,-80.7420023409081,50.9406682762245,-64.2305923591999,761.716829159446
-783.464342566666,-868.178893074749,-359.349839467611,-738.18899956859,43.1679051364938,312.63661146664,-241.890089558763,158.70040882714,777.446931978828,619.929649224833,1479.58419506623,1286.56553145506,1570.5912739011,1634.47168698635,606.387913197696,1026.69076143472,-190.487360910975,233.529524696642,512.109996389004,-291.345224204312,9.00632024080645,-708.17932537791,-305.172662501343,-29.8677523981537,-583.063963362207,-251.797793215376,-727.913812745078,-376.891512947929,-134.245732233677,-552.233888847222,-278.251427368334,-27.3605172573782,137.864891796971,-559.592458252353,-356.653896321166,-94.8755316492929,48.0342660623607,143.715024875251,-437.252789293805,-210.749931480735,147.361667327221,144.716721893205,189.204581017161,182.714688666619,148.129934104592,1523.92669634667,587.165492670145,1282.79384901539,996.066460915832,379.587870966831,1626.63788734106,432.417940126126,1789.35453234583,1132.34799340546,85.7686889688054,31.1227525616376,1341.42751226318,-253.605904953432,1015.0878158746,442.337888585376,-30.53510921947,-51.2041044220305,169.558426472136,562.288569685432
-754.276280684679,-586.125906039198,-447.414152050826,-589.066123599195,378.506296403676,152.537800272181,-281.45909836238,445.126802305493,637.661725771726,749.267663532169,1776.91030489764,1045.31506686583,1450.24568460506,1811.39952261037,422.038658811041,842.629123784656,-329.758926840722,74.8447728327044,382.466533035969,-389.14025262368,-121.29529857361,-744.108686959243,-387.68194359721,-149.595159690418,-630.079185622465,-352.40650737194,-747.670103432679,-434.47301629237,-255.170821730433,-586.515941180653,-360.46127052863,-189.773376984738,-13.7526745855434,-571.214876654939,-399.497361580629,-176.614187147108,-93.8607511688365,14.0459470320718,-447.787268175228,-262.76604578584,30.5277716804638,24.4290883199913,159.30154144763,121.633312650615,28.5730350949185,1839.13341763697,981.573151208633,1766.19910133867,1565.34838476077,804.685666431078,2079.1306754021,1007.53656031667,2330.70969232084,1710.7936060988,720.16211271137,449.478265579576,1953.18122115391,296.636066453374,1637.98284955402,1062.09898696367,411.036963541482,-71.997793057348,782.504777966427,419.08346061079
-402.245484764838,2.82498594291587,-365.082020316504,-113.506139974676,960.858307202945,73.5427973233758,-68.3687915689694,962.328614577334,587.776772508475,1034.7233220155,2218.69896621301,829.982228032685,1355.57831001453,2011.31731238704,315.426866232023,676.821387721148,-384.344741566835,-18.6764044399735,319.632799088864,-408.203408659004,-174.248001147845,-707.980353471799,-394.78111069349,-195.006560668389,-593.65649211105,-383.741324764135,-697.693940263771,-425.467068761003,-319.636506961599,-546.724321245273,-367.351417728613,-299.766904101871,-75.4877918271945,-525.289388687682,-384.810606068611,-217.140319831128,-164.728515897066,-30.6528633653265,-414.959398427892,-261.560070642431,-27.4582855402532,-19.6719132446788,168.782418415764,134.263353287533,-9.18416941109238,1907.2514372829,1392.02693883306,1988.43861722214,1943.64879727692,1376.27363940516,2207.45216617334,1548.55984502642,2529.94035747015,2103.85458184674,1387.01800578883,952.180972692224,2318.58336227765,925.863226608702,2054.90991665594,1522.19929371154,892.171227307925,36.158181575572,1318.98516384207,507.398571604759
81.5045334408225,647.689283948334,-132.350000354654,432.862583470147,1599.48516670648,128.311651025687,271.718713951877,1484.60237422348,622.159417316924,1299.57159963622,2598.42074711508,753.407883221998,1295.25009876649,2088.43764949868,368.628902766168,629.87976834533,-266.579544134279,45.4691032414395,389.271925105183,-273.500040578446,-76.5993989057505,-527.383313984037,-263.076426945161,-97.0658703767787,-414.700942685368,-260.482143037632,-496.457219296178,-283.182608962552,-240.069661271694,-370.855826383281,-209.417173881168,-259.20224851845,19.3806500371741,-346.132331107858,-218.304084688014,-135.098292912994,-96.1689579039241,62.4992904288119,-280.338068918847,-113.976998512817,30.2835829075338,63.1790530739098,268.041369493767,237.028851002092,87.7330916376266,1630.24430734802,1675.2137010651,1800.53804922344,1936.60744990552,1950.52562839584,1857.04494269266,1847.95467617918,2164.35948119857,2030.19197027909,1675.74018526144,1325.12456183017,2111.40592690939,1202.60113818962,1920.86209165128,1402.2901051076,979.308532697092,162.827650756786,1328.90937870107,654.94105242364
509.141025220877,1139.07196871497,205.131974171989,859.648905024649,2082.85096739353,326.783927519498,592.987232065127,1830.03603384876,702.410651308721,1438.73157587094,2713.23777776958,827.688863695975,1247.87440151086,1975.14912022989,572.286115386015,729.635363473287,19.4571652121343,265.33018546867,576.83033280528,7.51870609636844,154.903448590928,-204.380241633251,-6.3532496550564,114.966241700424,-116.719023864173,-16.9200445800835,-158.248576660289,-39.7678931085332,-46.6495412341066,-84.0918929220416,48.4219478299704,-104.711476153932,198.709696269026,-62.9098163367268,69.8503531836361,27.1773639179966,66.4318744048305,224.721070750028,-51.9277190276872,135.158468522741,175.63782903543,218.965631158292,426.645669740202,378.522929571652,250.936128268578,1187.77488191562,1848.28149166335,1417.03359305111,1751.91200221821,2377.03187875631,1296.20908731651,1963.31770958968,1459.77940798882,1654.75198841486,1613.65722328254,1484.66694083424,1547.00888118427,1091.10768221617,1411.86710602379,937.764354102183,783.631553520637,313.480695042946,988.264410460665,694.574093867702
783.846200463472,1411.55549905882,481.796885448609,1112.0869589179,2309.37397281089,513.25809082631,763.844104863708,1959.49159280955,721.601197025971,1447.78183546629,2550.41443057044,895.407866338141,1140.32520328251,1718.57658461224,778.695250733474,828.050580548042,324.195232976131,485.008401561951,730.937172212315,294.457179348486,372.703552923169,133.049198413971,247.126420059646,296.499887011908,182.121627666144,197.928488914083,185.163271082077,192.725709951138,114.814027504924,208.477657789381,234.204441506637,8.53239099096434,293.317623574711,215.884363295587,337.73144378558,127.400256615685,181.707801647618,308.755156973728,193.28037103879,344.851077035896,287.548519989343,309.038114717644,550.952908216544,470.750765181103,332.973038407393,861.549026719631,1993.27005672234,1148.18995997901,1649.53815850792,2547.33362082731,895.48565282063,1966.89848140014,847.914658688629,1308.71606328711,1443.06168878858,1438.78832342855,1068.78622305805,834.353921688146,960.461029353719,603.305376255192,618.234756271284,545.084972548853,727.808878668973,597.240453155323
808.114963105908,1423.95432508988,509.921658024713,1115.04183700933,2238.69517014634,490.44996487573,689.706307239921,1845.4772886787,558.72032732853,1288.96714944411,2174.73636511858,783.341553471339,887.758856032236,1339.33876762847,802.111354893771,731.435730520844,461.888137113767,519.607753991724,678.54590997028,416.294639591771,411.248462011823,322.191747587882,346.609638695272,308.380999792638,346.76126942037,257.76749120565,393.543871987327,320.937548746268,121.691853418353,406.948594371459,254.546190090782,-27.9369608919096,202.876969102559,394.854182398128,469.810888662187,82.435929988198,136.986950639371,221.35496444376,370.083605440581,416.775928432037,251.836369435935,228.060924938144,557.105797738571,439.982152655977,241.331500477849,736.578856911867,2042.76564663069,1026.40838016496,1556.07748757319,2434.31984828599,724.695523661866,1778.5177821055,540.399830257653,1054.45409361913,1209.87417402688,1256.21291282872,804.751077168204,629.120132865454,720.795431347353,458.317874235975,470.594704724487,848.748017561569,615.763835002921,456.754344655392
