-337.978393579747,-481.303851346191,-218.576760326671,-416.274546532585,-709.37764504029,-168.264232410681,-290.420730304691,-572.649363124501,-234.960955296431,-396.917997608133,-553.727792827566,-238.295791440719,-287.375879912081,-413.012206826217,-230.756161897112,-232.568572845094,-206.107373004552,-208.499755455889,-236.845862682333,-185.663377511311,-206.759840945826,-174.643918947579,-190.013163786469,-208.934734083405,-177.471280026431,-195.957871695851,-145.282861590265,-180.153648229445,-206.904833821664,-166.234332148941,-195.667885944174,-215.386917058222,-241.19564895749,-139.048167929205,-184.068455877087,-216.474363627011,-231.98860134174,-250.257703697402,-161.014588618751,-197.770282643833,-230.103693955838,-246.487888925599,-250.837675200756,-261.277162261135,-252.722582586658,-99.9000914527868,-466.442081572736,-173.048997313354,-259.319758437314,-430.483848364766,-54.0823426877932,-260.987176509458,23.4163494479319,-106.134785113846,-204.512451370328,-452.160283302635,-75.8312740635813,-253.375050527932,-117.299236553417,-211.979584476015,-203.2800119257,-422.799225945321,-318.2593624657,-290.783212494287
-1664.66927160827,-2325.17126082351,-1079.33466828135,-2030.89049125055,-3359.52855988406,-815.301614253433,-1419.07272386157,-2701.83891947815,-1121.40905218797,-1870.02749928104,-2522.30590992823,-1099.38963302195,-1338.50822682766,-1886.5845935842,-1078.4760326107,-1092.07813542922,-984.42696600474,-989.399079622603,-1118.02850028786,-891.625467172459,-985.78299699143,-842.093252312672,-911.830125189964,-993.927922176361,-856.886448452402,-940.182621480665,-704.66061234468,-867.004352618404,-988.573381579257,-802.62493342648,-938.87914214225,-1027.08075852698,-1145.91778072481,-672.24977207463,-884.565075468053,-1034.56055370166,-1104.33294652584,-1187.17710922521,-774.16005111857,-945.592626814308,-1095.96907548302,-1172.11678521171,-1191.66897528794,-1240.62413173264,-1199.67036414117,-420.593780200801,-2148.88019936211,-786.3152543265,-1197.62545160991,-2029.80417045722,-211.961676528146,-1235.8408233741,159.537664469119,-472.071183643625,-966.927087239955,-2124.90124088088,-311.607534295206,-1173.7677344702,-520.986450509032,-955.815750336388,-901.84960041047,-2003.27282437929,-1458.08097210133,-1327.6347708557
-3379.72886414938,-4550.42673856353,-2205.32444293641,-4052.09738236226,-6349.46843421077,-1618.51472966721,-2834.45412580488,-5065.4814266938,-2147.47574284433,-3495.98514695368,-4388.26649433843,-1981.51088852505,-2436.18661996371,-3307.53578232304,-1990.37946136806,-2024.44559718438,-1893.12173428348,-1875.84862940083,-2097.15967498171,-1728.84756386235,-1882.82866177751,-1646.93564824768,-1764.55379140433,-1889.69027276713,-1675.28541693802,-1813.82827295506,-1389.6393799442,-1681.87367343565,-1890.64407720764,-1565.15110751704,-1808.63356923874,-1954.93452472399,-2167.22686389691,-1314.05132019292,-1707.96983169274,-1977.21541379374,-2096.10188191807,-2239.62235277936,-1497.13593982873,-1807.86315008322,-2081.1938974717,-2218.37071254184,-2253.66336279007,-2344.60472052556,-2263.95151999925,-611.116576246563,-3891.11510678105,-1357.55832012538,-2199.60375549666,-3858.13868318907,-221.303813203184,-2392.85737008534,498.696553443936,-750.7138434513,-1834.09081491914,-4020.25204998066,-375.102460057729,-2166.72714070061,-809.701675102384,-1576.14949797084,-1474.70099047907,-3896.45108688829,-2508.56881265707,-2401.95515149793
-3657.27661340628,-4561.52183097695,-2428.91907150412,-4225.62943963227,-5929.29833689245,-1710.49211715447,-2944.07848786619,-4620.169249429,-2050.98465194351,-3155.33768769323,-3195.88355694777,-1662.25517445921,-2020.55975822309,-2482.44251949473,-1763.53347103691,-1781.29014869975,-1854.68494645406,-1759.60621080104,-1909.11905363593,-1711.75788176578,-1788.70342401439,-1668.45855692363,-1732.62561369616,-1769.14521258168,-1678.81930774632,-1751.73631221925,-1419.56509490042,-1643.84022434134,-1780.97581359632,-1546.21195535628,-1729.53521279386,-1812.63196229346,-1978.63078067869,-1304.19901854418,-1640.1022935022,-1852.96669073273,-1930.15838046365,-2029.50790570677,-1446.86854715365,-1693.79163899435,-1916.24543506951,-2021.83619862709,-2062.32618567707,-2140.92364846074,-2049.39380400923,-203.571275110847,-3379.80964745153,-967.258888587044,-2009.6795176402,-3760.67938503846,226.905228435359,-2468.01821538595,944.396564967412,-291.124523694581,-1721.66666318556,-3875.63370990866,237.900230838439,-1991.91254748971,-243.366257267419,-811.129253885234,-852.235011612933,-4121.67153663899,-1628.93161753778,-2205.00443444558
-2288.71631540367,-2402.97628415601,-1606.07875786112,-2408.65247350113,-2560.89123638555,-1086.68002033877,-1612.70423001498,-1772.34059426689,-911.870237333113,-1105.24829417541,209.791484681559,-457.254397301005,-356.717506679459,1.38033745409936,-625.917322478208,-542.096311423138,-979.492557377799,-755.197230379816,-698.915929118921,-895.605061953709,-785.509114148737,-944.308645756477,-862.023518701653,-714.812188388305,-883.226715772003,-789.353785060308,-784.64432133008,-770.650153721475,-710.240430769916,-749.048460517439,-726.6909297102,-653.391500208238,-653.672705971493,-637.536901991712,-698.554787457047,-710.553903740159,-670.052896651866,-633.760533351268,-640.183175864847,-647.528677373959,-663.027223230063,-650.908861104127,-716.817572397827,-726.293196993127,-634.147742137184,328.075455894049,-1323.05514721695,27.4340931714783,-936.800230353317,-2006.17034328505,770.62418825229,-1515.35830252482,1175.73925383548,678.481744034461,-681.090820248797,-1938.47864742779,1192.97546431932,-895.898121539632,877.166293287181,908.91352107151,424.309455994347,-2864.1105915354,633.45443441712,-1314.11159863441
-760.098646907751,-517.393981495475,-631.871208965765,-568.854765865537,89.6473417517102,-430.581609092253,-198.314501034956,447.536161855822,95.1438104650865,578.413719080691,2586.07472961371,400.438579499578,944.826159634713,1808.49808899436,228.915388337437,455.920301472315,-277.694361095667,82.7775233288744,321.598898300301,-180.566602561777,88.5450820231116,-296.502395614934,-77.5461982411182,210.923046116858,-140.99289382977,91.6756666369369,-154.925458610202,42.8999569635028,255.096434300287,12.624902923323,202.01751979576,400.943278528532,546.629430060233,13.4622702721916,177.402781219977,324.592072296547,467.244479960857,627.477430465507,111.313744725755,295.778103531367,466.176171532898,587.255227256059,445.268422858346,514.467388454282,638.101957583328,150.301208839718,-257.15431719569,410.095801517743,-237.086405963975,-636.005275243779,711.992550474011,-527.556911873562,913.934496498418,1176.38749793003,257.56690869779,-239.164769264488,1539.62488363373,-66.2540563771682,1443.19834873957,1848.34603978445,865.076507175425,-1768.68290455914,1924.83738160912,-1267.44809063238
290.482823595255,362.591963768559,188.01592448345,488.220438477667,1371.65492836773,194.779449837432,720.963755722289,1432.65017821376,732.371914434908,1431.77286616065,3515.55963554563,883.603273500532,1567.18548794317,2649.65927575137,676.236344371319,997.785822047982,118.821536916937,562.174383358026,920.811866993324,261.355046457794,610.936889440779,122.786186279046,412.446207315888,759.537196960638,341.67356394044,629.914879529476,301.758472952504,552.714989133811,815.965434360585,514.086239422591,762.31669490578,1016.76606043195,1242.89769079303,460.535863552031,710.709063584091,926.011217517139,1116.05904624433,1339.97796344568,582.846704513089,838.022951566794,1110.39512593023,1284.2832149868,1061.61493043726,1189.0326317676,1349.37645350534,-607.595266713927,-236.612792814341,28.8668131999899,-13.1696076332694,-97.1134454981147,49.6678627839708,226.290902692972,254.085944846293,820.769986938316,708.238623062995,731.063348780444,1022.09075103409,278.466754979954,1204.38421105952,1583.10329867774,317.214225387381,-1237.05898616949,1771.2618067765,-2092.49057916028
1154.0089154976,1150.77372021752,1017.21399316873,1253.87598180058,2734.10803566577,1017.82263677664,1411.97776388919,2335.76592271299,1424.33421911737,2147.97616879579,4226.49174461639,1493.02057193728,2101.7744685061,3352.94998313557,1188.84937546942,1531.2784347223,615.447956260414,1058.91261353791,1498.12006072667,749.111312506578,1123.69532736381,598.74743196399,903.784779722012,1266.96715803389,830.262927480799,1124.13116114666,769.859582516618,1040.02024290891,1298.23861955478,989.239101815116,1248.18826858986,1515.65547108648,1779.86564007542,885.712512988825,1183.44645589115,1433.88198966651,1630.28976314958,1871.31666658264,1025.30513353686,1306.75957155145,1635.25082352358,1815.51000604767,1583.48460959755,1737.47742695192,1884.18061875988,-1172.48508068252,397.066684522703,-277.476158030317,340.063473112257,506.41242118139,-576.38281262199,822.662321479194,-386.307867680231,106.935262999301,941.597586836471,1410.57110650587,262.628182972209,439.005654509699,840.380146656772,1036.72965198545,-337.289514730213,-981.934927125055,1428.73363501121,-2812.37952898728
1909.83859779021,2174.86732289007,1653.1577609206,2016.24808262328,4224.75414639257,1773.97331908363,1928.62788012671,3329.2179617804,2063.79077673968,2788.02213639157,4732.28915104618,2046.79191213341,2557.35940034014,3828.46136654903,1719.36416422791,1997.26839726757,1169.26586600539,1537.56149602952,1982.22465006685,1240.481021107,1583.65475245521,1058.80085718842,1349.51348719515,1694.12994980087,1264.28976141242,1548.01802991425,1159.82627943195,1483.326702866,1702.47454338343,1382.03464531794,1649.80342528491,1906.30222601336,2174.7983216001,1222.10796289124,1583.05869303958,1856.24750926342,2035.62847158162,2272.81614606697,1408.43706100553,1716.77105766138,2070.86662911798,2234.09763149775,2070.38400037364,2218.51014928261,2296.66833965482,-1139.64472228563,2188.207193687,-58.806832863823,986.063432085691,1795.34135819372,-843.019129081889,1151.98943384884,-806.477581631277,-509.958722740785,1053.53780607626,1824.47229449098,-305.594246717051,413.876620800195,687.906723729018,660.149176200742,-713.89269012373,-647.160730834466,1433.67895152062,-2731.07476180064
2539.22322295378,3175.84055566161,1900.61436441793,2812.44672915834,5228.88255483001,2113.15579350178,2244.05778972895,4072.16103171807,2315.54830902513,3146.99440304116,4692.10327281493,2277.88040375119,2674.71697418618,3802.03235283612,2076.98481903013,2168.14401500301,1622.17301939989,1831.95102065294,2170.33599590984,1588.54028632087,1824.88929497007,1349.22313426822,1604.09477514235,1869.34054248336,1492.53414821992,1744.034771227,1343.51556747073,1708.53696696448,1864.52166873401,1544.50093654863,1809.29791068508,2033.31507977149,2280.63592571372,1344.94792383604,1751.13200764567,2020.98919830345,2168.90935823804,2386.47808633562,1574.51258579913,1895.97173827171,2241.1544363856,2380.5563738997,2320.55853718693,2436.97566566507,2419.8259551511,-617.12615299042,4202.77385632564,332.295266146121,1658.39184718734,3558.24725486038,-1003.10675291894,1267.99779339663,-1215.26519245612,-1117.72367251236,828.679755392932,2090.06299142788,-926.875353781119,241.410949545335,393.943726278395,44.7685587284109,-1083.36620911471,565.719628555358,1334.03587480759,-1609.93008603221
3095.65807219037,4005.56005547222,1964.44728202616,3569.26674592467,5795.47723805943,2071.08610129827,2474.75130486207,4550.25884888585,2216.160150499,3285.41702928786,4348.3221542535,2299.3154012774,2536.09918484567,3479.11757769544,2265.85201008427,2115.09668387896,1971.82006143333,1957.21162171478,2118.79094814156,1796.79052341005,1869.67138930506,1513.68712392818,1696.24458588012,1813.40367979407,1554.88903591157,1721.5386795411,1391.20362315145,1698.09969108825,1778.87009966226,1515.79392280294,1731.62199510572,1885.8325612127,2087.28679200758,1311.18243913346,1692.42824562456,1913.05378337507,2008.90305753282,2170.44216179364,1533.59181523791,1819.22367833484,2112.39607688001,2211.55713345159,2273.4886091896,2332.52971478192,2205.21112612589,175.044331659199,5283.30131121243,501.959760983115,2048.01743204282,4893.5864084756,-1174.96840726469,1400.73056469085,-1678.53122917865,-1733.91711998804,220.217714596092,2563.7501630383,-1759.1128774472,210.475970037883,-337.126095411916,-1037.13622881618,-1493.46884303496,2898.15532671507,759.169462334847,464.201801566569
3434.59203299654,4524.69179885499,2045.98550233987,3969.93791930612,6064.31583417395,1857.27000058227,2589.41205400349,4723.35080268166,1994.21286252586,3252.73070152229,3883.65857686355,2201.56272422665,2327.24694130846,3035.43043026553,2259.71621190422,1970.91890868111,2116.84758678255,1922.35299986275,1925.25327702167,1829.58837203401,1754.94040035973,1567.32108381055,1649.76916978085,1589.12415670864,1489.63923824962,1532.62019053144,1355.24068215319,1510.68291050483,1507.90686983914,1364.64466140836,1480.46613027356,1527.23804873698,1652.7597533765,1191.25781482973,1469.68750505236,1594.71233642989,1616.27386974211,1687.88166603806,1351.18421590668,1541.05599897802,1738.23369711216,1770.6265930343,1953.42233489943,1941.58841817455,1711.92990127112,1032.68218495075,5220.83329963292,594.626463181329,2156.98432428419,5226.12574379445,-1148.19152930109,1755.91520937258,-2001.24626446478,-1931.65324330208,-267.621333916059,3314.21114667346,-2412.05849836972,613.890417986026,-1316.69245393458,-2005.96626519947,-1386.62511507725,5283.76701148217,-146.006998570414,3058.79227104533
3377.53738858708,4576.50954895907,2084.59466916588,3867.46815949938,5869.78448379939,1605.96408100486,2474.00216519701,4510.11139938328,1764.8080759018,3052.0959703745,3239.42380591177,1968.75689408289,2082.12529781503,2494.07815768073,2056.47796018787,1780.74784918981,1999.52753879838,1752.24142339994,1660.57141458014,1681.11852025116,1532.2167480864,1485.77044310108,1484.70772892602,1288.93656051749,1308.87723435422,1255.43997573778,1211.66425936385,1226.69928264638,1156.05560979126,1124.73710171546,1138.88922229125,1090.28554193377,1134.9566252857,993.382798772001,1149.91670508584,1179.49151345098,1134.30143793074,1124.48441389244,1073.48840138552,1154.30999618187,1251.08054795002,1217.95136426741,1466.25786082956,1403.11338539597,1132.49627083464,1656.74045546843,4526.92244410784,837.545730862536,2172.19639649986,4719.62627835244,-922.416657888653,2260.53551472932,-2149.22880772789,-1538.74445823585,-105.071751465314,3845.15729892366,-2509.64451009364,1384.88487800767,-2083.99078437832,-2064.95056340741,-391.0606710456,6534.93855192652,-837.804762062397,5253.42345604367
3015.52303795195,4211.15855977335,1956.98679672263,3513.12484517768,5163.39959873149,1325.61073345172,2176.97167274498,4024.93892281012,1498.02771776068,2743.78472317294,2469.3581393495,1652.37842658152,1755.15498444962,1920.2523575986,1766.25087050811,1553.25258854984,1784.45382229885,1540.86022303224,1390.58630812383,1477.99625935635,1298.20176972123,1344.22565418958,1280.56971787561,1029.61485321088,1097.35403288411,995.604257542544,1001.0649663443,936.952148573484,841.105566717662,859.866035963022,812.431901894977,715.606332666786,695.719798932737,753.304337037986,823.444684321533,796.077885601462,714.726449320124,650.580014152151,770.368720269476,777.720817125708,802.770716932623,734.502572038994,979.599486491789,895.034841184231,651.441093253146,1792.11017278886,3393.68903071202,1051.29292912244,1942.38765114209,3540.04392184089,-641.301059212462,2365.20137091677,-2040.67242898344,-891.406879426667,447.032692255912,3463.03650395669,-2029.6426645507,1922.47891281295,-2188.25249484516,-1188.1880948659,942.817803168414,6466.31886565611,-828.31533247165,6102.4590080775
2516.97272556571,3584.14979368273,1631.55825689282,3044.45542004859,4148.49962609816,947.277527526199,1742.83082760667,3353.17552055458,1115.51084517635,2279.18826192971,1641.33381303513,1275.74224991874,1289.02399946661,1293.78149069789,1428.31102918375,1234.33915837459,1575.578256176,1292.83924480361,1076.59251127434,1284.46428468269,1054.75404819435,1215.80627968991,1068.11250273475,800.694399528465,925.195946813675,775.550678342186,820.239956773745,691.950401671021,584.860032237945,651.55277784269,557.894723905377,422.408600790414,329.944676185682,560.761981768761,567.110028717819,492.441850703099,378.878554798556,260.259944487527,533.269014843994,494.948667320165,441.475790791214,346.205415214968,585.394462853266,484.26527851445,264.639151511005,1472.17508997082,1827.55694205895,970.741006795272,1221.13531018143,1875.56534749535,-270.891875769129,1652.71982781237,-1458.93205023397,-264.565881547977,674.738802737184,2211.54231398745,-1205.50320746737,1701.9478535438,-1603.05080098988,-224.890517832584,1699.43279656272,5596.84617965597,-319.792898938118,5589.58442690147
1928.57821055678,2789.30534547282,1201.62221387618,2350.94111328765,3035.38991212085,525.611213180626,1157.79072566557,2463.93970065677,648.728663704083,1574.39355748157,732.496290856638,838.591955361352,704.507650500151,543.826407798784,1026.88802245005,804.881277422111,1301.62272980556,963.975108371229,674.561041542587,1049.2727416456,759.530546065259,1075.9744527998,833.755209430478,537.649109901056,783.570656976971,569.671524118145,711.693736042608,514.95054404938,365.945536673263,542.462176181326,387.1911873511,188.579048157633,9.62313773006913,479.205146025032,419.683096192503,276.6913201149,111.197219977269,-69.8117973561191,417.210325918235,341.983816493675,175.725302584632,28.4977936061193,302.579909580994,177.897251152566,-62.0534549372266,970.23135469938,374.826197200936,644.318003018492,310.670452553468,464.239546864974,127.204795774403,563.94952254364,-633.599700021739,206.738367601773,406.586283984229,1079.53111713267,-473.857339990127,1090.64270044038,-874.839960581645,85.0145850874658,1660.18406265795,4548.40846428309,-8.99524895618538,4598.24523381106
1328.16591396798,1950.31678942966,816.038751702891,1553.02395109451,1944.99952650027,233.170535386508,600.949765429404,1470.27630316466,256.016222948951,792.045860473066,-176.361909711528,442.676105066306,165.756849293868,-212.280696433211,644.457156809446,385.985610660356,947.919301468239,612.412856122309,275.093013727661,761.374727937791,456.167240731903,874.824679411614,594.006630742707,268.738731150057,622.276593795061,372.844029154843,606.543071993568,381.129400213122,180.742464247576,460.743096930726,260.296285781322,12.3196627265044,-220.589449118833,427.934644295968,322.27071261049,124.095218029683,-79.2949189846246,-297.66680336354,347.024417177782,255.588057825352,-2.70715016038217,-200.13734591276,102.828607617611,-35.5702430875302,-295.148936660491,578.592804489668,-329.665201199125,331.413538195051,-219.858078957063,-37.3195628895652,357.446849023543,-68.1391349033899,-35.3536618082,390.355024628209,111.826302345349,792.609225164136,-102.595968823739,887.584462949614,-440.614062274597,-90.0609016076965,1391.14980906855,3665.08531657167,-130.258814018142,3801.90579197592
877.205317306045,1291.57773171244,527.17789180106,999.645948447655,996.553566685869,71.6693475896005,341.462251449839,634.307457619596,51.4365516877941,208.444195566285,-903.987247807,171.74557911399,-172.909662734358,-772.839106360706,360.722687938395,89.7084777902502,610.676514108501,323.457331648287,-18.5902426362952,472.470518925489,202.998584976098,615.536233508529,362.221917712927,46.6365229281533,406.514466956423,174.366302413835,413.671507255279,216.735642087002,9.4740787686896,290.682870524362,101.675792922856,-139.162690705925,-366.091311401541,271.700278248515,164.965046043559,-34.1876701810568,-223.767429064521,-433.361474535616,194.311705603495,117.7951615565,-157.416906236006,-351.806903983728,-78.1873796155256,-207.982227871996,-440.221743986773,431.316768589933,-362.153372519522,217.130149183953,-219.099176055161,110.870724662237,454.755661199927,-7.89551376256072,290.574650287843,394.338107043192,136.373539489355,910.393666159775,82.8569370660053,1105.02322687101,-201.734154200164,-151.552617184045,1306.17329520523,2756.98999846851,-281.054465675061,3105.47785300522
642.550833051682,937.967065782439,348.016050450254,771.793119832805,291.854725843119,-60.1566755919518,379.175968703967,85.9788036301704,26.0128440975856,-114.299290218028,-1372.95402817843,-19.8720989693767,-320.390039540857,-1102.35999887702,135.170353038166,-101.716378732448,344.746684595715,107.397280216244,-204.641989907542,222.588745369316,6.65688837265003,353.559831276513,141.983228311209,-115.789760287151,172.742110214728,-14.5079629524902,161.660385704081,20.8626429639093,-139.705566610389,58.0586428446989,-78.2790827706894,-268.107286301115,-448.277999337024,39.8251899772171,-38.0202450605261,-193.706356593998,-329.485510358405,-491.697039452558,-21.3102915130081,-60.9137412400542,-292.920233899892,-434.536336844499,-235.035954244983,-331.68709317161,-500.968475881958,447.710544784978,-238.198512954186,288.49424043022,21.7244903710276,229.967023909409,593.61192005982,261.796487300912,506.102304343385,488.678055184976,293.281992019035,640.232935373514,311.101934604519,1045.90263993157,11.0913732467488,62.358204066077,1204.56881133563,1543.32191005679,-143.104868972764,2239.74570579923
544.025858328836,739.490597869507,358.309319207037,631.279615332595,-200.427368087198,-86.8977181672237,474.866305329243,-271.19388891907,88.750549495902,-304.306033169653,-1643.54516139305,-196.751233259238,-392.285423668734,-1304.1069852941,-102.801552886556,-254.294640245711,108.373221881597,-73.4644675721781,-329.623625862553,9.133501642759,-147.107494819303,125.396227160948,-50.9905501298455,-223.513294929641,-26.3935657396607,-160.123270901536,-62.2005138755172,-143.24122897597,-231.605613761542,-136.057417625451,-215.142778952809,-337.287146820968,-448.651594367063,-153.266611263768,-201.645540043997,-297.875584304881,-365.437044031677,-455.192886061403,-201.691208392416,-197.636046214628,-357.878518073659,-436.088462010789,-326.704531742513,-366.048132495231,-462.827834899035,499.87832790395,-183.335389866185,463.212979390177,235.75141287505,149.992634628764,831.250085043265,340.43430525122,692.003263816371,791.129620705882,373.942775106451,77.0966674004044,644.095671118327,614.775916028442,236.502077949338,408.972424128455,1004.07115003662,430.581902858231,237.274035159338,1428.0297498076
482.993391942341,506.814365183993,516.946290105303,427.672159625291,-564.180992390987,51.9387540925442,457.22217300655,-552.252850518919,104.879604178479,-462.135203675003,-1778.51659532548,-374.247026182543,-483.330643052821,-1446.72646338984,-358.511919178628,-400.899508984796,-144.737344035063,-253.85681282781,-428.702222384629,-194.941082781497,-280.975011621526,-78.084521809592,-212.72932205281,-299.654194272952,-196.17092639548,-271.731904814263,-243.255039353949,-274.631910926394,-291.28389249259,-287.336628069022,-320.70437494192,-370.616019103167,-399.366018806682,-301.932498653728,-334.385875988115,-369.806613256149,-366.829854814563,-378.348827820252,-347.352151178175,-311.702140249134,-387.93044759713,-406.463287946294,-395.575376513922,-372.102623314764,-390.112007094462,587.552498411266,-49.0831866183204,725.630467093698,451.953541970648,171.407589677995,1165.26427676817,425.806957537171,1018.94474577734,1281.81959541747,598.616234461165,-18.0933387196289,1151.75290270884,512.242763685808,610.408443822143,934.096648570533,1105.05744711689,166.231758690871,738.402220526629,1141.60423997968
401.841333906825,250.839171002009,585.148208027827,214.996453666592,-794.135473997387,172.567337051522,328.922625794977,-739.207123573875,-2.71877851000326,-584.552187842262,-1787.88671224288,-540.672307213356,-594.898106008935,-1497.66868629377,-568.372409837817,-518.870312695196,-367.239070901091,-411.638933710419,-491.048147692758,-368.783523458724,-386.967920363355,-234.338405843167,-328.822832301643,-347.09682270512,-319.746909055732,-350.770296298026,-368.585384691486,-373.062229730487,-338.365549790909,-394.806238697302,-399.110523037691,-389.44948234821,-345.136586498278,-407.641863491246,-435.694617424581,-421.077598172784,-364.440036245218,-318.991025878851,-454.87757925689,-411.710422397337,-417.667477391538,-382.70597932177,-458.678645347206,-394.879184327541,-333.711361701489,724.401566740818,239.469869605978,1015.1795775605,754.543850911317,433.310384967193,1518.32311901032,774.145407602838,1524.98664048801,1812.02836264705,1089.33389872361,543.8515919666,1753.88596153061,941.310281950273,1147.97286213145,1598.78780622713,1566.08066148056,669.156795349232,1221.00006165707,1327.88978445694
213.77181883773,-36.7751119920979,410.580601801445,-12.2044677714197,-947.263082340573,103.068341881454,139.427686326232,-842.290757292359,-188.079509426636,-654.057335756982,-1751.28028166296,-683.239718314863,-683.176954231656,-1438.87234711745,-683.14354904358,-580.062353950669,-484.412488962481,-497.705951807366,-498.930297290533,-455.380832235441,-431.1427556554,-298.397421532923,-374.887692088412,-348.574853682999,-346.542537498092,-363.637470770365,-387.045496893789,-386.77559350904,-335.15302959148,-397.517724742482,-393.787441798356,-360.444533830523,-280.161451483973,-404.287329416307,-431.496015218132,-395.920270268152,-324.060877311278,-258.868669216337,-450.18263126287,-419.851649909737,-399.416115410498,-335.253961629757,-454.279359414391,-377.683549577415,-266.218635881155,788.828184925297,446.74450614345,1149.11763045086,970.508230669614,665.121680747158,1673.78022672318,1105.45768201775,1854.95680671849,2068.6514145786,1426.51007368325,1072.74246205604,2085.25116312326,1234.08444752938,1507.98807655143,1982.66036381783,1813.45131407007,1033.89170676659,1429.32343050889,1365.23428468121
-182.916274805623,-521.438435341056,56.5558953655164,-394.475019391185,-1241.30343553745,-116.980475055586,-128.564347349997,-1038.51329731351,-394.219428933898,-745.034002295951,-1850.6873381372,-826.28791353102,-769.827251437108,-1389.39488671639,-760.038455683507,-637.905618943446,-535.30431902629,-549.591452748957,-517.449281187489,-490.690588907579,-459.205980865951,-320.486218077531,-402.444095617575,-365.655215900976,-336.744203539931,-364.541928569516,-351.779276725352,-367.210860559342,-332.177239447118,-349.946210548395,-359.776292780987,-343.047529316473,-265.91073666128,-340.006059653573,-376.874137365243,-356.532887671921,-304.488285289488,-252.23961425638,-382.766789231799,-382.66005774817,-383.164905217843,-325.21331744556,-440.166161806236,-366.941115110444,-252.423045318568,648.893777701945,291.595663029147,1001.58745274395,857.820676840648,525.674351436671,1498.44514413601,1021.35356203555,1734.19391513458,1870.35939461533,1256.34914125001,968.593369326703,1931.34663661207,990.234234804931,1423.3715211076,1781.82585450649,1520.90500315256,739.90880725971,1196.98036094899,906.660260709118
-736.99418680886,-1185.3893032677,-364.553590086601,-944.573449447162,-1718.69037530908,-385.77259741027,-497.805653610691,-1410.36437566283,-611.560339901801,-935.625357876878,-2112.66531038955,-984.2537933278,-893.722395813189,-1451.22569486118,-866.809867469992,-744.219754790148,-597.82637232875,-633.230064236302,-605.166172606171,-556.741413825115,-543.520593955238,-386.702472225786,-483.403400684259,-472.263891692265,-398.075913470255,-446.450606917946,-384.143770918157,-436.21759067664,-432.362348208169,-388.893528801189,-426.432369459279,-445.839139471456,-390.705339869631,-355.545568262803,-426.282860229649,-436.720396212363,-416.058809749549,-393.499562700154,-404.135663935321,-450.294876221708,-491.579450833507,-459.638286983894,-548.589578077163,-492.21749312526,-398.709968415919,328.829497737737,-195.458469282198,626.606271286116,460.556752185474,40.173752061066,1108.62297617801,620.130270665258,1354.80413464445,1397.52384831523,814.808816698525,402.088784783204,1506.11913823841,573.82038074655,1059.5173333619,1217.68596685373,986.17737240584,68.7046358171194,676.335751469364,237.005611308013
-1214.84402836373,-1701.45333797163,-763.806937765996,-1419.75102468256,-2102.5179723097,-648.88495593084,-874.942249026347,-1738.42079435247,-802.896557330531,-1148.17047647867,-2315.93455624955,-1114.58748908751,-1007.34854850234,-1539.68516584722,-966.10297022451,-843.081579513592,-644.859377284483,-711.739045652745,-694.311054109737,-622.024985834371,-635.185266697829,-465.272719161088,-573.885108279055,-595.39032858698,-486.786903109257,-554.458657235925,-465.840672913064,-555.932222237413,-571.970597905877,-486.50103517769,-547.00175060912,-595.263147367571,-562.130118049783,-434.557044516818,-546.064426966645,-574.885216810287,-579.396259474448,-584.368305011495,-496.647182401204,-584.863751076871,-657.51620459614,-645.257117648037,-709.838962533783,-679.370825175969,-597.969156098976,-45.5594378513189,-732.488391116041,156.007863402247,7.58656713645094,-479.75218712885,696.591593760024,235.662731107843,1003.804325771,935.587365553833,459.538793784738,-150.700910744614,1102.22904947303,302.546696782509,709.303210935374,671.316487425158,517.113061858771,-617.6156852198,168.736136808804,-340.138775944602
-1455.00297828169,-1888.76086710132,-1050.43288715735,-1612.12162259164,-2272.24693434087,-874.951657607367,-1122.03981341385,-1858.04534741932,-942.598416107301,-1280.25285855027,-2371.75314322163,-1217.13932249497,-1086.78482826106,-1596.08610493021,-1036.31391415179,-913.257403474105,-654.214960016147,-756.748392149362,-745.475910570917,-640.35288156144,-678.747859044957,-500.008597459628,-615.562063262451,-646.632234275117,-516.973102365189,-595.650530251534,-502.242521775227,-609.283918425308,-628.1098411904,-526.350856927573,-591.189371635411,-651.578736581609,-637.263072649593,-462.061436174726,-591.508354424658,-626.122851194492,-646.839789357692,-668.390777269355,-530.375925898746,-637.033844755571,-726.972484978804,-718.342412218798,-770.352014998047,-759.713320897775,-680.197689000013,-383.497517800457,-1126.81864630613,-304.180738422288,-384.150261102541,-867.995334725486,349.981172031024,-71.3225809273536,723.670443161543,573.106811254574,191.443643004696,-551.321395562108,783.391733966798,28.3058126538732,453.676259440017,269.673424800366,109.125653556371,-1258.85051983953,-199.493700174704,-884.26334563535
-1543.80165066403,-1962.55209266904,-1194.84051841806,-1624.88170591492,-2481.59846114018,-1044.07408822242,-1220.65040042167,-1955.82245580341,-1058.76820412742,-1407.33978716432,-2479.47651382468,-1340.90856291477,-1213.11586291316,-1735.42388012203,-1136.63820355767,-1040.29920668179,-706.214089875292,-843.155981381923,-847.060258434902,-680.864534195987,-742.400745318412,-541.911466099889,-663.641028250221,-691.640794032692,-541.119715580572,-625.924126291345,-516.259255314293,-623.56121819808,-649.561518738064,-537.111663420886,-599.063250840104,-667.156262496067,-676.643158736522,-459.36857767644,-591.768522842876,-638.888822062312,-670.542435263297,-706.897781527074,-526.599501478172,-641.901219125906,-746.420896697287,-738.44554925038,-787.902633633178,-789.477049464897,-713.414575129434,-654.865591098551,-1402.10523751628,-664.851990320772,-697.88693334657,-1206.03522506107,68.2011807393935,-401.142591159032,466.108784843881,257.990001223459,-108.783911949105,-929.176283072362,488.56568710036,-365.284781183006,223.125879290484,-47.5955811592213,-289.330984231671,-1805.57729200218,-504.7999098513,-1460.11105481406
-1624.85556960784,-2121.75212987865,-1240.2283315324,-1661.98817692495,-2827.77826469203,-1130.59779502208,-1230.20694852047,-2183.02696573907,-1116.01186607818,-1604.13649258214,-2678.15321919504,-1437.34234321343,-1389.61642047786,-1946.31646387507,-1248.59118764824,-1209.7861349199,-819.724833071608,-975.035274432682,-997.268760222464,-772.67883987317,-846.460548189754,-620.366111062519,-746.593655091436,-777.321781078748,-604.49137951397,-695.305562134843,-558.383060836487,-662.936772590642,-707.89124834478,-582.632777090342,-650.560186424157,-727.751664621993,-765.562982315848,-495.706122999234,-638.540713260375,-703.416439200673,-740.191335784277,-795.046129525611,-568.547467592432,-698.582312159115,-816.265443312971,-814.421586789768,-868.112025160387,-881.559133274819,-804.173074332298,-827.022019875171,-1609.64708661596,-846.127609934565,-884.832274555917,-1554.22790452302,-150.748972548137,-721.358784278724,250.777185929554,-23.9989719944909,-406.53705667815,-1325.65356191735,201.099640971586,-738.917790147001,-10.1912547285805,-326.516897244271,-653.592331787312,-2146.75519391782,-782.631593590882,-1898.74655661187
-1656.54666417995,-2213.44389563995,-1197.07813067363,-1688.45650859305,-2978.56387829093,-1090.49448124191,-1159.68965828926,-2316.07305399989,-1032.23524882613,-1726.5700183954,-2678.7931312287,-1398.04014365118,-1475.09660308149,-1984.06198031867,-1260.54823706856,-1264.85502536504,-883.237201205833,-1024.07064113988,-1037.86356275857,-812.669650637169,-872.142422087173,-652.476683351696,-769.461292008483,-795.140744904697,-619.105625985722,-706.012521375744,-568.26761108051,-664.245928303237,-711.35346886917,-591.038833990569,-663.163978513221,-734.425199594758,-786.923268230113,-511.502206109897,-659.326729899896,-722.886729774948,-755.338422678183,-816.538281221824,-591.908429985345,-727.197846780962,-840.493598612544,-837.089246334193,-904.861275379914,-918.772229463149,-829.595075812653,-850.741434046638,-1665.01353298888,-820.688680880761,-897.10266555423,-1784.62335487229,-258.598675402739,-909.330491915447,125.43206697791,-203.165820388269,-590.454367415697,-1616.1121940682,-12.4084558893811,-965.553336523821,-164.351992629889,-512.40225537594,-924.906010516844,-2335.83857120092,-913.213122954848,-2077.80254143208
-1526.97174684179,-2067.10732900752,-1039.58167823178,-1568.12292316816,-2762.03910625628,-914.268428402651,-1019.79673202399,-2179.37143466926,-858.745761918556,-1665.96901860781,-2416.06696276094,-1243.03199644556,-1428.57241789753,-1802.30581545507,-1161.74823223044,-1163.61074584909,-843.873329554729,-944.704316021761,-925.141428659965,-748.532811184693,-772.236106390024,-595.805841781278,-682.10570117395,-684.847304067839,-536.020771458194,-602.100458404873,-497.946981507853,-572.224798228097,-591.333335936528,-503.119596235015,-561.068994071978,-607.129909046052,-648.635096225176,-442.45046459735,-568.921732966504,-607.63171990091,-628.514605352083,-672.345593226626,-515.641816627067,-636.740213807794,-719.397788279832,-700.140804022723,-790.813894733078,-786.758600856632,-685.115349570469,-737.971921839984,-1531.33406076325,-646.27576380237,-781.885094697449,-1776.30497906544,-205.817038277153,-920.590037954658,117.538128648074,-197.952516364155,-592.750899666142,-1699.1338841078,-60.4640622542937,-1037.72701397353,-158.261730863334,-493.251000503867,-1009.32090137019,-2531.57734736644,-817.738014926841,-2127.41384767141
-1318.39930921558,-1875.63647130391,-829.764369343885,-1402.77089212496,-2568.7819051863,-683.714698762367,-912.645896927505,-2046.76402683625,-755.139484315747,-1609.079866215,-2294.33532341477,-1112.85208539593,-1408.83891087555,-1716.80308765514,-1083.93579512982,-1067.98967147773,-803.33427374271,-867.707809972288,-824.818541579523,-683.045809538929,-677.326618203529,-542.910867945913,-590.088061957804,-573.353839737597,-461.639927367272,-502.389267117304,-429.818332176711,-480.320661885922,-472.240074442675,-416.991747508314,-454.743083914133,-478.717222846536,-498.602687509281,-369.345235242852,-467.410998937112,-484.36600686079,-491.146916358505,-512.728676087644,-426.613789059742,-535.09396683524,-582.118667364701,-548.220917274423,-661.646866005636,-639.938799957896,-526.816237050428,-591.46764551349,-1417.8197316172,-452.606821720848,-665.722299441183,-1654.80244767633,-56.0586777429933,-824.915928930623,196.257386906759,-44.2431983840213,-445.868648324499,-1651.15462689357,38.9534756032981,-984.974110280008,-60.92728703183,-277.734697858747,-877.013352437642,-2700.84962344589,-636.36991968287,-2170.54294765339
-1180.31192955864,-1835.62064229909,-675.634267938344,-1345.64069993356,-2655.87816059911,-499.367131950373,-887.240422084791,-2119.88028148066,-746.077923820904,-1678.04756763721,-2491.00354114638,-1042.87824222932,-1473.64822828581,-1849.23828850155,-1078.18976096801,-1069.08212574036,-824.858122784677,-872.458515215804,-823.949887799585,-687.163519950117,-670.240800741698,-556.002423714822,-571.61750947804,-550.473188236112,-468.05356363793,-490.080795828579,-429.381946627671,-464.963198315863,-446.954711219594,-408.838899728329,-435.455529000338,-447.532159335603,-451.882701060267,-366.853688339766,-447.929011997275,-459.457125034148,-449.916447035234,-463.296662615714,-413.700057065455,-516.731586565422,-544.535560532564,-504.915655365655,-631.651016086191,-604.003726092123,-477.619429278361,-481.31815056552,-1435.12434023619,-330.193041211821,-586.982385956765,-1555.20985012615,59.3621260859917,-677.133110146065,274.985990569792,110.928646251215,-231.840624966358,-1529.18371912426,163.94868174143,-795.406905472872,11.2228914673645,-5.38703550662663,-578.850396695791,-2574.54855181449,-500.009872312498,-2031.74079764503
-956.484856058291,-1605.18362562629,-506.378636391523,-1149.68308572342,-2425.30844760366,-320.349163084505,-743.290298832929,-1931.01096508404,-622.060293337232,-1546.9097963859,-2452.97628234081,-837.488740949361,-1365.51124532433,-1778.13435861743,-944.888301190357,-972.073515029783,-741.212992886361,-784.836037067488,-729.403287202876,-609.313053558401,-582.634626279885,-493.063514536839,-480.255189757012,-448.700415947323,-399.955114453147,-402.774210757969,-372.277627658397,-378.453461142302,-339.61694771026,-332.396671728333,-337.021009711623,-327.262265408257,-313.430348387224,-311.24081305021,-351.825180883542,-348.083727314188,-320.647181988302,-326.066784050738,-339.159498197567,-411.191699520616,-416.468304078431,-368.829274795861,-489.002712989329,-454.216299353519,-332.721008672934,-345.987871376128,-1228.70240336915,-189.884882298475,-394.656169180499,-1257.4607369391,134.334184301257,-404.901095660639,313.286923466748,228.555766821368,62.5034813501693,-1114.14451819488,299.363567100374,-396.730932020646,139.068056320284,315.05674016803,-98.9146793073355,-1931.53406538981,-215.269511832594,-1437.51624515019
-349.199624154057,-729.822703339348,-136.873628438001,-431.428826351075,-1209.44039302101,-19.7997781058572,-246.441783495555,-975.5605038973,-212.880469056551,-902.611285059123,-1689.48623140756,-339.247765538563,-870.823728292741,-1165.09468330802,-489.919223941577,-571.19897060456,-366.744027380612,-410.488193369726,-345.041503260957,-272.377305328916,-223.144532235725,-187.933059134634,-140.71971681762,-80.0318418476402,-79.339321768858,-51.3983417839134,-107.05904618436,-41.4753350251152,40.6194426716433,-19.8325177989082,29.8002164025416,77.7806601997548,123.223098841431,-49.9951975986965,2.03336988183555,58.0833057392948,101.949355679738,120.613347235861,-31.7557304703458,-32.4221518466411,16.9430765728676,82.1952456082131,-10.1835937215805,41.2473239917929,125.237858529625,-156.362851070673,-501.296728024472,87.2019250288278,5.25728967173622,-511.972435702258,229.607457653891,46.9333745728964,308.74484470773,401.527733928374,482.82861268438,-231.465621931505,506.139220009134,193.847610178842,443.0199170638,758.915711284439,516.10976270512,-886.749510763842,406.281387025735,-511.868012848959
461.885414735871,417.879409763364,343.673647316774,557.333398473009,374.466931230432,331.360877818668,411.872504822252,227.802116113459,270.088741711199,-123.534592275864,-775.207416851122,180.401174327539,-291.329786537182,-458.262913424595,43.9605102793113,-82.1977996206003,112.415419247437,61.7784333795375,125.656268370711,158.354759811763,229.002704107376,209.690175353907,284.272593697454,364.66904858765,332.458018018257,390.694022768284,233.801068725124,377.258356847522,489.005362594489,366.989614540264,471.997677230064,548.559581789878,621.382178453158,280.071855342973,423.165992434526,541.289644786103,593.130254542735,635.764000878578,348.361551999031,410.946033850449,520.237431095627,604.519030277982,538.053868869591,603.359362315565,645.601185311385,-114.523530596328,196.658941553998,291.155016093828,318.547167136101,283.355707483715,220.107200312076,458.512753359561,180.075736508178,540.494266839686,836.999469941815,677.238503221436,621.078327751199,676.948166005072,689.7335292726,1071.95176906845,888.388216688418,58.0966146946151,932.436544560725,149.421900693502
830.117954311508,828.293081437674,552.744756238565,982.77092596791,849.088341575257,452.313268325131,675.334992698727,513.546942922962,380.28826950282,21.9367460020745,-804.020277828781,204.253162336695,-212.377221960597,-464.920085532278,125.944769890582,4.42120130076501,251.865121194374,178.734625880901,219.723871725799,282.702660533652,340.475509379463,331.739792140033,398.808455839997,451.316484528318,450.363183558618,498.930141561114,329.465607989449,469.718484601161,561.290369479376,455.778702917214,554.228580652901,614.272016387829,676.098570929183,355.148271468685,496.050939416215,615.971522086562,651.990912840342,684.837077948231,426.262094679986,472.19820729069,581.070622117046,661.78460354377,599.061645029703,658.554744567488,688.077522956157,-413.357665038404,-83.5235206275998,32.5655126042802,94.1167537362593,295.225861762192,-61.6380635168093,437.911466251172,-93.027631041946,355.442491403048,755.890670312968,804.721719143282,368.178082457435,645.705258319857,506.022821379751,789.511955047074,608.256286950248,328.009654957124,637.991266497738,84.6885204364836
397.102709827754,102.498680735518,266.130605121729,402.468669143061,-266.693983632734,188.713330824859,229.987956272206,-479.368070737358,-60.6736575310531,-704.934633235437,-1942.64546802511,-391.682042928725,-820.302722959981,-1340.13879517892,-402.537690118752,-475.811606288688,-108.176559678643,-220.463693618563,-228.463693496752,-39.6265802818341,-45.0384466823306,46.1903078290912,61.1181763149854,40.9469578230661,140.587918540935,119.750980036431,73.0997464512569,103.408203566225,124.722965447381,124.809226050816,138.499254853453,130.789332616544,129.129749959485,72.5861296643338,94.4868862607677,131.516313635668,122.346106332507,98.1915968481885,81.4165311751161,20.1932723140344,48.0901825178232,82.8147603675891,18.6260389619941,47.856055640164,88.4573505381506,-812.111675925419,-1306.34367388028,-581.874705863391,-602.084109095838,-647.43397545885,-410.283540174836,-94.4407337936473,-256.299275710532,-142.381089854429,194.528282736299,-51.8171295300618,-132.471334258715,77.5306073700803,-1.67804398507253,-38.2303582202892,-150.894366202504,-203.979067847173,-445.76908377467,-475.553903116473
-545.043522404533,-1106.96664090932,-390.794330246886,-749.488698936585,-1947.9860129367,-359.91314342864,-686.196340841094,-1923.1177048304,-813.0312593689,-1799.68593771012,-3246.29734091623,-1206.85689867235,-1732.20692809646,-2449.52469989458,-1152.46394606838,-1193.4340656136,-683.841180450111,-842.464220335352,-922.083411133929,-561.598126501516,-655.742023409926,-427.432750587351,-484.621806152344,-580.167411210751,-371.325115133172,-479.648686114728,-353.670212019386,-453.852499037776,-519.572015554,-398.376568788259,-490.095777650655,-576.794073748178,-667.804680322016,-375.069383298155,-509.951799536338,-580.601404284987,-640.882579262209,-743.471048871497,-448.585814129966,-636.763316563621,-720.796071566545,-752.814052740783,-796.83401222086,-811.889962584448,-760.345387570499,-805.923318991662,-2338.71840257553,-891.077396369782,-1137.58699319889,-1726.22824098054,-364.782377370377,-746.41423778131,-11.4306382940782,-463.567669785181,-395.941458661758,-1233.69436580746,-354.57714473777,-577.994982430297,-287.681381943032,-704.209041482909,-710.537351996313,-1083.37617677323,-1396.18732438655,-868.883850428918
-1503.85963954529,-2033.50624887588,-1193.59765916819,-1776.55508601417,-3144.54481390443,-1053.65774683316,-1618.71781153977,-2946.10883550315,-1569.77997801124,-2685.93325565847,-3900.37175545039,-1873.33104172768,-2497.1954310763,-3192.37294632627,-1735.04952026042,-1785.23340878128,-1166.59022489205,-1364.21943423622,-1514.3148003615,-1017.8869795911,-1180.54495337639,-850.500491110841,-962.701475966486,-1103.92785999863,-837.016746251739,-992.996072974978,-760.982268679363,-925.899690830213,-1048.55828415189,-864.433708634218,-1019.81270167236,-1154.68430915803,-1316.37422728663,-784.507928693782,-1019.26930100045,-1160.22578585866,-1251.66582244837,-1414.17217098093,-903.810831096255,-1170.57996961472,-1343.40071769935,-1418.36093438993,-1426.4433964235,-1483.2416719629,-1430.45547116981,-272.638060086115,-2552.47862956295,-565.005875458315,-1157.95554587526,-2236.94746336382,178.538079000503,-1139.74772204927,585.035346974465,-242.257144881307,-621.38276443029,-2065.27854857939,-8.86879528534467,-933.102389541556,-66.3007352516503,-685.389392863063,-674.293460458806,-1763.36580617304,-1506.2736115722,-768.131352703915
-2283.68747974734,-2642.79701294284,-1993.41420887572,-2478.85358729318,-3913.65861415423,-1825.69302290322,-2344.85263602668,-3551.73206171233,-2246.30291552683,-3271.59392536128,-4011.14496031829,-2406.16211330911,-3026.68133235263,-3559.80134134658,-2151.44243203196,-2212.46060998529,-1552.84501031651,-1760.62341424727,-1952.91242204568,-1392.90133500459,-1578.90484982007,-1204.13560866566,-1337.89951656121,-1496.9425729174,-1215.49537562036,-1375.78206310755,-1111.92874041524,-1292.16738331284,-1422.48738512106,-1223.85337299177,-1401.45975669797,-1556.10289267205,-1757.0855560167,-1105.79995604861,-1381.34333615104,-1560.31988257064,-1666.47126204101,-1859.43775572697,-1238.45795499705,-1541.91897448149,-1772.82602594971,-1859.51047636533,-1844.83652116241,-1931.50466751226,-1877.65251032914,334.753742083973,-2670.38332167772,-85.1711684392949,-1057.32749338364,-2479.85203991201,797.860552393311,-1311.68810657539,1179.91451283815,294.866489715708,-605.898388570187,-2495.97474390103,611.375686289455,-1016.89888267575,364.552137618038,-252.844356550562,-313.661571616352,-2113.17548112862,-1076.60913151098,-479.653003433727
-2947.20165037572,-3319.64155489943,-2641.77584392948,-3099.80108887941,-4772.67976983462,-2541.8273227812,-2892.9704353364,-4162.36632608246,-2840.92667797301,-3748.68975875927,-4045.28020047901,-2907.04566230294,-3434.6028546268,-3799.53857032398,-2548.97368878506,-2579.87633580858,-1972.52492210642,-2140.52466653653,-2333.58512353657,-1777.9469242736,-1946.04653763236,-1564.43660823742,-1693.69852336546,-1849.75632056489,-1563.19904481868,-1715.75191455181,-1431.73657008575,-1632.48330132936,-1744.35396094717,-1528.64277826264,-1721.13236223034,-1885.32986678443,-2112.97803681847,-1365.04762996858,-1682.55839679406,-1894.24479019607,-2009.89394683426,-2216.92377286969,-1520.11656250478,-1856.79077775509,-2130.32031563253,-2221.75186329801,-2219.67347815274,-2320.47779377406,-2247.2590399656,510.053728952947,-3552.41125623984,-30.9843683878994,-1314.40007803167,-3137.60852903448,1097.44982922596,-1448.52324610706,1532.13408890157,749.607600381709,-618.405142735399,-2765.14312885544,1091.67936702873,-979.288977467879,594.911469834397,72.9250021653787,-18.8255421733532,-2422.53717040037,-825.714707973259,-488.950197784517
-3517.91309856302,-4128.4776322814,-2984.64630484756,-3759.93440617583,-5662.34666100899,-2960.19938813776,-3276.16903268185,-4781.76564669501,-3213.88173219506,-4115.46181033623,-4049.30869459394,-3260.09858650128,-3674.65077494531,-3889.88219938461,-2885.34266875623,-2837.67466327856,-2395.76480170513,-2469.86565168415,-2606.86130173277,-2139.77774934798,-2247.37444869816,-1900.83492255713,-2001.54212090804,-2118.87591659475,-1854.81337647963,-1985.76605072727,-1693.06659790014,-1910.30269219415,-1995.6153874207,-1768.7036639771,-1967.37192844937,-2118.59108856464,-2356.65862334837,-1561.41469043464,-1926.83160635969,-2151.84209071779,-2259.8195241565,-2461.15366699704,-1747.21305511888,-2108.12860296891,-2400.86383649527,-2491.92842535959,-2545.29733118662,-2636.79759324238,-2507.49640210564,215.573438000596,-4879.2222285198,-299.861547658548,-1754.15915640205,-4187.46979679525,1137.66583076928,-1481.12006416917,1695.17659450253,1104.17412056788,-517.060614308267,-2890.49188652938,1414.55797919996,-779.358296157221,639.951756225226,319.152759413095,266.837594517817,-3066.22032898828,-882.724287305983,-1003.67111231884
-3897.34113415065,-4749.19052204521,-3013.7811511564,-4262.86010587404,-6105.6085803958,-2965.77509841361,-3425.16751317273,-5056.22591398596,-3226.19969915645,-4185.02250204891,-3773.45983120877,-3320.97628089347,-3601.56540275602,-3631.75053002879,-3011.21323711549,-2858.74365709632,-2669.7399351187,-2616.03349037013,-2637.35940066488,-2357.07476527198,-2355.24430582045,-2114.84304743111,-2151.90533198647,-2181.96026113654,-2009.47237229474,-2079.67666068578,-1847.22596946454,-2024.17593004748,-2064.41083252783,-1890.20921708565,-2053.56823541829,-2147.24329140696,-2355.750192347,-1673.19594503355,-2037.86475815109,-2224.07346605354,-2293.00546661187,-2453.09564657222,-1859.69661485228,-2199.63275204182,-2462.35407761002,-2527.11352249459,-2669.40533136681,-2725.44227107959,-2504.62556153616,-227.323327416471,-5596.88486120231,-411.374324264403,-1842.0831505298,-4905.52702770045,1163.54690204,-1229.75120491614,1808.59444459676,1498.33136656243,7.47611155197067,-2768.82724768494,1778.93258806279,-367.539664120716,806.125895154161,850.245311148185,748.166933893594,-4073.04469357331,-798.649299895418,-1948.39666761149
-3995.84547454602,-4951.42926124189,-2888.15286866775,-4411.21213158094,-5972.05383655917,-2713.92647013825,-3351.26020617459,-4873.81148208093,-2988.03656525426,-3958.65783473851,-3221.37775905926,-3157.71173610781,-3282.11936919448,-3082.75920861488,-2910.29601965111,-2682.84988819927,-2726.31330357161,-2556.65903786608,-2456.61221050062,-2386.40546734907,-2263.88399837004,-2181.99182663947,-2131.32204488746,-2052.60806332906,-2010.5407172488,-1995.28619251262,-1886.92822727315,-1962.52315075547,-1944.36275388698,-1882.8983750135,-1970.02094246766,-1981.48279953012,-2134.61236540758,-1689.63608496654,-1991.2353002023,-2098.38714233513,-2115.01132085087,-2211.32248400438,-1836.88552119146,-2110.94659313408,-2301.74914121289,-2318.66496491389,-2546.38911681987,-2557.33133271011,-2251.35430598137,-621.820217617833,-5265.19424606812,-307.146276579766,-1485.96459228575,-4793.52659803727,1144.55243693689,-821.596832602936,1839.72348343091,1724.32947428709,744.060053068211,-2489.54465959635,2099.88846363927,29.2375846826093,1170.20795354499,1549.25695929405,1167.09402859637,-4935.97003683208,-355.500834958571,-3073.41442019473
-3856.52676621499,-4822.21626145151,-2772.74915328039,-4282.36329785115,-5543.25414070407,-2447.60617453933,-3210.80026190105,-4488.44109841374,-2762.7128051872,-3693.4865239848,-2676.87695081152,-2926.48813720531,-2967.14013560155,-2567.23006192966,-2689.73311164221,-2473.4968531273,-2617.27908822355,-2388.11690934143,-2232.74036181299,-2276.85704386741,-2089.53076367368,-2136.21200793186,-2018.43477641598,-1860.48332623466,-1897.40536687714,-1822.19384967963,-1812.61990216413,-1790.01709871837,-1735.80286122174,-1757.18826526283,-1775.90859002154,-1729.85973495676,-1845.0589325333,-1591.29884977622,-1816.99900833373,-1859.0512230796,-1842.63433544897,-1890.47119914771,-1687.22874236518,-1891.22697539708,-2015.80948675764,-1999.8873631477,-2261.67301857552,-2242.21375760987,-1912.06373194911,-1013.44578038237,-4387.60865665849,-383.689474156172,-1138.29146199988,-4060.53866572096,845.683316940771,-641.020830378331,1618.49171359054,1390.15876724923,992.530572778052,-2236.78734775415,2002.01182764944,39.2512495621122,1421.80107701755,1727.95804709472,917.07778475734,-5135.15093302561,79.491067297752,-4053.5158354457
-3635.03771149596,-4542.93434219718,-2709.42533770482,-4094.13260705945,-4989.94141732336,-2253.27880742975,-3132.74894865716,-4111.35458313509,-2645.3652408687,-3533.2987302721,-2275.36286528141,-2671.25316065622,-2745.79357469611,-2241.6107426778,-2434.98934213183,-2283.97496209234,-2423.85669850787,-2187.01218194474,-2035.6962886593,-2096.89309673125,-1906.37067843401,-2006.47942705487,-1868.71952156844,-1679.36944149676,-1715.66413239479,-1625.71092928283,-1636.53078610783,-1565.38058029672,-1511.91899422845,-1540.16192622859,-1527.80538452278,-1460.14278344146,-1556.08884872903,-1390.85067575218,-1561.1186498498,-1574.6903552,-1545.46559691922,-1568.65694306087,-1446.86556131466,-1595.26098971972,-1680.31990105479,-1661.27369010616,-1900.37032084859,-1870.09999734001,-1579.56281840966,-1357.75915109292,-3498.75154267214,-764.521836474558,-1081.15590793361,-3136.94843876911,295.114109806612,-789.464902111544,1132.01768621019,567.305694595406,476.018963049852,-2011.14273369187,1362.1143116648,-368.829537052837,1248.00932301367,1025.84373549035,-114.18552360985,-4789.80453090677,68.0271608788482,-4642.79943621423
-3382.65645523242,-4106.49095225049,-2575.43413345892,-3842.47100188706,-4201.24941096472,-2014.38256531257,-2989.36320016677,-3628.15307666507,-2441.87642546032,-3242.23693440944,-1812.9535827483,-2320.29246077647,-2406.483277772,-1878.46486021365,-2159.768942805,-2004.98469978129,-2186.12703662073,-1943.59065339361,-1777.02337200515,-1879.54964525734,-1682.91447338368,-1818.65631967361,-1677.37650959733,-1473.51287710301,-1510.17275663622,-1413.61086436212,-1426.07910552124,-1326.34390602006,-1274.29784855468,-1309.09459236938,-1271.30325701623,-1179.04049879353,-1230.00047086931,-1181.30482953572,-1293.39691386305,-1278.26162194706,-1224.90516689472,-1212.264113299,-1206.29296277705,-1292.76479217778,-1325.65859491079,-1297.25543778706,-1509.36479905418,-1469.62060824172,-1222.64402902824,-1451.42743198103,-2559.42057698998,-1036.75027671743,-1017.23633284492,-2162.21860077369,-154.60264652657,-892.214090393422,609.258936788386,-162.48591884742,-212.691385086888,-1731.05963418959,577.44515019305,-803.210789701456,723.802385647777,13.9347862811844,-1211.47265900237,-4474.03117094695,-285.761449774419,-4814.56742607611
-2895.63244243595,-3337.93794544513,-2155.81861620068,-3244.77964502877,-3081.61549425091,-1559.71900047858,-2483.55870103457,-2780.08614256376,-1908.70781383844,-2472.64364650396,-1024.3011441638,-1773.61441633198,-1713.30483884247,-1170.13422220172,-1790.12867118111,-1503.44263944158,-1837.05269883272,-1561.65877164323,-1324.38902582025,-1551.15442788288,-1317.44713729039,-1535.53087144719,-1369.24256055035,-1135.0594130065,-1246.42645641369,-1112.4312390338,-1189.682797836,-1038.92569681284,-953.325421171788,-1067.10217562048,-977.3989096149,-833.261788067341,-800.093658450245,-987.498919875207,-1014.44596475657,-937.832976002725,-834.064916883662,-754.497965706719,-977.770470857611,-984.86899369506,-921.432737143869,-845.34102389422,-1070.99537855245,-1006.34701416901,-761.956511546319,-1324.74834664791,-1437.06376030561,-904.069753024064,-618.381043128528,-1194.70371342613,-344.359052285256,-643.720550936431,200.13866343045,-422.489422377915,-444.046095517254,-1557.85803885135,104.810104373062,-1065.81497416051,221.074384435193,-484.94682715841,-1723.49919842556,-4540.18072628019,-447.760603538827,-4838.7764810572
-1959.22745190751,-2165.33406813317,-1357.70380723841,-2150.38051618658,-1699.8549273052,-849.674040898069,-1567.88195403978,-1500.6708606706,-1068.84024656263,-1222.20267592894,102.682424912068,-1000.74117016687,-714.780450394465,-100.137247599528,-1192.19079354748,-757.434405041233,-1241.16980097932,-933.526129721668,-623.625220745252,-977.951526782122,-721.041379391801,-1042.5263636622,-841.784260096813,-568.163900580631,-787.257243405117,-602.821365115868,-791.830601116325,-582.542454318638,-448.600408639357,-663.159355240292,-516.83519907114,-318.641007481737,-206.503321114476,-654.583453534506,-589.254743079005,-437.470895339536,-283.994019342516,-136.344126511594,-606.099636161621,-533.537382590024,-361.830547338234,-227.430641737615,-481.735491107386,-382.846466610971,-130.679179734827,-1358.62089246688,-415.632199723908,-696.482839135308,-134.361298666565,-539.329559358987,-585.198324701406,-278.508425222975,-225.395725815697,-449.369843704892,-380.967562468476,-1768.86895105439,-54.3011496063915,-1419.68009012373,22.9108318117262,-385.172564429557,-1846.66560678795,-4722.23668349236,-101.252476198606,-5031.55195834247
-668.571035990275,-770.298661237569,-318.204572164617,-803.851848389152,-178.474572274141,8.23354049007342,-547.282204646345,3.12861280094043,-173.462871969262,158.932796746551,1361.43940609737,-111.404963261034,320.639423348136,1079.34717701344,-350.780112726733,104.227688106748,-408.220164471629,-103.755936624519,224.049213049712,-184.534948709834,57.248000362792,-331.806547011795,-117.529233103332,175.672801099794,-99.0840155309639,107.396129253871,-163.556654166623,73.1511651806506,230.656476432024,-22.3045026759496,154.567704132282,379.485095764846,527.764853999485,-79.7705294606388,57.0958662322613,264.0975110839,436.83058798887,621.24895954057,1.666970051715,139.772943970084,387.762338735338,545.199274286353,303.497449713019,425.503917081274,641.155742382089,-1802.52999881433,136.065564238383,-950.109360912504,-97.6548310960595,-478.101709601547,-1232.09444648376,-289.2159734791,-841.997145744841,-728.460470681037,-603.038710481535,-2219.64360434257,-267.65463274487,-1996.0082867776,89.0905894761996,-248.488077465468,-2082.8919136203,-4357.97935437952,524.752318257771,-5260.09428425322
667.115709642944,557.601543852047,721.740402749966,453.432165836806,1291.79124150125,870.071358427288,339.42375626876,1407.12255478447,597.969722226443,1324.42657577774,2498.72260377501,700.093486223244,1168.13160133839,2082.30829114626,527.368609123661,874.142469119463,430.611160785685,699.026887958905,997.115819879217,591.613263411906,807.037690179021,397.475630132935,602.91834490587,879.267487713541,614.505081177963,811.788972101229,520.021506995409,748.369242128594,899.964495072753,668.588890452772,853.999058120429,1080.50464174161,1235.00002170921,569.303801388492,755.28835399085,991.549928865334,1155.15053558745,1348.18307498568,674.149771248512,862.175208275851,1152.18199412864,1296.93232612422,1119.76319082404,1242.27685215887,1374.27201618162,-2380.79326952164,345.40485682034,-1702.75173267683,-613.301417184071,-748.616620632388,-2179.18532992007,-849.704065471275,-1591.49931649129,-1451.17141006966,-1347.51753840723,-2317.30938197475,-814.337471543938,-2472.64933101955,90.7289217799778,-488.044054738527,-2483.92170039918,-3208.16078033615,913.95324958834,-4978.1577086196
1808.35065112059,1640.16735663991,1550.4127517553,1510.68557643094,2417.10449483023,1587.41768605748,1115.54929587572,2457.77462336791,1222.68081968012,2137.30939606555,3283.22934858329,1304.97545966801,1757.52960555007,2732.92710762388,1218.61029502961,1404.65589139934,1066.82419504999,1270.03488011922,1516.3948349728,1147.42594938846,1325.97257524059,933.593034187797,1121.59191716558,1343.51117949581,1121.6556320954,1296.45539475495,1030.0234354201,1236.66819007014,1359.30860674827,1165.95443065424,1351.02623320944,1557.7659760847,1711.24836617899,1049.76547111294,1267.67336104819,1511.13533140417,1646.92358458467,1828.21710042776,1175.88797839075,1392.05606302856,1696.91920936372,1812.39764634655,1728.8210465453,1827.57536804623,1857.74952123207,-2572.45725949835,772.336323451558,-2438.62638758838,-1185.17537623582,-581.318849537639,-3013.54935766202,-1550.1871472754,-2294.17993476774,-2372.39550128299,-2284.52587304766,-1758.90038742642,-1649.89550152452,-2552.23859221018,-370.391982480635,-1053.83656108223,-2833.76208166939,-1896.1193898432,676.635842509869,-3893.63884622277
2664.25344546597,2460.02973821608,2078.97853740923,2366.60426500221,3055.96877504058,2053.41455778621,1798.76846384164,3097.19442919652,1703.58327043939,2642.33330599258,3641.68837407149,1712.45233159892,2154.57482988331,3054.99305708056,1691.9158322221,1705.76528963097,1507.73491283626,1602.98726749624,1780.92761465039,1495.08957642805,1597.68776661676,1259.04079153937,1426.65570235994,1558.31918876296,1404.49178029121,1541.44691638382,1333.15801706193,1518.20067521803,1583.09051841324,1438.36297895179,1611.34057686061,1764.94132363813,1899.81074119326,1325.71209098818,1556.8308094051,1776.85816952015,1863.77373181165,2003.32474202391,1477.00032002063,1692.40874607813,1975.58917960495,2041.9712150516,2076.22147299627,2127.37642418184,2040.41767919961,-2195.73064223497,1706.18476890843,-2653.36771502363,-1257.70573753963,480.33506751823,-3516.23992302229,-1697.5040868525,-2967.61853774351,-3103.37325551224,-2671.7673269293,-929.317945265492,-2616.97698677286,-2256.6422514337,-1426.44685656921,-1773.44118132165,-2991.14869492752,-1068.47508207023,-189.715818879227,-2295.34105827124
3215.92703252711,3038.87700124176,2388.23725354423,2902.71161281825,3358.72019630962,2294.95077769843,2265.15413253557,3396.58305187249,2013.29430217392,2911.60825895147,3723.82472847405,1974.62241517125,2439.64249853451,3186.06131962588,2001.47744365437,1874.99433937146,1841.52097510199,1797.67410274841,1896.86573682542,1733.84621866628,1732.7290889271,1478.3841065982,1619.46336183472,1631.95246429574,1577.86391246731,1652.06426335225,1527.94047827378,1679.21260163773,1668.5411435118,1595.87930352836,1734.27421507963,1805.99901786699,1890.69341600144,1498.10777353994,1722.79294615622,1885.32356666131,1907.64908500618,1978.82227422294,1666.63420514583,1860.66499277067,2088.82618837717,2084.84862223283,2263.15413508481,2253.90862819844,2025.93658738874,-1598.7344268809,2705.46667395843,-2351.03608075195,-958.685197190709,1894.79894763466,-3762.69869025275,-1171.48454489414,-3814.39366112444,-3502.53719940116,-2081.53787711995,-255.38440170474,-3699.32919015239,-1695.26673279101,-2800.30770513982,-2646.10498186992,-2808.71929055804,-367.888335438053,-1337.17146997609,-621.224223132051
3467.56580796353,3344.86459085785,2584.17080940964,3019.83566243559,3457.07014692444,2404.5230892008,2434.74122407273,3389.97060509871,2130.73092612928,2919.55538323924,3652.22459875591,2112.67970570808,2552.42903673351,3131.25723582898,2149.57811541854,1950.67279518917,2063.21799247071,1895.86047673654,1911.81422738072,1876.82992586899,1785.23649828521,1626.62711232851,1727.97849436674,1622.19509308667,1676.84057826149,1678.37809935825,1644.54420501563,1735.21892346617,1665.26370945998,1673.09079393906,1758.00695318799,1753.5356348033,1779.82094178638,1588.32629708793,1791.51106237348,1885.49232283348,1850.04293703872,1859.77494745645,1751.59809267796,1922.06473644403,2089.56390547559,2020.7144168408,2337.33587617586,2279.40389626742,1915.33110102358,-1255.32463604361,3138.72013940186,-1934.11666909671,-924.821677433706,2720.50041490136,-3876.72608219685,-717.558566777916,-4851.31060569386,-3735.87857846799,-1184.79361375853,361.326166861515,-4850.01281055643,-1047.05632559714,-4052.72484214115,-3551.69125312301,-2243.859168668,1029.97211945542,-2277.11695459883,896.318481840178
3486.44639230652,3349.12427400375,2673.92359522473,2887.18908352569,3276.47097894494,2431.42124992873,2405.07139779738,3118.69518182376,2095.29660301967,2673.42522282206,3389.666616815,2203.40675096556,2417.24292921046,2829.59761843238,2192.31268181622,1947.45176708711,2145.95201332551,1915.43608230976,1839.91546435757,1909.91899614738,1761.47206760884,1680.72941213527,1734.08672853428,1562.94555709908,1679.20639778561,1636.68261853723,1657.64537903033,1690.29637716098,1600.48181146642,1651.44935823594,1697.9431468466,1657.49544672215,1655.62647046785,1569.9266237709,1756.0095351255,1809.37077371984,1747.44963919545,1735.15406145799,1718.39027428658,1883.90788163195,2014.63006477257,1917.52921580657,2313.16294887398,2239.58059304751,1793.13990940124,-1135.84435741845,3157.27220871131,-1586.70889337395,-1122.6735088008,2916.81699337469,-3755.34519045387,-840.886097827728,-5571.00234747449,-3816.3526277525,-961.838851022385,1066.71800896816,-5562.82822897149,-635.286233948261,-4715.87847164639,-3874.18825608904,-1555.66556928131,3018.65635904066,-2440.52674304429,2143.86490018915
3363.13501779119,3057.8359488091,2643.695657619,2735.08998417088,2797.63273284337,2393.28694439908,2306.09986509969,2720.52160166652,2008.48258968823,2334.3511790603,2955.75429051436,2357.27430771188,2173.14756246821,2407.7064236581,2262.46695133911,1940.97555898701,2128.5402450262,1912.18485474408,1746.09270009968,1874.07961551946,1704.91641695413,1664.09764990575,1683.29230497181,1522.95332666979,1618.54224797204,1577.99864133436,1598.97712384716,1626.35453148933,1545.87267170775,1575.7358358898,1627.85392139522,1594.68110809334,1601.15530105204,1491.51267714068,1686.88646490862,1740.51954818094,1687.11022202618,1688.16151700949,1638.52483596325,1830.10402633938,1955.19563313513,1864.05002431714,2273.50976990576,2210.63006083452,1741.59281203954,-711.446972977469,3575.98215053105,-1053.77189215938,-743.703789626406,3361.44215274707,-3090.42686452028,-1006.38283243177,-5172.43811641602,-3386.04952299075,-1294.18591205861,1716.47330669734,-5088.42263070902,-488.102115245179,-4303.59022740117,-3117.56103597616,-983.59918447404,4628.10316699357,-1522.47433771044,3152.14323975824
3082.49002776927,2502.24533678883,2497.36618858866,2536.6252494896,2271.62043539403,2280.93514356402,2148.00873390073,2336.89651618448,1948.40810155405,2070.8518771311,2549.96981442786,2532.83337768176,2052.0714362994,2098.31718786462,2368.61635249095,1965.20939333153,2025.57943773872,1886.80692721676,1656.79227526683,1775.78060397008,1624.23436647066,1586.12560167985,1600.0594922797,1485.65549586905,1513.41781569898,1494.70790041025,1499.53092312941,1565.05062725694,1493.25195770877,1475.84923827289,1553.00606356072,1541.32213134757,1565.42763243214,1397.23628318753,1616.52008174628,1677.56958444349,1641.94178540566,1658.51314740871,1555.09195237643,1779.62850645692,1907.62255888158,1823.20453291962,2239.76737699797,2180.22085665401,1706.44082733264,222.968773456717,4614.62515207654,-169.155179632122,412.338852299494,4396.67570710348,-1933.79529377833,-563.235685970408,-3593.97940178618,-2386.00132256199,-1370.66168367609,2345.08701713626,-3527.81126550829,-180.71121512512,-2879.79879074866,-1886.09465944055,-484.052844223431,5339.63427313772,-138.580705868759,3955.54434278072
2589.53620794302,1835.3761728044,2203.82068198039,2197.10464879335,2036.65336090312,2067.05724464766,1930.06957023275,2050.17815325095,1910.11100918126,1933.65399692246,2381.22358304101,2570.62913811836,2101.75087976372,1999.58277768953,2389.50142798156,1962.98550918407,1826.62015136512,1787.74962830706,1534.79583490156,1590.78604358004,1482.00759666346,1421.89619375667,1445.75745073846,1357.74835486716,1337.11335395531,1329.2076679423,1341.54897640697,1427.55151203233,1351.97468124566,1318.86502481762,1396.69776521608,1390.09949855676,1421.09226922456,1262.08033199384,1483.73780909979,1526.96290989861,1493.52500592707,1506.73425209586,1427.93000477556,1647.48113510613,1763.71824791968,1666.17697467075,2116.99883643242,2037.79663912354,1551.29605218142,1247.1008040422,5545.69546994098,890.778388052595,1650.58404262228,5261.89697819055,-860.912192592961,303.051460677005,-1920.89807642519,-1384.72614306741,-977.512836720617,3084.77510251155,-2058.5305669382,443.315065012993,-1408.67833371688,-1314.50203405678,-28.0540931372942,5453.4565556615,576.994405081289,4245.7491341128
1923.31817712811,1315.92803272761,1740.23886333758,1777.55097640799,2195.95978852593,1777.6080947337,1708.8468929363,1886.06857528354,1841.85399166695,1873.05769811026,2466.7279986643,2440.65566645035,2181.42766989146,2040.90650529636,2298.94213162228,1907.08405574355,1614.53219734193,1643.86618738249,1390.10162711464,1382.43648932037,1303.05318781583,1221.00390737454,1241.763531533,1145.86289173739,1120.80449740416,1105.30853360341,1140.3231859097,1197.41851536152,1122.01218169138,1109.75358187958,1160.97471644612,1139.87188908774,1173.11020729267,1080.39285074166,1269.66684063235,1281.84007731413,1239.86003680183,1241.73487629163,1240.57292573041,1411.82060366649,1509.19209200809,1392.95456880804,1867.14833775915,1767.02428487227,1280.1624684449,1937.75351165557,5766.38714878045,1831.92878006178,2472.09135263986,5207.07535804686,-261.066156672277,1051.10299227578,-1091.46699310221,-845.549973387166,-490.733241250362,3630.39529623735,-1487.17137572855,1024.33517656301,-795.995784096282,-1582.98815289283,237.387832362674,5435.55989551288,267.574417007803,3842.70172429417
1224.12708289989,1158.16290268475,1197.32058155357,1414.36423384706,2664.66713151629,1509.64132260447,1514.65084654679,1888.46485224042,1733.97589158603,1869.5704341443,2737.72280787255,2311.93420128117,2222.81304037525,2172.43921393345,2217.80160093418,1855.09647552151,1511.45975902047,1549.25972827033,1287.93572181024,1247.09629301239,1161.14537878883,1072.09392504688,1073.80632821352,950.28982766749,935.907182434348,901.692831323217,943.854678149435,947.034031161978,886.232874354282,898.427834195451,921.919189733942,888.29126941233,930.6693089933,885.663848179469,1030.49751864761,1024.54754185657,982.070407412564,983.530221139275,1023.96482096827,1144.29574781344,1233.00371421026,1116.35019799247,1566.65160273338,1462.59127797084,1011.48172202638,2140.87972682592,5304.81686679322,2221.86984127006,2734.04571606918,4297.68763406644,-66.4859995636698,1437.14079611238,-938.047632413109,-747.136404485254,-179.456735872379,3658.65062998784,-1487.50663275506,1359.67896870537,-951.898247307041,-1956.49380193511,236.591850110998,5517.34115513472,-450.114951316015,3299.72376966479
803.551114371246,1559.61137205978,769.977559031382,1379.87971944948,3479.59144445371,1344.84849590303,1443.71722601566,2279.60144265916,1687.16259479923,2116.12217540764,3309.21527155059,2390.91847518183,2403.6511949501,2540.74083019755,2298.05846824602,1933.17106836354,1573.08487301473,1590.09535904626,1324.40681397407,1235.78660945263,1135.4972579651,1024.376371146,1019.23291224046,877.161941609205,844.677066641636,800.069181170649,810.310308842766,778.73821700429,741.301939388462,753.350232936553,769.288933847843,744.572203680907,803.007069611967,736.918037611661,861.022051320104,855.816832178594,831.158471019614,843.056033289941,849.417100614281,954.926349751656,1044.7257554888,951.745596081923,1345.50342700965,1249.39782655379,863.177563907963,1866.63722973717,4381.45405241729,1786.30667562444,2281.6827561349,3101.39502321151,-136.651177854792,1464.55363014858,-990.080696990532,-914.109210314161,-55.3728041857748,3478.20432121829,-1561.18565040862,1633.22017762669,-1281.75121910957,-1919.38935665086,160.745257311528,5708.59617091632,-882.826726662784,3305.94829208244
1012.87374548039,2604.57044646537,606.713407081037,1969.41468231342,4676.24566700873,1252.38222954704,1670.44686983147,3244.55337866137,1823.41958572449,2819.47876090133,4311.99880662087,2728.70361460772,2912.51525085795,3287.11770087943,2606.52699047395,2260.83468694759,1791.7422311925,1821.94770379126,1589.36759390006,1378.10636875871,1296.68018119457,1108.99488317235,1127.57763287654,1003.61709566671,905.402008378286,879.185182206632,818.069333822651,790.130046239357,783.103867313502,757.620736553822,791.107190411632,793.587057348379,865.675575571834,717.159908568744,859.154201662485,867.479996689521,872.875651431822,892.623331542022,815.229700011801,944.663367705118,1038.63737421622,979.368652328973,1311.5728697369,1225.88229224107,911.557969722026,1453.70619646862,3317.03891189534,1037.783634589,1443.94560231233,2215.91819638884,-256.954563540477,1319.45172789079,-1103.86665721667,-1066.81197796619,29.0307041381141,3597.73294548012,-1571.40856492299,2017.89862189364,-1449.16515042556,-1417.15750340859,385.41744063986,5890.59031221733,-715.808830878359,3903.01177039098
1720.01800720211,3874.4706213874,695.257565749557,2906.50622676056,5869.07246102732,1120.40146036833,2095.41380931571,4431.64078488312,2075.19299405131,3726.59013416898,5461.49488280993,3134.2742019148,3572.01918077587,4186.61584590142,3004.74343969641,2748.85502545944,2055.2060301743,2159.84281750859,1991.86926449216,1604.40636961836,1574.27654108576,1272.76884827977,1328.39731386686,1252.38349314561,1063.91543313096,1076.92545096371,938.148550800945,933.342970751085,955.527943397215,873.62995327366,930.075251660856,953.814432270962,1023.76826318676,803.972498039499,972.978916201086,993.965590848133,1017.22387662349,1033.6653858021,893.053942392839,1049.28981776556,1142.63776315112,1105.63076435507,1383.94104165335,1303.98210779378,1052.78076235668,1362.68816012388,2537.69582723058,744.731058312387,949.238157685778,1954.95306237363,-104.442263707264,1234.00966753841,-1017.35880680905,-912.569296692774,165.048063168417,3929.46756200472,-1342.18623121169,2336.18717887961,-1276.4589003338,-624.816332209793,965.707015313011,5815.69129230719,-12.8707982011865,4579.12633723389
2321.49259096328,4653.65321915842,944.642576887433,3444.23774103464,6471.25600886305,946.819545270001,2345.33311299105,5179.91600270094,2235.94784156185,4300.44385310952,6248.85897651094,3332.06938276711,3985.18815569426,4831.08900313164,3215.681469821,3101.51844936213,2175.27820123356,2378.2125371145,2274.24924890854,1734.03433612343,1756.52151102738,1359.39330225394,1433.31088529592,1410.24427611437,1141.59783706309,1188.34199004212,998.626768020692,1012.03757445075,1043.93776649095,923.456620149456,983.0892771242,1004.49303717591,1051.47110355438,840.399667242224,1003.23252639662,1019.84956974235,1034.58671147521,1037.76673099366,908.982390540579,1057.64273670394,1134.46459974633,1099.58415497104,1329.43256881945,1250.51033699018,1050.32308130544,1586.26229373346,2192.93795465398,879.867936099204,900.739268678725,2157.98094121497,326.647324146412,1172.79356993752,-424.826478175411,-571.760570815438,130.148369001538,3935.49087672098,-778.126873309126,2096.64140313533,-624.330789596564,1.47826302410148,1299.40794935663,5206.57744283161,789.402353230614,4687.24836264793
2605.79830692228,4872.1332560961,1352.01520082307,3497.79515564614,6497.74975251263,945.12470386223,2404.64267878513,5428.3018868559,2313.72977779614,4495.15925126105,6625.10103897591,3272.36456684311,4084.62604714191,5182.677070715,3133.31621231306,3178.12654327186,2113.22355647126,2385.89534427951,2360.5288723061,1709.97682823589,1780.69248137836,1327.38509792712,1398.34197382043,1435.14598731846,1099.28169227837,1171.9843204852,945.322677731782,977.555650558244,1012.88936724891,867.035361676938,921.99340421516,935.136070692923,957.317894205208,783.035172797725,916.657676697346,926.909906848922,929.372840195889,922.058246387023,826.336483182083,946.542898088122,1004.85945363131,971.116523460377,1142.9914482919,1073.58735628577,920.310663866957,1796.79155776625,2139.85704793569,1044.77449080385,934.707710785898,2432.68160754369,751.814042867012,1086.38771525376,443.041509072249,-321.934896208067,-144.583153070582,3532.83664456148,-131.565061226979,1271.98637887305,321.099673191795,188.084733180786,987.307292174015,4213.81461158835,1313.354883218,3996.58335794271
3005.53561817843,5212.49084157619,1948.95048895853,3828.04287617606,6612.74672764749,1283.40426831001,2710.12103131372,5775.42190300371,2529.55865168296,4787.47575198041,7002.30976383924,3148.55221964408,4159.1301384617,5522.39061203476,2926.60372108249,3131.94629551525,2029.71592974498,2326.69834443776,2426.03530780789,1669.88752726662,1802.41175118473,1318.45599808549,1395.32723487637,1501.79465749712,1099.60804008716,1206.15712582519,923.689799987774,996.348569345608,1068.35690060177,871.588747237966,948.847134131128,975.513668476769,1000.96619508373,773.860389604004,911.377954348844,947.772758370734,959.538908406348,962.413909988266,815.126967707103,934.968701469453,1007.36542790294,996.091886417377,1100.27900076884,1056.2947204966,950.626796297088,1958.8671035473,2317.28702019485,1373.95381383532,1165.88732083826,2632.06254114517,1160.68865074331,1286.50333155532,1143.21848479674,58.7318117259235,-52.2745070727791,3268.81022559682,444.549535381309,758.708942385933,1184.14656800715,376.197790342753,668.853854878961,3503.86164233676,1704.43236721071,3103.68165314116
3646.88894672487,5852.9243533628,2538.30040855883,4614.05723115658,6998.25867292624,1736.61942720872,3294.69055796569,6331.47834597451,2824.52420691868,5231.50612450064,7374.3275984584,3045.92044232651,4257.48404613802,5771.75343190932,2743.11725757774,3069.84855232997,2010.61838039315,2290.39918207471,2512.4591317549,1683.90366700857,1869.90690533831,1392.19880995896,1483.95673058264,1631.59720538035,1192.72077445239,1325.57810584199,990.578934196843,1109.49428694539,1237.84473881847,980.947240344285,1096.418331891,1145.30944072137,1197.94274368194,851.72841030937,1035.01547672684,1113.05655047123,1142.6492088272,1170.77267014569,912.755145890706,1065.21733882498,1173.13577403978,1190.78054720261,1244.99814484164,1228.46794467332,1162.22182659493,2202.89648486337,2640.02335093671,2026.92916210003,1811.06917904217,2807.17479482118,1712.92954243407,1916.0103659239,1623.0944039224,863.714948555806,820.163922217075,3326.58197920383,1067.57033444093,1133.99121761661,1776.360245181,984.908501466503,945.523942508487,3424.11746948391,2152.67809660054,2692.71808357596
3886.62800505532,5871.99573102081,2717.06023839774,4860.30592465242,6796.16691278854,1870.90741096582,3483.27346971265,6239.39475336241,2782.59687728129,5147.17922034174,7002.04610255341,2803.78250143418,4003.50089365221,5358.6421177042,2509.33071861946,2853.17764237786,1950.52062359994,2161.63962083903,2403.2134724853,1642.91909769987,1810.18225573008,1413.44299647915,1480.08766682424,1596.21875475949,1213.05862690106,1319.58241015711,1010.50820511137,1122.54631668403,1249.41014498685,1004.584445009,1111.70809694731,1146.98513921917,1197.34179762433,855.587821049506,1049.35947982033,1120.47540711641,1139.25305408906,1167.36012075952,911.848342710009,1063.81254342707,1161.15807134668,1175.97594393391,1213.78069568775,1204.69761178387,1162.31868677054,2344.93632782289,2637.5344400405,2479.24572280579,2333.13259843189,2673.29118578108,2151.8912625367,2356.48223714858,1924.32111118804,1608.39948571004,1681.087743367,3006.77117312862,1548.09032583662,1554.69900701557,1959.82605650681,1477.05038729824,1151.72284884904,3412.96432567288,2240.75078383682,2454.00621627211
3187.79212660742,4534.22548403101,2288.23985726197,3796.55929105889,5366.19237486163,1558.32193946436,2803.31351158908,4904.65355511757,2227.65172295677,4128.06912441072,5439.96072726397,2310.12946705942,3190.30573071544,4044.30330347256,2121.32296502791,2365.13749981465,1753.04141728724,1843.62135928098,1973.57819825698,1451.29754362296,1512.57861872035,1266.67637677728,1249.0667052523,1270.48368824234,1037.79093442445,1060.9758209734,874.827114733422,903.596713320088,942.025204288225,811.868071383834,835.434675256875,805.730247939212,784.315009945141,679.944610400747,787.414633269059,782.260889747527,746.5634428468,722.701300946815,680.942995972265,747.935968916011,752.582664222549,723.139934378424,761.543929610808,733.33042198118,706.280608309795,2121.82338053608,1865.49056659244,2201.2209479887,2025.42599120678,1749.70745684334,2056.68437063021,1878.25986294544,1864.72315185299,1576.96243019607,1475.4284397409,1683.10131251706,1441.51492633391,979.821641568549,1570.3648186705,1118.15022550101,454.536877257635,2736.31511443149,1515.39484806428,1693.41256333937
1845.61546975403,2464.40451437384,1472.99339997489,1972.88667211736,3464.37159495351,1057.32469081998,1618.70175640384,3031.2537313453,1506.64382135713,2749.29548050583,3359.26132469334,1708.98133790131,2191.29654984924,2466.47442203972,1627.96092718594,1752.78461837087,1437.03183588678,1416.00193422545,1400.37752321156,1142.19152327274,1087.87484896631,992.630618716633,886.707595000509,813.527401546752,725.417380233056,670.824092418654,613.236031121983,547.500020260278,487.733265694121,486.495493285891,407.7685919086,308.555519860934,188.09678931272,391.694822773201,372.537491911017,280.336763375026,183.336429898522,94.3197278469857,326.402297085927,279.981756346929,167.381489649738,87.5537791535704,120.965064133619,69.7848212552359,63.4925123906471,1681.04687792491,732.299320527418,1497.22235104151,1127.22218597644,331.088200313558,1588.50856147818,723.370558197995,1483.48871928051,986.939267621625,460.274992926219,-150.195730050137,927.330463582249,-217.054835044924,855.308007000336,311.630052361371,-581.977375127358,1602.21507302024,466.659053887185,778.496429141312
586.013870147481,881.920465138991,649.716075180749,506.683669208833,2285.24626766132,632.286415664007,592.91907958678,1737.40005672073,998.285886935081,1821.20863843742,1743.97271023573,1188.0842323526,1507.41818176351,1412.84022493257,1104.56866288281,1234.55762080777,1048.5957381297,993.771530377127,920.770213235777,793.456815244016,692.213217838325,691.323802110469,549.427730940204,431.259147996517,398.200366595963,319.925352582036,312.072896173328,214.685812679757,120.028590673604,165.042744222146,39.7372790523572,-75.0063814319073,-239.034363363721,92.3744521684545,9.31099395146888,-111.774008085758,-225.081979979003,-326.79557374085,0.210207666608666,-87.1388528695963,-252.426549028024,-346.283692774595,-330.610127367858,-380.037933268587,-354.183879658657,1344.77793902671,164.818119317576,1010.34206088633,512.533321874077,-480.124727117165,1281.82571758244,-82.5605788701587,1179.70321158803,667.168020689815,-192.646226514832,-1261.98299728416,723.648961379132,-836.243640113383,435.926780266545,79.0056009766141,-772.274796228819,1007.34063049419,55.4335393925976,742.82900320766
-187.057205555645,209.79410963344,-30.573518840251,-137.252676767619,1903.9958626521,239.015430721305,-38.2339884264268,1184.7006680687,644.109362380816,1401.32271482793,709.35050888849,696.730039270045,1142.45276031931,854.774811864687,497.018298833769,783.032478352794,605.25170053961,562.13855310965,524.860439453558,430.734025628139,331.642174805412,405.203322478171,255.22144213824,117.246679364436,104.387808775746,21.4790366417252,36.2227771918965,-59.1636881565405,-158.205320546519,-109.76231850986,-236.185430418403,-329.637173859049,-471.875515017213,-169.275019922196,-258.555830907774,-365.238916064213,-458.390670029293,-520.394656092256,-260.13089075154,-323.555097881767,-477.442006860559,-551.467150396602,-551.039240315306,-583.167634896664,-531.302244714062,1093.41403115105,265.533272764841,806.541751391684,440.230399938247,-243.899980350063,1217.61334869296,-42.2114633349994,1113.54616768068,833.373039672355,-66.8500048631692,-1078.62836495071,980.769993749775,-490.40290456166,494.861876432189,510.700420531627,-23.1601154270658,1362.86075576515,340.699638655607,1593.57032874888
-603.337313512191,-35.5841725318583,-648.701999099642,-321.006861930395,1557.94656563983,-305.310640450521,-439.313022617899,773.033162654438,236.401932009383,1022.16894748336,-204.384540055732,144.628502593626,796.026817624773,283.932543351756,-185.864121502474,276.191342202043,152.237739578793,93.5670003857822,88.6668645268322,68.9003466669048,-47.0887018125286,142.238432513826,-46.8051024178327,-231.195959892138,-160.405228965797,-286.824749022402,-171.064871373006,-320.258162908902,-456.951395072329,-336.028496649336,-493.328349280434,-600.233891822152,-726.629357376788,-353.57937085737,-486.818091676033,-615.81234311143,-710.376664818996,-749.688633907369,-466.396970069618,-541.739333571708,-708.232640127938,-773.464558808872,-762.240408259076,-796.50142541474,-750.258444534615,709.297084131544,175.816550459607,526.098047627457,384.174628267661,181.887361942536,1073.64728575655,281.681251107914,1061.89343106613,1062.21338294888,203.955157920268,-329.293128372942,1205.4301106427,142.339796103331,584.882066040656,880.438407217675,766.28306850995,1853.05802849413,519.887714983203,2273.47604676188
-942.012633239213,-343.73843711206,-1144.79599510756,-529.28829288164,992.29695123768,-836.794596629807,-711.292114612082,272.340065480219,-70.4180913364498,581.424308324746,-957.566361348377,-211.278248368266,513.254128386138,-265.677824796866,-609.388798568605,-78.7527418763975,-146.037602862039,-210.555715981436,-228.46614201125,-153.964795754879,-301.514797082575,-10.556738680074,-251.350420470533,-488.447973898269,-304.392739115299,-492.829406808149,-234.098011853307,-486.351574784613,-675.845075724116,-425.66947363724,-654.717019177647,-817.225824887747,-972.117800086652,-382.089222958837,-609.607882218416,-809.652606966643,-938.78637822511,-1011.59997702515,-547.906709100861,-691.328356622087,-924.361764055596,-1012.37485004191,-975.067023149224,-1034.8445131485,-1013.88459884752,216.563168580545,-538.193786004878,111.363531122349,39.588408099158,-50.6553739348986,797.575128150238,232.086437932068,930.551755283029,1142.00584325595,118.437004971277,-124.916345477773,1212.07980388932,355.232708026761,438.753634472856,940.213094877943,1018.83647740945,1543.31293003741,271.848945850032,2176.87607211287
-1284.01451716136,-721.712714176303,-1336.60182800994,-840.658862502004,554.83733474073,-973.783725561479,-797.515704123695,-35.3293877314628,-11.525210288843,367.929828395164,-1143.78456094707,-97.2616215384672,574.763830775831,-390.498057912111,-450.513222614206,45.9029425956337,-126.91862057641,-102.449953751114,-132.972203757495,-80.390916564154,-209.649066613433,55.2248834181991,-181.929595415812,-407.48796160581,-198.090496662148,-398.103803248232,-97.9517885887439,-398.199025211914,-592.824502054868,-282.011006550895,-549.387726050174,-740.316973073157,-933.175032158666,-216.759200737202,-492.469542761011,-732.058954407418,-880.576256508366,-1002.51083884945,-417.785998406604,-599.508355745686,-879.970291443761,-990.682062645111,-952.46136549321,-1029.10199110654,-1013.54499079824,-210.489801466326,-1441.22752839041,-210.641844476133,-378.844466312548,-860.382035022033,617.29314111498,-191.841161886782,887.94640329424,1157.74333637419,-174.68091876977,-822.710376389543,1258.81304009658,-0.94782890888785,335.167593371156,1014.88846805288,851.431834689901,411.176524897193,61.7653245024538,1513.76878681386
-1595.46020150038,-1024.82339554898,-1351.91847561196,-1093.37605937568,238.22983126101,-815.153392211544,-749.834875759642,-149.301184236474,215.297350057055,352.72238014235,-957.003762283303,173.504652826757,818.958863955229,-258.425347333664,24.7572811356611,436.598081381012,65.2021878285222,231.245919411775,208.898917826418,143.994233829444,86.2068683501864,225.618732533542,46.9372032449677,-98.433265391221,33.3653861997686,-116.307684210152,102.611812920417,-153.684039214721,-297.01491281916,-34.4607297166814,-269.22679470698,-426.403236204534,-630.84197753645,2.73914176579003,-230.96857038403,-439.075148067946,-567.42573634718,-697.901499579294,-182.289617339262,-327.934312963777,-590.191809411106,-691.642013559877,-686.282822649109,-749.995723753633,-714.699595460706,-550.95701599148,-2204.46182280321,-415.511559682888,-807.633464958006,-1810.00394243231,601.811776797466,-763.127750722078,1063.74542610522,1118.75038797156,-423.926723974463,-1944.188204903,1473.44486421433,-709.25527162432,587.036109360099,1237.32283712115,545.834200517751,-1084.43471870519,240.603948104878,478.480917812182
-1815.03598728614,-1229.85190944783,-1460.83633627698,-1197.81872013762,-306.080689723534,-818.263931482561,-710.997575829122,-413.355853734596,191.208575714733,182.653161962098,-995.090125280563,98.9774292536795,733.775693184861,-377.963196669044,242.969404121919,502.262464281453,76.458567041593,311.43218668993,294.412155587971,170.063901171192,172.877628103807,224.120959347113,106.573196386896,45.8812756764858,84.722662824215,4.08657137138067,134.001328148256,-49.3697489046735,-125.440535866249,55.1619522104288,-115.428239385938,-208.41299137924,-387.62140307423,69.3486044688966,-91.6819214837433,-239.137578930282,-326.750495991774,-414.649647468313,-66.5869323813178,-143.192889521161,-354.006572947027,-415.269469813152,-451.503235253553,-479.947704197035,-424.755634756481,-824.010856320688,-2765.97101699085,-599.519207352176,-1337.71574008115,-2476.58183805621,660.180377865238,-1347.12623903428,1398.11573939647,1082.45564952528,-532.375015074752,-2707.77497860028,1777.74242503405,-1308.32430401832,1131.12303316927,1517.3197840395,327.151692637898,-2541.82480738573,688.380733309209,-744.064423757577
-1770.11692347171,-1270.64964920891,-1522.73242064311,-1119.93142176042,-950.15653685046,-983.192841147246,-648.915991780299,-817.789068890744,-74.9345244478337,-181.003993240348,-1287.1028833554,-176.73146855357,226.467721115732,-687.665639424531,164.571872635882,158.877426336872,-120.315201186785,79.9099751431769,61.2806709799648,-30.058301726954,-4.59252104600769,24.35615558118,-39.3567718009935,-43.1942394174695,-67.2090481662679,-82.5918750074503,1.214925687071,-115.582783705232,-136.033349838142,-26.3506427200707,-133.426991924804,-161.771001290117,-274.167726287021,-8.38732165837552,-112.105338193341,-198.666032190552,-239.66682831716,-258.623927240369,-92.4281836664095,-107.753083037405,-256.967512696356,-264.102242439961,-342.866700927766,-331.872628632078,-259.23267983279,-904.486685172242,-2743.7922216074,-643.327739487458,-1670.00237402053,-2408.65472956807,748.433881777783,-1697.33238785285,1652.4640110262,1210.87369585325,-439.420903360667,-2641.25485581685,2055.28009781515,-1332.60734638673,1623.2318060686,1815.45984986635,340.314470982593,-3538.02479621857,1144.84347171586,-1585.60567785654
-1363.17585826285,-1073.93074850468,-1232.75927778085,-868.244363331175,-1270.50834957566,-927.036552463387,-435.128407280545,-1033.37331137017,-248.933160007924,-454.257166712908,-1432.99614267647,-133.08646328572,-259.733686919832,-748.142514381762,250.535781115247,-99.5225787051191,-171.577579939839,-48.9083347522517,-78.0551412396763,-132.424000879319,-96.3342602189313,-114.085105362251,-106.437419170535,-67.8530398974973,-147.603433070738,-97.4244979694639,-75.2461066128544,-113.9371648618,-89.4428311442047,-59.7840814659675,-99.7069790964555,-70.8746670262659,-98.053957938459,-50.4513932481953,-95.5161502850897,-115.937807886299,-111.063722704067,-73.1774759498551,-86.0274225149152,-55.4619269790623,-128.690858636693,-92.2386478519385,-216.741429376217,-176.945242239259,-79.7316279625646,-705.39001681735,-1991.16335954257,-454.928452857169,-1494.58094859927,-1683.92770527266,753.401322307909,-1646.23777449643,1528.09919414861,1331.40812133327,-284.616987044412,-1999.00187738274,2073.87708032221,-925.894444015467,1766.80893543182,1977.32317650277,423.372411477547,-3819.30341826944,1372.19996039461,-1746.34666058612
-838.148326524524,-828.988502959006,-739.863301797741,-607.306712031748,-1344.30896150967,-628.688856615179,-142.882280855221,-1057.01317005627,-253.55153003437,-564.986232441664,-1392.6159317599,224.037148950867,-432.264058421448,-538.883000737748,591.066274409299,-69.8636022591577,22.2178476462872,66.8176551080377,0.750810223859387,-40.5043744485232,8.67854895901552,-109.312082995316,-15.4203646429185,54.8154717598968,-78.9157157994395,30.1121817215861,-52.6129782238165,-11.3019743057372,56.0874179539952,-1.92697956542002,24.4106237151487,94.2006808037794,122.845394107404,-29.8266095910759,-5.09621365721897,33.5917758996755,71.2394406531174,125.761707148846,-17.7970648984199,39.2841779336389,35.4825568020469,88.2118558099476,-73.5845700138343,-19.1320908768498,104.372883917037,-383.679146526345,-1293.80415302806,-343.330861702772,-1174.12630645905,-1152.087227597,371.545674834874,-1444.97341529756,881.398233819778,900.220848366163,-425.641832538073,-1478.75394561881,1527.84296000665,-773.508056257925,1461.71221114906,1691.64832279629,218.385737979889,-3618.18897835036,1157.42339992535,-1703.60939304916
-524.63584893339,-822.100835589638,-408.741764694076,-510.509881082766,-1548.03547171486,-382.467829737581,45.2048448017415,-1144.72145401042,-280.159666307763,-677.010378677424,-1356.99981174015,435.723822812145,-495.322250808276,-360.611133307883,714.366963229922,-126.16456408963,81.6402072751355,61.2742467518619,-42.4792940147349,-61.3688291259681,0.872011282524259,-193.288480006738,-35.9567926358564,56.5351619728862,-103.744837603687,41.8661385787769,-126.77503509538,-37.0148471237962,72.8777445753711,-48.4573758751082,26.672567483306,125.664745351631,181.999114796525,-100.431995337231,-23.7032537121443,52.2500735868548,114.351777401636,173.347379279944,-52.3361503219667,11.259469514426,55.0029028522685,120.704378604898,-77.0875896655855,-9.98675912163768,150.086458187758,-183.458088813631,-1347.52646872697,-623.417779158992,-1188.67429819834,-1414.31529486147,-481.900883216356,-1427.33855563758,-99.5139659453776,-192.413131836167,-921.747087610731,-1461.09822540755,419.605930854281,-1116.78052058134,710.368321765614,899.912504040454,-270.306140935644,-3354.04516169195,453.546223861339,-1830.82346449843
-413.268741810001,-998.692786488829,-231.936879367061,-508.843930605955,-1806.82897797115,-232.207721688192,122.711507592493,-1265.03191222953,-356.519432229418,-802.912928326992,-1197.81993516454,355.136655036664,-691.918279715137,-254.850184374516,328.125380796373,-524.78657735615,-262.41658256055,-323.452176463227,-397.50503429344,-409.822843847601,-322.998642986417,-522.182154285342,-340.596768581805,-211.598436874827,-388.261094265582,-219.386844683754,-404.50955967807,-289.69934396692,-136.196698464347,-299.615338783855,-188.730653109908,-45.9886919887778,72.1340328282286,-328.306920657379,-232.064613187461,-125.111174880739,-17.6680657340668,96.1782721021072,-259.505397318854,-190.837642293013,-90.5383988510027,22.5735614850717,-236.71162476475,-141.637650313481,87.4400036181032,-58.9107279710321,-1591.10146961819,-906.706196769561,-1176.38733248997,-1882.03270092438,-1147.48314322885,-1373.02374045595,-794.053971640627,-1058.75231970332,-1176.76125768761,-1539.5677033484,-578.310087162337,-1286.58822398515,-176.036712016561,136.535635835963,-439.496566460887,-2930.83325711802,-348.576926717772,-1595.47790120462
-312.98239897048,-1067.54663329387,-12.1052010389544,-456.140645338921,-1745.19323556552,-41.724923414196,159.595528120157,-1197.76998817095,-337.48799590542,-818.298993626158,-720.962098027422,203.750038328154,-893.58197887804,-113.875884359728,-292.268950502891,-983.907210708523,-798.013302771984,-860.19752493296,-820.644825928098,-904.703782507655,-766.686294084347,-956.491610502452,-753.885640955627,-563.322687021186,-801.829021315742,-594.575658712361,-766.433224519422,-616.048378041935,-413.869333271678,-628.515143569285,-479.170391666732,-273.404255760769,-43.445502149249,-606.154568978929,-499.326625328719,-354.944604903648,-176.53587092494,36.5800451530441,-516.550809435918,-425.151860853494,-246.457917458781,-68.5861263199723,-395.666910340599,-259.929637855879,42.7368092081325,359.255734424983,-1083.85346251466,-413.098333396887,-441.651690807748,-1486.8422353963,-724.699935148104,-663.376999669413,-536.773910859121,-660.990925775266,-451.504155969794,-888.289805049542,-571.103225482575,-456.60368337509,-463.336344867018,155.234501875653,371.48692586548,-1718.52138885726,-540.059814414572,-358.959698631123
-316.277346692811,-1054.95373820118,122.692023696285,-481.157778994973,-1452.92658927132,85.5580087447863,53.9492361365273,-1056.87454626688,-267.636335456366,-794.441335859619,-221.026106420586,72.8104152416686,-917.201756849705,-75.1081223815382,-734.344239530726,-1142.71553727361,-1180.48629639905,-1179.36992109354,-1012.20332584676,-1224.66898558854,-1019.4523406587,-1242.42885553114,-994.498248099798,-744.494558971131,-1073.75861187305,-818.534087157987,-1001.11383593928,-809.968262188263,-566.77009201695,-830.408445161395,-647.187069463941,-400.867209009411,-86.124355135156,-772.203008470297,-649.261782556211,-481.736575339154,-253.528073978492,16.4373699051059,-661.334281294926,-541.619468047375,-314.914457670825,-107.894045499843,-452.234377927002,-290.720209256521,24.8323761378567,1134.32897932904,-56.8857113587073,819.182277511371,752.555708760096,-266.390367130584,638.212406585739,656.453978197965,513.239062750541,743.991777947576,1090.9080775198,545.212783245434,404.317054911822,1228.03270654761,166.368929741633,932.763437084707,1923.67232571906,271.154745116806,33.0418888512734,1302.15820230121
-695.233514051027,-1311.55029093277,-117.44939926429,-837.952190226729,-1437.91290704057,-56.7225119243367,-304.996349880755,-1181.2191596918,-336.464794046927,-936.685589744674,-164.067477280073,-103.866045047873,-862.273028547094,-270.081365756445,-876.744128690666,-1009.96073287143,-1282.6526565718,-1158.57864375493,-923.056688399278,-1216.6563934144,-957.49554116181,-1229.34745321291,-940.887594390541,-658.823264930661,-1020.34566418532,-746.231744330646,-956.296535703005,-747.275614969922,-491.50193946401,-763.844958455894,-569.268801887677,-333.486022804995,-18.0374783916333,-712.826297418791,-574.868457027831,-411.054288012721,-189.629299188196,54.1791222379906,-599.33292412513,-466.732334627351,-255.860321479615,-62.1247086456167,-379.002280584923,-215.084533410074,55.7821671923538,1636.64359576772,392.772574681534,1724.25201330198,1375.74816431509,536.035953567211,1704.9232609931,1502.54851161911,1417.28742595724,1754.31309556912,2174.22801952423,1589.78201078171,1295.65093611865,2460.98020618358,1035.00213223073,1478.12708282549,2916.57045610442,1814.12396706899,583.497513852399,1934.92243167042
-1326.77999089807,-1831.77788350567,-607.571210198792,-1384.2658317821,-1777.63905438602,-345.543373796157,-708.707043628578,-1510.49303088753,-465.316997240588,-1171.55740859101,-460.527501170552,-242.209707040793,-791.970759115862,-454.124860383609,-785.460525430821,-735.48695612741,-1135.83233837701,-883.546801413763,-638.01146230401,-932.83581507948,-646.635078881681,-945.649426063967,-656.404992171927,-361.25971704216,-684.149890532619,-423.215311455869,-659.462980431733,-447.851603156165,-201.971255892195,-454.859724886287,-262.663317626417,-55.4295785978526,217.20268935615,-452.102795946773,-295.652907710505,-134.132757365986,53.9495397622344,249.767164329861,-354.033420258432,-211.719203377878,-31.2002290216832,146.762924228466,-165.830999879954,6.4373825942116,246.994347905766,1349.36870921778,-44.7014488964037,1585.99904851045,1137.33658759356,241.179684562627,1756.19404399513,1144.10518194792,1725.2040842138,1635.40822454902,1833.15021094797,1338.72495884934,1489.64850473542,2193.64040948425,1429.97739653643,1184.89555838588,2420.11409514488,1844.34596721839,488.150029692886,1015.62888275346
-1684.5614741957,-2077.31599547961,-869.602872866212,-1609.82237292335,-1970.7180177054,-448.153891916988,-808.321772450561,-1595.39833892874,-382.422557996135,-1183.44527735296,-629.514065740312,-201.169998358327,-559.088316576479,-359.246048007262,-529.094528148423,-365.648080082315,-845.813487497825,-506.602507726682,-266.26407167874,-556.82680902499,-266.251860610381,-581.83159609643,-319.086964241696,-15.5165311268415,-306.791660466297,-56.544708882832,-317.695508167819,-93.9036795994929,139.313323924549,-106.193762298068,92.7528259117962,291.714671481498,539.532422393622,-153.478502662644,28.4125975217803,208.685193676897,381.644749966447,569.072347126252,-66.6997893418398,100.054605733025,286.423353373069,467.848218823746,124.472122932392,320.658702187415,567.210947480647,722.330151165064,-480.467612691398,952.762695617811,883.722517867023,-327.263335112173,1423.57736530514,425.78882371712,1976.2503028282,1162.52250547382,775.920945524451,368.965822250798,1540.39233119244,1036.43302183155,1538.64494060007,715.298538148955,1118.98422772177,589.804634481283,142.045458497989,-505.548404227139
-1524.25997699655,-1749.46946146894,-733.211266823909,-1309.99079648476,-1750.39152312822,-322.048947313129,-591.79574212431,-1279.88884246522,-118.360710729299,-910.027257589652,-507.943693105903,-96.2276849666275,-211.868456337015,-118.103443901638,-296.778643700613,-63.8790804681854,-636.054116247304,-263.930516802432,-21.4080481870898,-333.057578810476,-57.8722336600903,-383.813944696275,-138.586561595138,166.740492453761,-132.096095181389,121.993807700622,-144.087128344964,97.82897691218,319.837012415295,73.3886930148447,286.56453045269,491.156760131934,743.269826306402,21.1672940625626,217.254760474363,415.791000150464,590.825256941039,799.78429661267,112.117547463206,299.64603849277,509.895242728332,703.201044956032,349.655563928124,552.943179608181,797.896170271917,542.617445277815,-233.824657230742,745.531403545161,1251.75585151917,-249.293682534846,1541.25721900553,556.529719084263,2609.87460465748,1289.20148115917,436.228027885363,-346.283188589123,2019.6351752024,332.234253163251,1831.20100659293,814.855528854257,275.546369246217,-1087.60552278548,81.8094522923419,-1629.34007642948
-1156.17448874588,-1206.17991174826,-509.981733479563,-843.04469998293,-1418.77615201112,-252.373415343874,-378.304291790301,-888.263642947897,-13.466624948926,-638.403817232701,-309.621146034362,-202.015655632416,-64.5032567850234,20.6616687218122,-367.374313097818,-111.742626266109,-693.499794376346,-356.604253165582,-98.6430886616131,-402.854420182593,-157.631001503855,-459.257934437218,-214.653835479278,80.1542409100932,-224.927960856972,30.2040411500699,-201.764480991384,40.2100170155198,251.274245284126,18.2160458381135,230.113730819313,436.253508310436,700.896405675403,6.89888846159747,187.75505763064,381.879386175156,552.196665141808,772.124921139153,104.038950437961,276.894643692025,492.576439492757,692.419762713045,368.311322101572,544.870680291255,766.081746377321,861.743036551123,262.351733060479,1089.94184833151,1802.44586185222,148.47346527798,2001.76668213635,1347.54384939945,3169.30335376941,1829.52783610123,1045.14312066029,-701.877640672647,2518.4918536238,348.234300286871,2168.20213174904,1152.12609330103,144.407086311923,-2463.92086582594,132.853942887177,-2171.74214522305
-865.960564535634,-787.406878023987,-412.99005198402,-544.616214406127,-1225.57733774108,-360.025888124918,-330.498757076066,-666.204530687701,-196.993286060223,-557.328017335189,-187.234915175059,-519.875770105595,-205.855797248259,64.0111443960961,-706.528926601068,-458.793450058583,-886.973914437846,-660.808458997933,-379.074576948688,-624.87767966132,-417.310259400355,-652.861004468327,-419.700387883132,-153.618010313426,-436.855497997173,-199.242301206232,-378.322766712885,-169.457397850051,31.0670588644719,-180.31367934493,4.5908496329116,202.906327491081,467.553179071988,-150.54533248619,-9.53739767100907,160.891512307088,316.205921793503,519.880150130359,-66.27452355042,55.1752340720927,256.567871273692,455.290623386989,158.135961353178,300.42183922973,510.450235071117,1135.4487002145,335.864941278928,1435.28411566163,1877.41754377177,136.442771018305,2214.16675125496,1849.37342313924,3029.10156010489,2049.99541604107,1735.88876243522,-902.712075933629,2404.11049906478,497.507241690305,2098.36852116491,1182.24329863134,288.306469864576,-2958.77354484251,58.0090865949962,-2156.24066108309
-460.324935195953,-302.481487493817,-187.965411550107,-251.613053509332,-991.119126370961,-353.347463458226,-213.611513862821,-451.082132227995,-350.496321179465,-493.520680332215,-90.5625681147496,-676.505768861137,-325.394998935926,128.356615688565,-898.508452693626,-660.55393895499,-882.628733759885,-783.680950005458,-498.503419260699,-686.060556309077,-517.379515640447,-694.483014478388,-495.56844092274,-274.623877434336,-529.557089509537,-322.004995153957,-475.111414795141,-316.732418503318,-124.192828007506,-325.477863838064,-173.447644049317,12.0733188477088,264.370344460073,-298.171398081327,-191.439649900938,-42.8886680276145,104.110788252486,285.521686205819,-245.452664721883,-169.554905949663,20.1523278714474,219.770312793485,-95.1498186858443,40.091120520423,275.277767828215,1012.82586344117,-25.3214829632472,1346.67179493053,1466.22065030842,-180.818870846795,2016.9901356656,1842.72602837719,2326.26409291268,1836.60893105592,2016.53436019411,-784.298540043548,1854.70063629048,532.1000769697,1627.5597312199,1164.62394600518,526.988416485179,-2386.04575056992,161.979865267279,-1537.0343517951
293.288530767811,419.434602753142,414.761078037204,301.707369746401,-586.222884298964,16.2404628989981,208.408109194437,-58.80515283758,-151.470353447539,-225.805817607561,22.0354128379042,-455.970385240569,-183.260732211416,196.415959297635,-742.583815270642,-481.700066497564,-636.836746022132,-574.57679818971,-311.231877971668,-500.10812306277,-349.598440482808,-530.029903752166,-356.774855630846,-170.381889795622,-423.382140361867,-231.741996379869,-409.580014022225,-278.174985973864,-82.5618313580904,-296.045928250037,-155.999180602977,25.7003053858888,271.034142766183,-313.132647290753,-206.759548384314,-59.6537129958675,95.2443918152668,275.763817014662,-287.250238690071,-208.997403658576,-15.3512250797546,194.96083100389,-175.824348809724,-16.6648627636644,261.806437493885,642.809583321201,-445.890181469052,934.226016203281,935.008841773605,-266.933719178797,1728.39003961181,1657.28302956678,1744.99458356519,1644.63230098883,2052.06300906303,-325.744764716193,1521.85468824544,526.780192183343,1223.73915052387,1525.80132459582,837.853938414525,-1319.91057652756,695.508096357297,-642.138538089
1082.00043497818,987.538128792812,1110.121807897,887.571963475189,-315.008400514113,499.759819023109,706.393957003802,298.416539563175,224.70038831055,105.084499901288,22.0179484705217,-207.992986442044,4.02761909116656,135.362065744584,-608.838970192362,-262.498602482925,-523.661748713945,-379.500379257703,-118.973152296316,-360.54072782602,-191.72590665467,-408.985167038756,-230.808803284085,-50.7392009946686,-316.506873602058,-119.447828267155,-326.455733248469,-188.044365423289,11.1098320818275,-216.024895646595,-73.1434437785302,110.877177774114,352.964306787235,-265.860386613966,-143.476067342976,6.23832815159987,167.274640409213,358.118233072127,-246.908400065016,-141.958474269233,54.1845804122143,266.31219812401,-132.080001700471,45.9329331907306,340.939521165549,398.003934349134,-619.314524147154,656.840854296346,613.932393329805,15.9446896605516,1637.31456663606,1472.96231739969,1659.14633766324,1758.79194300912,2043.75591281362,110.245763385514,1641.53672501407,510.136966404549,1209.18944441809,2059.95319955307,1106.24816015767,-558.962590855968,1355.80231215551,2.2613075794728
1301.88607528444,892.450344747825,1382.62954190446,960.959896780941,-492.369643491801,673.048256666448,787.205980360689,232.246750287586,298.353704805938,107.106749157245,-284.276675874146,-404.499532307358,-162.797528331631,-200.567884452769,-910.111623441865,-454.819013499979,-809.471526462149,-573.514664010651,-287.921134356071,-540.467714312452,-348.55450367638,-536.749175456844,-357.289785351569,-186.842727265775,-420.017963496862,-233.043805758556,-389.029640487601,-255.089648753428,-88.5903416315339,-275.709733052674,-150.507213167437,8.91860359921108,227.995861754477,-298.612144985631,-192.723480196749,-74.7463724390767,62.1858589504441,238.654782955251,-275.51484571654,-182.348930559481,-17.6547795287873,156.88433612648,-178.558003235387,-23.4609009676085,229.558192625858,394.529647519464,-404.746791011714,737.792723609102,695.924520412344,541.732007778923,1677.43389213252,1427.36108298601,1807.1832140541,2037.94907311425,2095.92008551053,402.451767038071,1927.80271788333,652.989814130721,1452.78973572725,2307.5905501397,1356.3329647736,-247.176587649946,1709.55818161197,319.410977173957
731.359561889515,173.261581867213,1076.17584464912,323.546058661259,-1000.66580054891,438.426119708293,269.131043712903,-341.975768644266,-146.907028210094,-413.528323252537,-954.9869053595,-1064.38300129902,-805.449903227639,-886.781089081429,-1542.36928968134,-1059.87464197138,-1266.48041809138,-1059.58927924144,-778.076198463596,-908.447672785542,-741.72888509795,-781.80562969393,-656.877829937496,-531.556730462557,-653.266261879865,-523.665088657166,-539.911065673577,-457.841219390968,-369.4518925347,-444.273781710554,-371.453637797613,-278.984423363291,-106.334872518999,-400.386238728507,-358.297264246341,-307.822199262902,-227.033878446483,-96.9731053084527,-381.466838448452,-351.611961142307,-259.457670121028,-154.359067969402,-367.734688988458,-265.912769411776,-94.5070048927661,384.112962524595,49.9616389660127,910.341802028798,1032.44028370311,1130.33915705569,1567.74357053508,1591.91938261793,1754.2908138722,2162.29938516126,2208.93300763558,695.60831575814,2029.28551990123,1054.76575070064,1603.41888323943,2110.28948790407,1639.84014178503,-38.6715944985306,1590.57838800636,513.663517526411
-286.592195580795,-702.288721204788,402.822802803159,-663.690491716023,-1590.81166846565,-41.795622910053,-549.358813101215,-1196.77763870398,-891.065868888615,-1283.23340630414,-1929.16302145919,-1876.91733122822,-1705.11554071539,-1847.22112045538,-2126.39283825614,-1734.46838986015,-1529.97288413101,-1482.43282632545,-1257.54325324471,-1156.74163580061,-1071.7445217912,-905.106851795953,-889.4545850799,-825.241155119692,-800.705226781192,-754.437103636965,-632.114474534249,-624.298738071752,-616.334317417021,-572.398825463956,-561.155440467403,-540.606426423757,-418.256615931205,-481.590976618184,-516.979828988499,-528.473780747955,-505.641501277287,-425.508317761102,-488.888203311591,-527.377390088852,-516.322021105517,-468.478537921558,-595.961541694741,-534.536217177172,-427.540134884746,121.839634070619,299.098202778355,800.271709324926,1146.30498687829,1342.56101187365,1149.70647119956,1667.62795611192,1355.43093894808,1921.43498852957,2135.53745319946,805.344306991928,1775.18173986227,1333.87379030142,1390.11598881586,1537.12202049144,1701.88460534946,111.12152502261,984.021314953055,485.571081422714
-1184.09779526858,-1394.33453008959,-361.740312503695,-1486.52758140923,-2229.40136835002,-597.463546794877,-1232.67495027133,-2108.02098544938,-1554.68895514312,-2180.63729420942,-3115.97337452128,-2569.31554264343,-2520.23025623009,-2870.51489665013,-2491.90706609462,-2207.62496074137,-1566.75333399546,-1703.2274197707,-1547.28321295089,-1225.16064273051,-1235.46390595966,-903.752264609639,-995.104534663547,-983.875495211955,-839.376014932281,-863.690070391444,-668.332411640238,-720.618680069414,-758.819268041972,-653.173041290909,-688.045468154209,-703.577179980666,-629.905741657933,-557.418546304758,-649.59665180197,-692.204211477205,-704.327586268139,-662.457920998254,-607.089703617877,-683.510202173457,-727.153930519645,-705.045376455198,-815.637940048339,-766.321629204031,-678.542743047885,-371.359367945697,2.88021025429929,345.320588325603,761.768781627672,796.199986823453,510.997118747449,1342.91887675897,707.847543934926,1367.45149867715,1713.14815744668,462.581955793662,1186.48258424968,1161.20322672408,767.187221414665,758.202147758499,1300.6460411576,-45.6948107554352,32.1635611912531,40.6943100198288
-1586.35694802702,-1818.53648070096,-975.191634044273,-1899.1979505847,-2778.32564360741,-1075.83424539165,-1593.76328743946,-2852.71919540905,-1921.73541289322,-2852.6235360743,-4205.2578011878,-2985.45606573572,-3014.59094576501,-3698.50254751782,-2670.96312701913,-2423.84228749086,-1541.00742387298,-1800.88790477307,-1710.63679666739,-1244.6186006111,-1332.03648176961,-902.689702293268,-1064.76408581944,-1116.47946666454,-874.222096979378,-957.631426157342,-718.342203825398,-823.68877804004,-894.038555150508,-751.672540611434,-823.233019717607,-858.181436477471,-842.302376317188,-661.693947818497,-791.006611964811,-853.121788717479,-889.476126031781,-885.829777275117,-746.859135995395,-844.714478388309,-921.306251165079,-918.2183997921,-1014.21069334335,-975.981094312092,-901.059209235277,-895.372702587075,-647.839631814252,-225.777361532581,128.976898861963,-193.726716148677,-138.126904243358,784.662788213994,-40.4469239296459,734.41636475715,1174.97646782605,-41.2516112199526,456.324719048623,809.158305869831,-45.0025511403871,83.1694474782872,656.682619327841,-455.215388553894,-814.620570298492,-624.26540997563
-1507.04528085017,-1918.05834393024,-1268.40446061859,-1934.00830239443,-2793.84360419892,-1350.63507700264,-1713.20607112171,-3089.28403170907,-2019.27162492268,-3133.51279147898,-4641.89973527652,-3055.9702975002,-3147.04785560344,-4080.8816357997,-2642.20704489249,-2413.96779397086,-1459.17915726188,-1783.57771959359,-1778.3145983543,-1220.79066951422,-1369.8700427533,-871.073446315892,-1087.65905350285,-1221.35827270562,-872.873923526869,-1021.86676247285,-723.302907170395,-885.013875326989,-1003.73297589517,-794.962937481841,-904.451263894373,-982.865337967847,-1023.51503311425,-697.89119593127,-856.523565932702,-947.385573490642,-1018.46456931116,-1052.32712550034,-796.466256580964,-917.309461508219,-1027.43707157933,-1054.83294501482,-1079.26811626591,-1074.34734126177,-1052.06562865173,-1267.53212638962,-1062.03180269386,-676.841340175265,-340.081342381769,-836.438505321291,-663.532070314687,344.768794963155,-760.751006202746,172.020948639825,754.257321273995,-155.846935578201,-202.394108687795,634.905883524438,-742.899818016686,-266.158086271128,159.750824771729,-689.509250468302,-1131.68307383463,-1086.04043645818
-1203.38238516071,-1663.68261142976,-1258.63483451453,-1701.00348811458,-2119.47701546304,-1408.97585189693,-1685.97647768728,-2690.28952094913,-1960.57639774058,-2986.55681367895,-4240.89997614012,-2846.84146633087,-3007.3723795611,-3919.64801459697,-2365.15686059325,-2203.51762777277,-1235.07479045283,-1581.04182387527,-1661.48950969177,-1053.06897137784,-1239.1634822432,-693.954831284951,-954.169167663879,-1145.17749625056,-714.805559987076,-912.57987432042,-579.006897752621,-765.816069741425,-925.404426781214,-658.295110548832,-788.403963306122,-914.814924885395,-977.769572445754,-562.27376293401,-724.612716948727,-834.804207022063,-930.384897997637,-982.38254639911,-654.998846812893,-778.968444832233,-909.044751208267,-959.055108328414,-894.81957777951,-925.698470669343,-971.773789338296,-1460.04627992452,-880.469026735185,-955.529455003928,-508.632380439838,-736.56175999995,-1080.25622697004,141.311809809253,-1377.96216285224,-332.007149338867,402.349274097462,229.399425907808,-724.410621588369,598.598723718344,-1195.89969662,-407.471535058228,-110.321523788726,-429.386367645522,-992.823876211876,-1118.42620885794
-912.233109964582,-1252.53181593291,-1116.63752409565,-1347.8912014395,-1345.47119941904,-1348.67842023585,-1548.02847332491,-2090.68337718232,-1839.30318554644,-2639.30401466997,-3606.27643782218,-2577.81442620683,-2780.97858772167,-3493.17590175177,-2004.60289964728,-1909.30321907486,-975.624071229969,-1287.64103072023,-1402.74012242326,-804.748511698518,-980.678201186731,-441.856494764614,-706.948521702739,-894.718953803356,-458.128763462748,-650.67260486308,-349.404020052536,-508.145807838371,-664.45825371461,-408.981146728818,-524.306322460164,-653.189719699609,-699.661943104475,-338.415899337142,-466.575976529077,-563.405108652163,-640.724916341703,-691.145842608543,-417.324270836659,-510.329135005752,-621.477015992191,-665.583531060599,-571.314474887826,-609.931692623478,-679.544055976447,-1581.11704735046,-422.221248311034,-1160.67127701424,-518.452629408414,-242.544739105345,-1421.92608702056,127.613037770462,-1845.9525540318,-787.985971670617,75.9985281999986,762.221310636737,-1159.91716254521,542.61437386601,-1464.94740292601,-621.127350098624,-331.715168403925,127.186725074387,-841.119351040164,-865.16582003737
-774.700508057923,-1030.10711669281,-1012.15874687955,-1093.31765046072,-1244.81860459549,-1289.492568649,-1411.76065301071,-1906.05446778038,-1771.12808105347,-2477.52122407506,-3506.62500602329,-2474.41380620784,-2706.01477041416,-3313.17637419075,-1850.08843270379,-1771.48933175937,-921.190918958195,-1163.25521540048,-1274.45660859456,-708.911546870316,-851.813608241931,-345.308579573174,-586.184472236792,-749.353048609539,-340.250483276205,-498.78569106647,-235.439885415123,-365.680732944618,-502.498583174419,-280.272497516655,-378.831067348451,-484.212636100523,-519.464714801412,-225.916754856038,-329.2397703944,-409.28405702519,-458.891463504726,-514.822465352219,-298.436620268789,-370.203298209466,-461.468397903142,-492.273180571013,-414.214887679685,-447.809918041641,-502.441002424669,-1681.52155566044,-320.89160701656,-1359.07100762064,-565.174311527496,33.5615877735204,-1642.25415040161,196.049458642167,-2114.51484491744,-1176.87587126436,-159.860988729479,1050.5800631388,-1583.04825449435,432.840913569826,-1702.30571229235,-1053.87183481428,-621.89771319385,414.632342505958,-1034.61544540767,-681.133578959638
-815.305290012383,-1099.82016793922,-1003.20058685581,-1051.60778986873,-1885.84952319276,-1284.05386595253,-1397.39122436745,-2215.03468669149,-1826.419836726,-2628.34234918283,-3979.82092827461,-2531.01261955131,-2846.40447426969,-3554.92076565784,-1945.20973705072,-1898.76269875176,-1099.68953673625,-1304.58937885112,-1448.54455071442,-857.247210719365,-1003.91601892868,-485.318123240116,-725.061073212277,-908.004962822437,-472.624339919831,-635.774328304302,-326.834435264841,-486.803409258637,-647.603336351919,-386.555654899863,-514.12002581561,-645.033272664905,-717.098629948772,-301.378219014241,-442.010623972624,-555.916578111712,-635.742311921356,-730.721998848045,-382.305929931018,-492.145424761325,-628.67108474497,-685.013085311996,-579.96603131348,-638.628006475499,-717.153865779409,-1627.22104284818,-684.131667659542,-1446.24850602043,-689.400718923095,-106.905040573052,-1671.0117024336,195.895024663971,-2141.30878327042,-1473.81955329668,-300.962588076326,978.882336150853,-1958.32300329563,299.659825698294,-1976.59264511234,-1578.68943787983,-861.272835125717,192.233097742596,-1526.78699156344,-651.842051620209
-854.320404149478,-1184.70646733551,-970.275909122709,-1057.12185729929,-2613.21211175178,-1244.508428215,-1401.04341568467,-2513.34291290696,-1873.76929327455,-2791.93051493047,-4396.22536981242,-2483.09530246281,-2959.15658751284,-3833.9153922452,-1979.40388461179,-2066.5354013558,-1237.39562291982,-1473.28470182394,-1706.67420487313,-1039.06503296148,-1233.03202265034,-670.834057972837,-939.28456519631,-1178.15111944611,-679.153854410705,-889.630962129828,-490.829154572171,-706.121477803144,-926.353503898744,-580.526748818791,-764.217026397273,-971.499922247187,-1118.9116060796,-440.422676197154,-649.250262048313,-837.333606359042,-994.52486166577,-1155.3471363095,-528.26310001945,-709.463281914395,-938.502112209347,-1065.31478195428,-860.62604289234,-978.43266415472,-1146.61410651972,-1266.05591731893,-970.194974366558,-1256.06149440396,-758.681922464157,-344.260985467962,-1463.87246362763,68.118283801246,-1890.64262782828,-1528.82795508201,-372.055074235307,725.824411120614,-2030.24206432467,232.514112744278,-2078.02173019121,-1833.61465044509,-806.778164060753,-119.113430298656,-1861.65228075841,-434.807117962627
-671.622291135866,-1033.84257711851,-733.34859353719,-890.85716728376,-2888.70012456204,-1032.19103515552,-1205.89687314428,-2424.46125699307,-1724.19827014924,-2672.50085794748,-4331.94554897728,-2145.24818943274,-2815.92695678633,-3755.88268482123,-1689.63747780254,-2001.48913239513,-1108.21497209225,-1401.11763400906,-1719.27377698943,-1011.14805396894,-1241.96045683113,-697.388892050859,-966.713944333411,-1225.55798158892,-725.954600485524,-957.298088745702,-551.61789741711,-771.009247828678,-1013.2601228585,-651.258233001231,-852.173550944824,-1097.5710565975,-1306.89968348836,-490.891920206566,-719.781710589966,-946.866583182248,-1146.39075887827,-1355.68437022137,-565.594208807578,-775.56446346731,-1054.46614274966,-1240.59368375095,-946.920120905408,-1114.28790295096,-1356.82014878607,-680.021452403423,-894.104866776197,-829.538319155363,-732.773815729827,-458.863676618689,-1055.62750012606,-166.386261805592,-1419.71774825859,-1219.25008736949,-391.72290538057,433.95076883719,-1648.88945797529,287.453527287782,-1794.57548867069,-1621.87810803702,-432.219599996954,-48.2353148635044,-1705.03105978751,170.823595765559
