-0.724964379192938,-1.73991451006305,-2.97235395469104,1.66741807214376,0.434978627515762,-3.33483614428751,-1.30493588254729,-2.75486464093316,-3.26233970636822,-2.17489313757881,-1.01495013087011,-1.81241094798234,-0.217489313757881,-2.02990026174023,-1.88490738590164,-0.289985751677175,-1.88490738590164,-2.89985751677175,-1.73991451006305,0.434978627515762,-2.39238245133669,-0.797460817112231,-1.44992875838588,-2.02990026174023,-2.24738957549811,-1.95740382382093,-2.39238245133669,-2.17489313757881,-2.82736107885246,-0.869957255031525,-0.869957255031525,-1.81241094798234,-1.30493588254729,-0.797460817112231,-0.217489313757881,-0.724964379192938,-1.66741807214376,-1.1599430067087,-1.30493588254729,-2.02990026174023,-1.01495013087011,-0.434978627515762,-0.57997150335435,-0.434978627515762,-0.942453692950819,-2.02990026174023,0.289985751677175,-1.1599430067087,-2.53737532717528,-0.217489313757881,-0.0724964379192937,-2.3198860134174,-2.53737532717528,1.1599430067087,1.23243944462799,-0.144992875838587,-2.60987176509458,-1.88490738590164,-3.33483614428751,-0.942453692950819,-2.17489313757881,1.44992875838588,-2.89985751677175,-2.60987176509458
0.547364644724284,-4.26855057244733,-11.4213835044173,11.6816754857281,4.74633186751599,-11.5464315906113,-2.92955128713815,-10.3169052342469,-12.7248628428328,-6.83998930238451,-1.19109332120693,-5.62749464740113,2.08536499827857,-6.29699429005572,-5.17402777437259,2.10385324379135,-5.31902065021117,-10.1349358673828,-4.77602563788239,4.74633186751599,-7.94446757255486,-0.594090116471633,-3.11006410987047,-5.49953347294349,-6.89399749479103,-6.4604754114071,-8.52443907590922,-6.55000355070733,-10.4434098645728,-1.37306268807108,-0.865587622636025,-4.68504095445032,-2.27708334586451,-0.376600802713751,2.73783293955221,-0.757571237823003,-4.21454238004082,-2.02407408521289,-2.63956553546098,-6.5144836038136,-1.40858263496481,0.690900976431041,0.292898839940841,1.1258796039468,-1.28207800463901,-6.15200141421714,3.98584754142932,-2.38655627480936,-7.25502314025566,1.86787568452069,2.99084220020383,-8.10794869390624,-8.70495189864154,8.9112356875458,9.32772606954878,2.21186962860438,-9.4114280323217,-5.17402777437259,-12.3438924077235,-0.774602939203949,-6.9124857403038,9.99722571220338,-10.6424109328179,-9.26643515648311
11.5976021863332,2.07167593194864,-15.1902927961495,32.3360515390352,16.0335682052688,-10.5584940162503,3.09747177199282,-12.2871972409885,-18.1376069369702,-4.14954901624459,6.94880657060689,-2.75148137985699,11.7976593570054,-3.37312395675803,0.010259779559425,13.0754083552741,-0.387742356930763,-9.76867573547678,0.171193388797883,15.7435824535916,-6.61766594388987,7.22645520342423,3.9685199950054,0.91828449359759,-3.14329752414037,-4.83138577775904,-8.7171495552857,-2.12110529863619,-12.2049111963222,4.57527794093374,7.78069636663178,0.922979076118703,5.54094932747236,8.185940597756,14.6036191020814,5.69569694450397,1.64539594319872,5.15888792438205,4.25595823456969,-4.76758797860554,6.06181761419442,8.31604884262187,7.57514373002905,9.87253744168893,5.76204225577032,-3.33760400986429,14.2976577514505,3.29392532812502,-1.98117258146948,10.910670400593,13.7865790714754,-8.65589926824521,-8.35357639770815,25.998111567263,26.4218440439001,10.7004231814691,-10.2982775265186,-1.14968322714928,-14.2699309632515,7.01005685764743,-5.2910037774405,27.6234581241554,-13.3365763507713,-10.0452682658669
26.1494442883508,14.9224564777212,-7.23204260205706,45.1535238913851,25.5041182302773,5.61796556650311,16.0115526944664,-2.05121878489355,-10.9397144655621,8.10661759863542,18.826049609352,8.70021579433998,21.8549505361909,8.2921447111155,13.7923286018823,25.1607831776023,13.921380744321,4.1798416389705,13.4374082141462,24.1281424539426,4.48228238053882,18.646907094588,16.6781851177815,17.8844162767664,9.9367911415141,5.56737454103926,1.7930725245958,12.536467356472,-1.09533150341646,13.7179557011706,21.7573771478484,12.8400449349455,17.2580758866577,19.4120860031958,25.1839256383972,14.9256750391546,14.1768164153681,16.561709066951,15.7335036199443,4.08556981753913,16.3749643830877,16.5142840777698,14.1172529128362,18.2820759983878,16.0545133415034,6.00814422074265,22.0160368820143,12.2126888096488,11.7079477039242,19.8388439374424,22.6410844679462,-0.704453590529681,1.86415828730752,37.2919498842955,36.3694006137502,16.0106515996231,0.764815408601907,8.43341837238187,-1.51234019815531,14.5886089841637,3.01050623653356,39.0219481842091,-6.81198897275365,-1.28466406663223
26.2922056599844,14.508905743261,-3.09415879548248,33.6145120264511,21.9737913885814,13.5598173064379,21.2912486846493,4.37977125606745,-3.07990641704761,13.5405718927601,18.0083736268908,13.36185470125,19.7892741415349,11.7508297028107,16.7993728247794,22.2866929804023,19.9801977472361,12.9377690976499,16.9163450391107,19.6974334345475,9.35685895813276,18.8661967611163,14.5965993574631,22.5842306194839,11.7640199260429,9.34152832803522,7.08107916103002,15.2824720042752,7.3981739816903,11.6013200769956,21.7011845791125,10.8929577804787,13.238471153237,15.630232311033,17.4799808892728,12.8462327295189,13.796270159153,14.3639226645597,12.5821661263602,4.20266324818123,11.5472532993456,11.746344899206,7.2216496526442,12.5686381923078,13.8816096765708,5.01990188429634,14.4522349202508,8.15843984425691,9.24772465496283,15.8270961060075,15.6066575794807,2.39338513115705,5.52825119129088,27.124931985778,25.8452610643893,5.59601533489718,9.10402074916336,7.43947520385913,5.83066008357979,5.71729288028415,2.81558457191829,28.9485764210374,-5.72857113007327,0.423296777612226
19.6603704431225,5.29618302899464,-9.84555535430225,17.55485892779,14.2064171914249,6.75244084578897,19.1664137638128,1.60127345760759,-0.923083362694482,10.1082873306791,10.7349177357669,9.02049461634919,14.3111372978396,5.73520858527835,7.1732239353648,11.789752814653,16.6474671842568,9.50703699584675,8.84286829679354,12.9150359991223,7.21509970306196,12.5580728167686,0.778557364640204,10.532551806184,2.68631836458854,3.64949067551778,2.27877531615833,2.85145029682373,5.5041606732992,1.61148378383215,9.06580248133196,-2.32154336817288,0.358102089536567,3.24894651172417,5.91488333744422,4.56073529122582,3.02307143819232,3.28533933776308,-0.64521008402911,-3.27441328046081,-1.78553072801285,1.26340112523462,-0.923585412170269,4.35307470512175,4.74630978716044,-2.55352505671237,2.97078487987348,-2.31647624300927,-5.47147864497573,8.17539490360386,5.77898928542644,-0.987943195669548,1.61453484414192,11.6359652097728,13.7098672874445,-7.01787081661924,7.01362044098132,-0.129851904253317,1.2650401701032,-4.18144957229929,-2.88284009501458,11.1390355758235,-9.21401159788439,-5.42084899383649
30.2663968490468,14.3961903658241,-7.18779659525748,23.6909141342633,20.1125316943897,11.7060540663357,26.2354909981389,11.1549268098192,9.84578160911071,17.7730225428702,20.2175932417305,14.5353006948199,23.4351918136266,12.941561979953,10.1375760839315,18.1840721816174,25.3074630491376,15.4763090520759,13.1265882328458,20.8796313642624,18.2743660148881,19.7299349860802,4.75255079945443,9.27350824767899,7.73023111272273,9.75464541276377,7.22352149399903,4.17933974853063,11.0471551520132,5.16677755446827,12.1076968388506,0.698135403090853,7.5944742184851,9.77214906851297,18.0166535072996,11.9171029801211,8.21998548342287,8.56841366699564,3.28388139119117,3.52723921563586,3.57456295177449,6.13558271369552,10.8686568417741,16.0789013027219,11.4321172541384,7.50133738423145,10.5106260901225,7.23077801973611,1.06141872092853,16.3711981063021,15.6603738375279,6.13611053531733,11.9913067218932,17.2744551294479,22.8822184742386,2.97107916562635,9.65770530982844,7.94273279649017,12.0552114402882,16.2191768146264,6.39016540602205,12.046254650422,3.80399172785867,6.63454179570213
57.0260842494882,43.5666812801064,17.832556083942,44.6180455140032,41.7383207550761,37.0804854533759,46.2223930002069,41.4399043162072,36.9185313373075,43.6611514694131,47.3334746711428,36.6594759985789,45.2929191408841,40.9715805081691,35.4706731999421,46.2851605773898,51.8880626227895,41.6427682547147,39.489994523636,45.5974036934432,46.2586881411781,40.8031999545294,33.7105548554114,31.4265283904707,27.926409756611,37.3109826785234,29.9281642955894,29.4688483883326,35.0206106127581,28.6353857965312,39.0898713575148,26.9931873541246,36.7662005031516,38.7893284056429,46.8179638526032,36.5324266467307,32.3651047877018,33.0915614768644,28.2111997790859,29.5259108347019,30.4556716760952,29.0264896790309,37.6574484310529,42.666399306494,36.0550652631553,37.0613111986974,36.1197538375813,38.2830890696008,32.7010882368971,37.7926360944776,41.7549636339338,30.3288794460792,40.7270075053273,40.7562528141705,48.086510241565,34.4035746746145,30.3112565366838,35.696737602442,50.0770165403797,62.010030640259,34.5126231444101,36.9433295214724,36.3381603224049,42.5152944573105
76.5871715229188,67.9380920716946,48.5057610272768,57.9114142301018,62.6426038114672,60.6888548200503,63.5994700684905,68.9654530767133,64.4530283308842,67.9984828553468,69.1051551163708,59.1956382491297,62.9610984313975,66.5249323238378,60.0189900324865,72.4650141279658,76.1777147483869,69.3287774018371,66.7510162226061,73.6653909477227,70.7842845060182,56.7588610435886,61.5201836924306,54.6788720045856,42.7803395494049,65.6101612412786,52.2265499793386,52.9723671926782,60.9592202231954,54.6011830118837,64.2209051495399,54.0437970050945,60.0746200103417,63.1806271252835,64.0273112849572,57.0297804519268,52.2299399502488,55.058228166019,51.3037897584874,55.7707683485898,55.111008516063,52.6789712873831,58.4537648289678,60.4594164735427,58.3007994032317,62.9274847617369,58.2837785829436,63.1993624247966,59.448955277276,54.001071680176,64.2986689506565,57.0467558390431,64.4318127004035,58.492496322072,69.6799391151107,62.0925733752205,58.1235699513054,62.0640117351778,88.9387346322268,95.9673202121202,63.2706836492524,65.4151429109543,67.6228819477273,74.5390705509435
71.4121884573952,68.4130753969815,59.574600203408,53.8411714248063,63.4532278637291,62.9722836477163,62.5018701270146,69.4005044502669,70.8149991398004,67.382445224689,66.7791763461404,64.1479796630133,64.5608730672974,63.8414655967399,60.7452300770791,70.7592457198141,76.1090898792458,73.6409526913578,70.4053442520337,83.2357482097003,72.5118606912455,55.1812643513585,65.1863943134491,55.3127844871078,43.8157589768508,68.362588680463,55.6487331282865,51.6082118201063,66.0659908328475,60.4857587183682,64.0097894159993,59.5518746997836,58.0007166554084,60.9431556608923,58.3184729933921,56.5810113408514,52.2840155011322,57.8867624300348,53.6902248263122,61.4266083529416,57.6778389001375,58.1973500794756,58.9640458786684,56.1030685693394,59.7695865676159,65.5642046066181,60.9713252515955,61.1432380151118,60.4555435172827,52.4185014256986,68.6350192694869,65.1090463184167,62.8163750581259,56.7446377234319,71.2728575656553,66.9953187114344,66.4877320501676,64.4710597394025,98.6151427491176,91.7264487708744,67.9684519698547,70.4869276598446,75.618792326901,78.1680602831749
45.5205231304225,47.572473338605,45.6513040656747,32.8661257965892,42.4373163611288,46.9279211376566,44.6560756504408,48.5034222206018,53.0053997893102,44.2645255764879,44.684258855868,50.8371141243272,49.8640227070562,38.522057087732,42.4232181812009,43.8471907659267,51.9275589939167,50.4854206749578,50.5470816291546,63.4631143449389,52.1793436891858,40.1570478620731,47.3111168275825,35.2328233540965,34.923231980438,45.6531017904553,41.9009642002829,30.719503860827,48.1722074700286,40.3071864102452,41.0601325009047,45.1453127153194,37.6781851137396,38.3901882656701,38.3181510040215,37.2448466604145,35.8801774415728,42.7281159750285,35.0952209460457,42.1179916457917,38.4166656407193,41.8059256605555,40.0466642137613,35.2566019421828,39.9613900523951,46.3735121275489,45.3361576570387,39.6131558165326,43.2753070870259,33.5374151611828,51.4645997013617,48.8393122285847,40.935802104372,40.1088369665806,50.0617145024253,52.5615433428781,48.3639160071307,43.921698144774,77.6791101317782,59.4115885686913,43.303963882169,45.9508772560675,56.4198353373245,57.7408645316128
17.1894042372306,23.7481205295613,21.9015023420575,3.46639546065727,16.0973639793836,28.6289390192741,23.6961502142162,27.2167867046569,27.0775980690718,19.5188011857348,20.7603026623472,30.5542724748774,25.1336325231331,17.5888778526913,22.0887192427118,16.8877070963011,22.662074782609,19.2092320556801,25.9702644295349,29.895535621091,25.7101963686559,22.2448080445409,22.160115642538,9.86530036171381,20.8047024985953,19.0325979811873,24.76713943415,9.01915404432235,22.3649648437016,10.903994612636,12.2499225769109,27.0232788751905,15.9887991266113,14.58927222083,16.8718832362272,13.7234390954453,14.9482944534969,21.0653540135148,8.61954627387566,13.9707376261767,13.7657987467515,18.0300830828604,16.8054115051225,13.4860022526008,15.455011022063,23.7509127606615,25.2787584383626,19.6788396436009,25.4910193190816,9.21095605983548,23.9429027064031,23.4426857818604,19.2952286786504,19.9573977516915,21.8477809750385,32.6130403973952,23.8337610479855,19.9757099174594,46.5995184132209,28.8357295218199,14.0610502289013,14.4080286664689,28.4045592663316,31.5687883815349
-4.59312539115086,8.9897461092208,4.88282350081859,-18.8876106014027,-2.54031149136323,16.3292281503268,6.59426593322853,11.7855472117671,9.08107628125406,2.71739966499652,4.03502292184459,11.0384236299985,0.489678405655893,10.1316634510356,6.77990055415747,1.40584919647583,1.92829144388311,-0.608936419417903,8.22625692180755,3.79781370100878,6.39039396874822,7.58697368515362,1.03824019898227,-9.33252470458982,7.10448055763147,2.13668911431715,12.3535197253035,-3.90402494614448,2.99151996125263,-6.7078235271915,-9.4795274721374,13.0072207438368,0.126966126134449,-1.23021765798963,2.93260924421375,-2.0650479809577,-0.683217264520338,3.64261797869435,-11.6165281672182,-4.04755441077887,-1.23692685866322,0.909100836396689,2.7904239916398,-0.580416948603643,-0.131242880212203,10.3480238977473,11.1492704815643,8.60820806389582,12.3014481156197,-7.83775664022292,3.47679046271237,4.06349928118552,9.66457736375956,0.741028108905548,4.23079945284799,15.7220277044892,6.99859484098289,3.81428299508324,24.000290337485,12.5829430980856,1.87762096425359,-2.58989275393561,10.7876686687284,10.2292715818263
-23.3409645977989,-1.73321073700469,-1.30765651254224,-27.7003231309363,-13.1679932125289,5.44952082096202,-7.41006715544748,0.663431734600183,0.0905296382669206,-9.31580003199746,-7.56523688868088,-3.91497186373422,-14.1569969225978,3.95792562115833,-4.97415636147955,-11.6827267976299,-10.8327895678895,-8.54889073104726,-4.74162389962468,-13.9687259170552,-3.09505235362247,-3.79189487599192,-9.57643363978582,-18.250167671583,-1.29673235925072,-7.32801755840694,3.53930627615961,-9.53666757140808,-4.93337255893685,-10.0792852717314,-21.2396438437489,2.14850023711135,-10.5393100582267,-9.57955905000257,-2.86973389172105,-11.4940208338538,-8.60411821797761,-7.17133909660414,-19.3838713284612,-10.1827486576765,-7.16765278709775,-9.22137096925057,-3.43921250844671,-10.7295204529579,-9.75005083278428,0.980056313441316,-0.0607017710552549,-1.27116079618705,0.582473179205528,-16.1867656010447,-6.39047949862528,-7.69588103144042,6.67585962761532,-17.1867374497732,-1.45870516594618,2.69938193348085,-3.78264085955814,-7.53945119672203,13.2785601140977,0.625154507787089,-2.76858623201726,-12.6107029429915,2.26863033560656,-4.41281279455897
-38.8293511961447,-14.9608032345671,-4.17746616525338,-30.9841091796234,-20.7496413684301,-9.34426650637546,-18.052956073941,-4.75360669078287,-8.16127405670531,-19.184084522014,-17.580359085577,-12.5392051644995,-19.5571894819841,-8.03841178182013,-15.369277750517,-26.7282455198567,-20.8110897448331,-16.1613133440187,-15.5690620015807,-31.4057120328711,-8.57386810119566,-13.9313293710883,-14.2618857403584,-21.8759833038068,-7.41743819288544,-16.5975913245862,-4.77052548693842,-13.316267488422,-7.37051883688476,-12.9375649032817,-28.0793825616965,-7.12688478928859,-18.9258158910358,-14.9625198611271,-9.17836645499518,-22.1689721140635,-14.2311387584021,-16.5323147133342,-19.8961655785497,-14.3013271012611,-14.8561566549181,-17.4102861532874,-9.19494011388484,-21.9110474746925,-19.9092141484034,-11.263158765072,-12.5565548629634,-14.4951503857037,-9.17255288429911,-22.6048124994188,-16.6360531972396,-15.655720002474,-1.68595301680252,-29.8868668674109,-6.86106296312864,-10.4605978398956,-10.4069970293471,-17.5863249494581,3.72499227415778,-16.9012862488359,-17.205096415605,-31.1540006500711,-8.21612561081148,-13.160028767135
-49.4478004950821,-28.4590403030004,-10.7175897493214,-37.1058910505987,-30.1870254727115,-25.820283558792,-26.1150103689041,-10.4354204387253,-18.9627741976794,-28.7935834467113,-27.7200454500844,-19.5370607450205,-25.0653877656015,-22.9529147240521,-24.539906063197,-37.7590737177575,-31.5358959017745,-28.4457967045415,-25.5345375421974,-46.1580112082027,-18.8183853606881,-22.4485542021164,-23.4471710369254,-29.1240018859668,-16.8039606486702,-28.5315042453118,-12.8733013027865,-20.5739557525401,-13.7509834560248,-22.7938666796829,-36.5642778972381,-16.8270234407306,-28.6372152441972,-22.9270585893843,-22.7428493289439,-34.4592473365647,-24.6513766188393,-27.4141564953842,-23.9866246872886,-21.7418607476736,-28.6410998475891,-25.4458099641895,-16.4741814647527,-32.7140745326828,-29.19629582466,-25.7529971218313,-23.5023495709442,-28.1002559329961,-16.8676594770095,-31.8553815448985,-32.3639274583759,-23.0270704233424,-19.7188077103119,-37.742111813404,-21.0839152041262,-25.3742527398089,-17.2639122531439,-27.4282287147531,-13.5033283024049,-38.445063835407,-36.0946735462523,-49.9688718239359,-20.7709393212149,-20.1444280733873
-58.565072646778,-38.0258887014742,-19.0073267903145,-46.4841050361589,-40.886984836003,-35.2923846313649,-35.4335468064685,-22.4165679049541,-28.5801359536204,-37.954048396511,-35.515230036736,-29.5027821532119,-34.0085050629179,-36.1289443569449,-30.9689623421131,-42.1472861152308,-41.8571428490617,-39.0859786499114,-36.2623457202076,-53.1344793016395,-33.4076841175445,-27.2484642309236,-35.2450594676433,-40.5059201884256,-25.1277488624903,-37.3120738674043,-18.3853153438965,-29.5347837569879,-24.5322721810272,-32.9639766758582,-46.5435905980589,-26.0976926881082,-37.6441344669064,-32.7406474512481,-37.5084239468792,-42.2932314685681,-37.397298633034,-37.223949928397,-32.3402335706198,-29.8246064475824,-39.6741447387558,-31.8083445206218,-24.728245946858,-39.5905121977496,-35.6780869841667,-41.1061913842831,-31.6220672718355,-37.381551151557,-25.1062169141419,-42.497924891275,-45.5714403342138,-30.2995950066913,-37.7897303216377,-46.4296484189894,-38.8472448443604,-35.7431736302558,-30.6272500513293,-36.2395768388896,-32.7208289862941,-54.2586798386032,-43.042507757349,-54.7032558735031,-27.9056664011874,-30.4151492773983
-65.2874031369289,-43.6613429223744,-23.4072684196851,-55.9508449959385,-47.4121488769547,-33.9163167272263,-46.4711034774626,-33.4944758588283,-35.0202406776551,-43.8367904073303,-38.636983403598,-39.3236316871534,-41.6258072840494,-43.5749058967897,-35.5427259772142,-43.4992768360888,-49.0374582857519,-43.6951388009287,-45.8289079094616,-56.8137971443566,-43.6538140409124,-29.8188539188111,-41.5418607986555,-48.0748069346952,-25.9150147732587,-37.5017403167183,-20.8210533919886,-33.0314371176089,-32.7624410101817,-37.6157999644737,-52.0242301297245,-32.3831838768553,-39.728360063424,-39.6461281999931,-44.627538265662,-43.4815644944048,-43.008974114563,-44.9727874661304,-36.3559806373589,-32.9314016961346,-40.5067385392675,-36.4415577695996,-32.0868949123862,-42.1141003775493,-41.2885546845194,-53.5332362512443,-39.9676506313194,-40.5573557072958,-33.1586638380823,-48.8705861415197,-49.6604255512995,-34.3961346176962,-45.2831987600719,-54.4676069269583,-48.7021948011617,-37.7237706852312,-43.7468676443682,-40.6346438642388,-45.356802324874,-58.140088730071,-38.6788431559299,-52.9590091170619,-30.5471896583397,-42.6100731443822
-69.352487452602,-52.9637603962318,-26.8671457532078,-67.363119345989,-53.5332631369444,-36.8571832916862,-57.6986392699636,-42.7520430880818,-46.5396179880427,-51.2090146518358,-44.8040155261363,-50.1173614633458,-48.6506270013358,-51.2303520684213,-45.1376163560993,-51.991854349111,-61.073620971041,-51.387197847502,-55.8066824201469,-69.3372260977015,-53.723781735333,-37.1865622409445,-49.8930758818882,-52.2569250518399,-27.6290902181472,-39.2383711209049,-28.4097285856499,-35.458318187962,-40.3071074311299,-44.331425281236,-56.3360017128929,-42.8098009001802,-39.9282399923525,-47.9175422615833,-50.0449480287766,-47.1346887971898,-46.7534543023244,-55.0568498016604,-39.4250798337254,-35.3222425203719,-41.206505159409,-45.6558703690849,-38.9723072783145,-45.5997260142858,-50.013763704965,-62.4920295432903,-52.9894148066375,-46.8597213483329,-42.6996484809243,-53.1461446697308,-53.5371086276591,-40.3079020534922,-49.1311785565535,-61.854024708408,-55.2364039709051,-43.8204526902841,-49.8967606783838,-46.1966397042324,-59.2944307114994,-62.3541705955971,-40.7556967586475,-62.352361229749,-40.9637849232252,-55.9479449012324
-80.1281192328011,-72.7167300052291,-38.9912323484135,-84.6680869711412,-70.6526082311918,-60.729942453484,-72.1801412807839,-62.2208053173799,-69.9477147091459,-67.1833769427552,-63.9384553193692,-69.968844251662,-63.6943862342505,-70.4225243779841,-64.9893731562248,-75.2904845836266,-86.6002204831476,-70.528652641,-72.6034180772385,-94.4372874669829,-74.218697392742,-53.9549897779281,-72.2121369853406,-65.1673780466931,-42.7111297202265,-57.5311469121471,-49.0857185301414,-49.1945251046808,-56.7959079382273,-62.2128846457909,-70.4646676809221,-65.1744999829062,-53.0328092441735,-65.467583006933,-65.8557308823515,-63.1372624228065,-64.2997389518141,-70.5240884740737,-53.4343885823866,-50.9893640020492,-55.0192422463475,-64.3074057595595,-52.8989924817299,-57.4948242964022,-65.2016700807783,-75.7957169221836,-72.9200923887291,-67.1104048768749,-59.03537666122,-65.4251439562054,-69.9045556702846,-58.1577073380724,-63.2872553480411,-78.1099448568371,-73.7204554922578,-66.0322477339047,-59.5449503179635,-63.0939865795592,-88.2553376937513,-83.8323495014971,-58.9834865567727,-85.6951284934974,-66.5778119565255,-77.0115910270134
-98.5521758451803,-93.3033924820262,-56.7718934260375,-101.75098282299,-94.2782809079565,-90.7546749553537,-89.1794540188033,-84.7224481236642,-90.9289915034275,-83.1965427365094,-88.9145897182501,-90.7883672907274,-85.064830016625,-92.9264323557471,-85.8508162854908,-98.7822813016757,-112.341983229479,-90.0990229576569,-91.6334241255061,-116.537190612769,-94.5564430362412,-72.4040394938709,-96.3834292128011,-84.817952507204,-62.170927306723,-82.3019519264443,-72.2196021678896,-69.6341855815502,-76.5420262113688,-80.3804114693938,-88.6953013496604,-85.6977276117054,-76.521451163034,-85.3936435853591,-88.0145355693284,-81.5446686683933,-87.6851335153534,-84.5602567482401,-72.4816469675582,-76.3396158733653,-73.5708934410235,-82.9566019102652,-73.0656155013044,-74.9684655504464,-80.8449319075495,-90.1552786880347,-91.4395412030139,-88.661095679693,-75.6535329626463,-81.6853056139938,-92.4071513713611,-78.5217947115643,-83.2341929759947,-98.6006384167819,-99.0073688098342,-90.1444143810542,-76.1244061815071,-82.7222619878341,-119.654170586425,-112.767846925885,-81.0531315015685,-106.450819066484,-94.3921286807215,-102.412335524963
-107.728434201049,-97.8524096064249,-64.2052818980601,-107.716830002653,-104.443799770304,-97.6292893745503,-95.5903204062766,-88.4629173557727,-90.3244807024127,-83.2908005757298,-99.7656799871015,-92.5636009161274,-95.7916188047428,-98.8940602831891,-92.4981543534094,-100.252865721059,-118.79871459311,-94.883387071,-98.0437030029216,-120.173306444484,-96.5746006592849,-79.9666774699523,-99.7955473838866,-89.2981713748726,-64.7481449843588,-86.7224733233664,-78.6447269103891,-77.6506888599838,-81.5631744981459,-79.3196179373391,-92.8612019892732,-86.0852499387906,-87.6665743679704,-92.3632699192004,-99.5548371734351,-84.1385456328967,-91.7953946071865,-85.8144484492951,-76.9795052325421,-86.5837443469001,-78.1034560742014,-86.0373510496682,-83.7329445873907,-83.4228609155579,-84.615898271656,-90.5966030668422,-94.9333182926358,-88.959846014609,-77.8371088956432,-85.1195533721452,-100.993812446204,-80.5622705125901,-91.1358933395202,-103.006779823692,-108.739883003563,-95.2094492312486,-82.7458487729494,-85.3969374679709,-124.120802432094,-122.666735949434,-87.4868330207465,-106.475081106807,-102.791122262103,-111.675773315481
-95.3662605348568,-82.9691156397954,-54.5595983783042,-99.4973317219122,-92.7070743652594,-78.5269894652449,-81.6376284528224,-73.9417072251185,-71.3506621021519,-67.1218835132751,-87.6700794303019,-75.4364954042114,-85.7155810618494,-85.6658466895471,-82.852419143983,-81.029355302267,-105.057089348235,-85.3739420619737,-86.1374488808938,-106.795541954062,-83.0533815277897,-73.3600732779716,-81.7771123986601,-71.1322572291224,-48.5222289347962,-68.3343868455573,-65.096275823588,-66.2055291717666,-69.1534420706961,-61.332560008059,-78.5297097494083,-71.2411484561763,-75.0939738017085,-81.4115289271568,-90.6382232643252,-70.9452881045835,-72.1229873494634,-71.2414730570077,-60.9598916234837,-70.2416421047359,-65.4517597491658,-71.9828414551779,-76.5555617477941,-73.5905476629437,-72.8086266687494,-74.6590526560535,-81.0893844958055,-70.6932189556092,-63.8495109783896,-71.8042142349071,-87.2757998833845,-63.5926362577513,-80.5504619116286,-87.0950443913255,-96.031821788128,-82.9334361232088,-68.6128101968606,-68.6894742752719,-100.031760977409,-106.821382580918,-72.8725398608013,-85.620670979797,-86.7138021456575,-93.5012540499806
-68.3608162592464,-58.638621461491,-38.2569664147021,-80.6574312906876,-69.2519402657736,-53.5748137696351,-56.0213424098652,-55.8758485513241,-49.1300017999037,-48.0274743746622,-64.4089597716954,-54.0804504003559,-64.0332840336521,-64.0461320308809,-64.0967579419997,-57.199546612703,-80.8684437988393,-69.1339511912662,-64.8835369938921,-83.1129875565356,-67.00214221647,-57.6270554128472,-56.1681741363856,-47.5132985837627,-30.650516141506,-48.0820926445204,-44.1645474805909,-45.5451353345642,-51.1917323174589,-43.5663651675808,-55.2719092264902,-53.8978394037666,-50.7491202051681,-58.2195591994644,-66.5755703501325,-52.6960573844317,-44.8579144546286,-49.3170145097425,-37.2067651463193,-42.4953017502685,-45.8026613483407,-51.9902975084682,-58.5893092212622,-51.8870445946209,-50.817165651973,-51.5863316105368,-59.773003649291,-51.2589402146521,-44.6893217957457,-52.9976304523504,-62.0026590589469,-42.2794721842364,-59.2169661153315,-65.0718596118092,-74.4432247189286,-64.9005801351674,-43.7881550676308,-47.1559399985344,-71.4928561096349,-79.484130763868,-48.6667190456603,-59.0806243708557,-61.1125657737563,-62.6941461936267
-42.0385929415528,-36.4813057697092,-27.1536537951272,-58.0676296557458,-46.2683965126405,-36.7828149324734,-33.1316682302387,-39.2503561628845,-30.7045836280666,-33.5464605992567,-46.363018304466,-34.677952937665,-44.2323896946644,-43.3708143491284,-42.2043407434512,-37.3152886414267,-54.3923131248563,-50.3832943269261,-44.5757078630258,-55.5242040825062,-51.5298758669082,-40.751407061035,-30.8837332495469,-30.2880393680078,-18.7763035913541,-33.3218893831655,-26.79095371658,-25.5280111580208,-34.0835556718941,-29.1296174408082,-33.3075711384616,-36.1951086756982,-30.8890252406764,-32.5954274027856,-41.0976983859707,-32.5522791664088,-22.1289293146789,-30.8762746452428,-19.0828438376304,-20.6462922414969,-27.3576000482582,-34.5176797252588,-38.1885228350753,-31.7991288085573,-27.2590630557023,-29.5863133422337,-40.1827386119921,-35.5231745113248,-27.4982574558887,-36.1836346911095,-38.2267741695155,-24.2046551963266,-35.7435323509251,-47.694789214831,-57.2276398891938,-46.0713829760735,-24.4406319700327,-29.9598832220786,-50.3167488358725,-52.4874856637165,-28.710419766438,-39.4381021881006,-41.3745959787963,-39.1032210684273
-25.2073379318294,-20.7909019372118,-18.7698660403511,-40.2617196539415,-27.2740198460003,-26.6701853911151,-17.9215318086499,-24.3499253638051,-16.2699879289337,-21.4310589060716,-35.0602872833686,-20.3694475794629,-30.040179402603,-27.5393640722599,-24.1440559261798,-23.6800530101717,-32.7015434187416,-31.0573582269406,-25.5979177075871,-32.7062256264281,-35.5818628857692,-29.2582029960151,-12.5458460824169,-16.5936719509754,-6.38832753099387,-16.637889009372,-12.774982633337,-8.92987639806912,-18.7749096210389,-12.1926621155833,-17.611488260799,-19.1119519858496,-20.0418068920495,-14.2348950664372,-23.5877364672615,-12.1386568387979,-4.90549102973308,-17.4389142467392,-7.54628342343355,-5.55395541284738,-12.4696621392731,-21.8208992839316,-20.1180478872209,-19.4216439819479,-11.7565615219061,-14.5524083873102,-23.2780114423801,-22.6826416621569,-12.0763425381676,-18.3178644320256,-19.8878685448787,-10.1131807662184,-15.962068985093,-34.7122369994181,-44.310091978835,-29.965482074667,-14.6676068130978,-14.9763303989506,-33.3671696737251,-29.810492596703,-16.7564273256555,-26.7365653383375,-27.686536668008,-24.9928607412567
-17.2912362684253,-10.0742393926363,-6.70549438305134,-31.9437954049874,-13.9543102200821,-18.1087873973928,-10.7623551148863,-14.9413463509075,-7.37450369264162,-12.0658466900115,-24.2576813570299,-15.7389763924916,-22.6092688310401,-15.7381522314195,-15.484502716534,-18.169147546861,-21.5678646543753,-14.0845611785234,-8.01646581256892,-19.2055785103944,-23.945824963409,-23.3432110033743,-7.32675841874835,-5.73735620561285,4.04841662900125,-1.87388526051018,-1.09888189391294,0.440798346261906,-8.18921732375188,1.28041749175695,-7.418959168071,-8.16420918080461,-14.310944423189,-5.70064041504217,-14.2138119647733,-0.659642003289873,6.77490296406091,-6.15404066496297,0.656844086558494,7.2767366342667,-3.03983481213146,-13.6311334004912,-8.43680303179189,-11.2040029004874,-6.56558332680655,-6.14564283081614,-9.40625444367318,-17.0952858073637,-0.482555767334008,-1.33905166573018,-9.06305332321725,-1.92067800538457,-4.75910825536243,-22.7247864561826,-31.4566416727752,-20.5900867040194,-9.49261780274761,-3.4934569664838,-21.8886452015186,-15.7105003848758,-10.6554028923891,-16.801389661321,-14.4024477728134,-15.1764060346729
-13.2511891517213,-4.73718120778902,2.53106531558617,-29.5409008793956,-10.5690791104753,-12.9069396103842,-11.3100545950955,-12.2324787456902,-6.00537199062957,-9.55884578217074,-15.5759917119913,-16.2515600455011,-24.2823997431641,-8.17692867176589,-12.9857241754996,-16.9840397844402,-17.9227397600768,-4.20207188211145,0.359417080241012,-13.147658275626,-19.369825675942,-19.5283580680807,-8.82405342385382,0.866774808527953,1.9451296277699,1.85726490220639,2.85468301507636,0.734852060236841,-2.05407793324152,4.80725853122126,-0.339606444465465,-4.81939491451725,-10.9468714351364,-1.98734494444565,-10.6953998344463,-1.80133822877189,9.74086894976925,-0.130158178031563,3.92310060877374,14.7393228757093,0.393047780718124,-8.03044472099995,-2.91764686445489,-3.65845894914304,-5.12798758959403,1.55472866376429,-3.94640290944594,-17.5821328663873,2.33269763300086,3.91355765962911,-5.58648352378739,0.513551673369643,-2.24916511317453,-13.8421275759194,-23.1319686697463,-18.3244943146632,-7.18574126958412,-0.338836912478173,-16.5773319494507,-10.9240855508124,-8.12569355842801,-9.61208223905471,-3.56863568113049,-8.29292392485961
-6.58139947106675,-3.17119067961169,3.60272897536897,-24.4871609348821,-12.4076189002542,-11.072640419703,-12.1974587266197,-8.78928917387667,-5.17227240851066,-9.89272895887792,-9.90173415639102,-10.2604391242541,-26.393329106783,-3.31031346625438,-7.44431598389274,-10.5955482942957,-9.29826810900564,-0.164602088415101,0.36047818047119,-8.05093843057429,-15.0800816186861,-14.0388710101721,-3.85153259351845,7.59113141832892,-7.08880033408267,1.88001005207052,-0.0830408897846842,1.44145525393177,3.72748043227668,6.41924129070142,5.50215268711821,-2.87848080845314,-5.49946397360897,1.73556956382121,-10.41685501859,-3.1174169083686,8.69030893751665,0.176916637501256,4.30727874629749,14.4613932447131,3.98513347466671,-1.69766878846123,2.48184782496583,3.61439725236212,-1.78232093063334,10.5973739731931,-5.55132988729899,-13.6544846275237,-0.721526014560751,0.905695878511053,-1.70955494617914,3.80424471967958,-1.12349404023087,-9.45295731328138,-20.8075548292673,-17.209610724265,-5.12602671647614,-0.110595314420128,-7.81260203514693,-5.27300949105337,-3.08799170966413,-4.16555411819157,4.27664008885129,0.787887784182842
5.07758023850112,0.293048934404218,5.41673230358968,-13.9722142939988,-7.2804002461702,-4.11427008706509,-4.85192279226723,1.16196008025382,4.98641169002588,-4.41582768232382,-1.12322516905627,4.18868112385127,-16.3592845843304,5.48648360009399,4.98027510532725,3.71321830737263,8.97209979900007,5.44660039188284,4.93672835586165,3.14773560404402,-5.12103646662131,-4.9443168582517,9.99707489076602,16.9964458186891,-7.30997387145588,9.46939378268717,-0.991997638195083,11.0687187874457,8.97345262949318,12.8318903136932,11.605148649754,2.2937485115332,7.71403723131568,6.51134245996326,-7.90920895759673,5.42631155763947,13.7364575186024,3.55049190657021,8.39484852784923,13.6577227728265,11.420861510837,7.82037934408741,10.0531814408895,10.2223191604942,4.50380687830806,17.9807310333966,-4.87053046354449,-1.84948518245246,-0.0473755890228045,4.32560268049076,5.78002776309181,12.3129234857045,5.08120712112002,-5.40234726013802,-14.7741177196464,-9.29796768570588,1.95061704943992,5.74507916224769,7.77623889040713,8.4753807842291,10.4758140661629,2.39574571386163,15.1756645280619,14.9247785649316
16.3034874203036,6.89974772308091,12.4316233741607,-2.34050675441243,6.3626452293967,9.27406076649289,5.83302746003139,11.9657607205669,19.9257843017635,5.37192784490677,11.7625834650607,16.3595103244431,-0.40781118458363,18.3747636334635,18.2488388366021,18.5316265394598,28.5612754805513,14.4640733396062,17.0212422636878,18.1664867067125,7.71355585553205,4.76729306662438,23.703013485349,25.9991994023883,0.394335123926074,18.693035896349,3.61465600973369,21.6404791213821,10.8845143992243,18.5614224086858,17.3076761813708,7.79145922948399,22.344076889226,9.92056085178998,0.00535568768284689,16.2535463532198,21.3493108736393,14.1919915701145,13.2835788747305,18.0385376422525,17.1577434678329,17.4883776869793,13.4720568704692,13.9017072717849,10.9892774237128,21.8952051383019,0.570115823231725,8.61526863413253,6.9844811362463,11.8655882771499,11.6823301690741,19.9400953619667,13.2752015363794,-0.20025634824936,-3.34787418941972,5.03918121335122,11.8079207300851,15.4473506528661,18.5388272914732,21.5391334033303,28.0031821850419,10.9939541650954,28.9876633649886,26.4287010151979
22.7154672308684,14.6668867837167,16.2390701446204,9.50333835597754,19.9097096192218,18.2455019485633,9.60140217655151,17.2524844052514,28.3456633532331,11.3795167325687,22.2010484564853,20.6352581574413,6.56067802132831,26.7756053061475,25.6764875719398,28.0035168455597,41.2196097897453,23.596607317045,24.0778532790279,27.4866810418043,19.49632380638,10.0752651600502,28.6818884352081,32.4745934320905,4.30481427034154,18.8073734034024,8.42828489667334,23.3134660759621,10.1497994621424,18.788159581082,20.2926027026273,9.98751999116977,26.300065143422,8.45296859047783,8.50989777065021,20.4024568653559,20.7031112782128,24.0730910840317,10.3211581369049,21.0931182888367,17.1091542579824,21.3975777252123,8.18354306880634,12.5437746106273,14.1190854472903,22.7897467615916,5.44766135859947,12.7735889657233,14.3871849029348,14.1078894042994,14.931539989245,20.7776130893664,17.3006521234636,5.96655668524919,3.22391656611863,17.9788326027148,15.9145270296638,22.0254629696478,20.2325405416861,23.4841956012609,37.6099885143552,19.3547928519857,40.0013163055066,30.6920054918602
27.2809882560774,22.6807084113684,14.5509958769493,22.3318757002569,28.1915200902839,19.8498374587896,9.77774022703425,18.6170189897541,29.6867117932356,12.6874711372345,25.8880504766743,22.5183158126633,6.80371237184143,28.0110821350941,28.9737199949897,31.5881035113488,43.0721631435671,32.4347840150265,19.6752018890028,29.4840097321188,27.8421354296099,9.04725931431938,25.1860604611693,36.9344317160323,5.55571311489923,12.953291103052,8.67023516669579,21.5466331738336,9.59961167792564,17.2295207173704,20.3105060948719,9.99880460982613,22.9576849668629,4.99242700090605,10.7781696697995,21.3099358222655,15.6620215535461,27.0796345151914,3.6797924392581,17.0504352186616,15.3548083182965,20.6967822886035,0.80062232786102,8.03693617913397,15.1581227568338,20.1164840305995,7.39844484847044,17.0925957112559,16.7483927647871,16.7255276561791,17.9922945643917,19.233913328904,17.7826989473117,14.4070811363178,2.56894894736278,24.0803874787714,12.4615156424245,23.2157835045873,23.3071615170988,18.2872464011719,36.7116567134392,23.0681211643176,46.5969379752618,32.3531389837326
32.4155905248724,28.5310612505601,16.6276180969939,30.8710036585238,31.4092051159654,23.0652817262962,14.7515394817857,20.7027431771734,31.2572255963254,15.2293378193049,26.1045258674364,25.8833095673844,11.1022812087853,29.4332366889118,34.3255367670489,28.2553501506856,38.383249721448,43.3862694607373,16.4890394958399,32.0869754186192,30.1466344680666,5.67240257752192,23.1659670775905,40.3140356311861,11.6247015899494,11.6112917457021,9.52893155372577,26.3224262852176,13.2198522540373,20.8296224979819,21.4064042606461,12.5261849460124,25.5421452659031,8.10123116516965,10.0981003859648,24.5291968372146,17.9184043441191,27.8047760172383,5.91276129633768,14.2845711068294,19.8968810477116,22.2468266159011,2.5903910221015,5.90015578271613,19.857229456192,16.8301899480043,9.24026065040213,25.8433574177861,14.821218028838,26.0287017300538,21.1917089153679,22.5990825881837,20.492365326791,21.4628809745923,2.48961235167687,24.3943825926834,11.9494990079316,22.7965548255042,32.3686375066684,17.8147745249631,36.0182815369024,23.4880667615294,48.8914436918239,35.6095798087817
35.5855860038344,30.4050141571159,25.1372113574066,31.7528734722724,31.8145435198219,30.2721750675061,22.1423519317773,27.211110879448,37.613428882827,23.5052493514067,27.6847111629691,30.0291818235663,16.7348717999756,35.4966093538723,42.5948128148089,20.1079857072606,39.9372423103252,54.8446694431502,25.9234640834719,38.9698508638386,31.3267609696878,6.70962352262658,30.8075475665472,42.7568831247026,18.8795297607988,18.568121213372,17.8575881706055,36.2903280579863,23.9572309838153,28.7731012456778,27.8141436574979,20.4986794053979,34.4023172718297,18.9323905308838,15.2873334732557,29.0053423977422,27.6632352677401,31.1300602975081,16.3067369380914,22.0498673230629,30.8057848740423,28.3508277061975,13.5376126986539,10.1244141507259,30.5305661535802,21.3173601655569,12.1273351983848,34.4886533406996,14.6318734809883,35.0380175003866,24.3103925736757,31.0492716339717,27.9708703513411,20.7936373489609,6.01279292337914,23.1441228783444,21.4447227182372,23.5516022625634,39.7313003157358,24.3866210996192,40.4308812907809,24.3580568515937,48.3144993338928,39.7398965782791
34.6905599552665,28.7853541705195,29.2016793446587,29.6637294441272,30.9735068901932,33.7256355356059,24.1774299853887,36.1662217811597,45.1865451484034,33.4073390024642,26.9018253827629,32.760767902446,15.0194663516305,40.638904289693,46.4103619412237,13.9817097887818,48.8820533242361,57.4482889689614,35.6251488161923,44.4807560793557,37.7150060313371,12.2939886099659,40.8175624591054,42.1004971193327,20.4505149651122,27.3161249937254,26.6724476969832,40.2409666236446,34.9525809264939,28.8315943987597,35.5510986913045,27.8778809528222,36.4493413482185,27.147971731487,22.2363836920794,29.6231926214794,35.0701856597796,33.3667197184696,22.5532752560325,31.957114609489,34.1398921989663,33.7113048507113,20.2415912810232,17.147177225625,38.4410725496029,31.5724901467328,13.9860223561098,37.819277719956,17.9679360500777,36.1059189931437,24.8343448889518,36.8385036115175,33.9776063195853,13.9332773949387,6.82798933569653,22.3638467181078,30.0757912585747,23.2244568579643,37.9080220959636,28.4960068082544,41.3411580950182,20.8755053240583,49.0553714790253,41.575093019912
31.4721329041063,23.7265114962477,22.4888420382457,30.4416731602064,27.2950775320385,30.3699127636842,17.9918215828608,39.9495466779201,46.513312063157,34.1670400682121,19.4212628050225,28.3958003469504,11.2830122200235,40.1168976784973,40.5060996880123,11.7974043486113,50.6771740353991,48.6826079126026,29.8936180572631,45.0222092048604,42.1895847962143,16.4568667146665,41.0437256624626,36.5028448899232,18.3920540343222,29.5581402525224,25.2698875514067,33.8796929312851,35.7975606363818,18.6108218576833,37.2879788222418,27.3992030677267,27.5559377771189,24.9200817900946,21.8582247032308,25.9062112985277,34.5437928334092,29.9048612251789,22.6061620725115,31.3464147572446,23.5232508684969,32.2805291052297,16.7562863727789,21.224433136412,34.0655359831152,33.7488470955582,16.3357818569967,36.0841736432139,20.6104653006811,32.4073845970126,20.8223482284689,34.519325407321,33.4419615046489,10.6297791223746,2.68214071622847,23.7649300827319,27.6758977262099,21.3926241144171,28.1856253548033,27.1436246437532,36.3188805338117,12.3366649785048,50.7392686478294,41.1835215195802
31.5660898953533,19.598947280877,15.5477453355061,36.7125383920297,21.9362618156934,27.8449237868032,11.2904614106339,37.5980502054068,41.6193306605558,26.5753128175504,14.3833238260579,18.0747037244313,18.2212054244222,37.7829235782768,33.0682781473459,13.6578248718367,41.9755918863062,41.4001436971885,19.8382128208798,46.3564597260265,38.8720834205748,18.3434260745032,35.2465724938496,30.8030638428396,18.7715212986139,27.4852797851838,19.6358613448288,28.0272146719643,31.6362904385599,15.2360507218366,37.4424553414886,25.1423876470828,22.0532087730015,19.5263691167204,21.1472409925726,27.3912972105776,31.07248067239,27.2376183088695,27.7069792236973,27.3702131809271,15.8576011450106,28.0131412177526,15.1826215688849,24.6194020820099,25.8571385943517,27.0786632328735,21.9997758532693,34.8988133261688,24.0934052221476,31.9414001574389,17.6680538142642,29.419318879889,33.4219196438381,16.8622256767329,3.72508983068087,30.0866601303471,23.4698085109151,22.6657294179013,20.2252660760922,30.4496927999482,34.474575394047,12.2656668872026,49.9170637304184,43.1372956128895
34.5106916760631,21.1272877452854,16.8807515247176,44.0679892536117,18.3124216045086,29.589427856065,12.1187042038788,33.0621099991091,35.3200638037412,22.661888745712,18.0903307457719,13.3532612896803,30.7252068139017,34.6591165820204,31.7980621821622,21.0607835599511,32.9390237276664,40.0339796715843,21.6789502531559,50.5847256238668,34.9478351255419,19.0787988444522,32.2630079249054,30.1589827006723,21.9907665440828,26.219573415272,20.7356038958238,27.4699247716704,31.2372454716995,22.7763185831848,41.1756733732793,27.2695588872084,28.3247249880581,19.5658146928966,25.4375301948756,34.7711905052125,28.7103012906565,29.584986933336,39.5282744813519,28.5627861160718,21.6379528504154,28.6039086547712,20.6388078801516,28.9263269235145,24.5471887573893,23.2434754235711,25.4573132269394,37.2768309069955,29.2605685636624,32.119208377852,18.8095074588914,26.0617175633157,36.5469190358837,25.092731327309,11.6726722377655,35.3004568551277,25.6602909139806,25.5004765687743,19.8708162958546,39.3567605059318,35.4028112378179,22.9416037232013,46.0273005781308,45.7786336153271
26.9285066856918,16.5700299992785,17.1488519018228,39.8471825946926,10.6347549738707,23.7068619068543,10.3396701311415,21.2064781345074,24.8998606341998,19.9349095209024,15.9489344624869,12.4715421009199,27.7860983119832,23.5927166345376,26.1471383215437,23.3337143652207,22.1640357184472,29.5100210885997,22.1692723687132,44.7462345383657,29.0725239739829,10.1385138030953,26.0164793939556,27.6397520713654,20.9156827022776,18.4175315094561,19.9458937362209,19.2537226021706,22.9195879344104,20.5328408423293,36.3390027827859,23.8604903926417,29.3857157454665,16.4928610251936,19.8828173238196,30.5020586180621,20.4894184169159,22.7588940169524,40.0306692005513,22.7954367176914,22.6508992704319,27.7340293690572,16.3418790909681,24.2319996905755,19.4354975990102,19.7944321781595,16.787104243807,33.9428049679767,22.9512767736011,20.824743166855,14.3441117761933,17.2880181762677,29.3949445593686,22.364083117202,9.01693227927705,26.7392896744428,23.3279446819309,15.6772108896137,15.5570210152182,35.3891319199043,24.9055077904368,22.6526479663462,34.1420497372093,36.6845727711963
4.09868020870886,-6.53041875393029,8.10509919494855,20.7349155727819,-6.71804023469973,2.67384461149877,-6.42458558387801,-1.29369004219625,6.1796178483071,6.37134460417178,-3.11435656478466,0.501186071703585,6.3366151549018,4.12214169931566,7.01760885067238,5.37643020948804,1.58802203961437,1.78033558589277,1.72505709216753,19.333744486674,10.5630865411452,-13.0196830053817,7.61602737857245,13.6570387445095,9.90906880458204,-2.55886027185944,3.6664169509688,-2.25197678476236,-2.47283774904943,-0.612230679364047,14.3831182667275,8.41469967795302,7.99033533115117,1.33556095404296,-1.84059255505501,10.4652011955061,2.00195845741923,-0.203988124010136,18.8163078408702,3.82226569410252,4.61601838894847,13.5008618028196,-4.54999410986798,4.99462371232798,1.08198548877037,5.36919334423898,-5.38523721495621,15.3367199566675,-2.36724533651284,-2.34424245255566,-6.88759058314411,-3.66914801209689,6.03932758493006,7.88719255966268,-10.5171727666059,5.65488241983167,6.44925110296034,-13.9347014263205,-7.07603885551033,8.35322814312902,-1.28613845046605,0.0244495190656726,7.48080960179925,10.2725471247648
-16.6721185792474,-31.4819356188454,-3.34925151115324,2.60528029392975,-22.3961985380093,-18.8884998349504,-26.0728662503854,-20.8083179676425,-13.2548486774368,-12.040854726929,-22.9082385816314,-18.5898097185378,-10.8912773287998,-11.0785740685836,-12.097960440716,-24.1662831432099,-19.6952365743045,-26.3189934742003,-26.19467987413,-8.98684401290513,-11.4621092978996,-32.1464818641944,-15.4855974766031,-4.93099925491573,-5.07690253944034,-24.388613636245,-18.4377637454647,-21.6664878656773,-25.5069490036736,-21.5673069767528,-9.71523157568782,-8.29989976725708,-22.0452803314913,-15.7129408492911,-19.7622337328324,-5.82447083368172,-16.0369400633466,-20.5237415352489,-5.92092510426521,-13.0521859168201,-16.9586582328349,-8.652967590488,-21.1903396453102,-15.370966375142,-16.9253702381643,-15.6677449745022,-28.3267541610688,-8.9481109586768,-29.0326202638074,-22.6197785389071,-37.5944207824822,-28.8925722163287,-18.515629469753,-6.56017808126863,-29.4326137923713,-12.0964892313176,-16.0258650192207,-43.3685927807958,-38.5170941513972,-22.6835358313223,-26.2763232341861,-25.3487347067805,-24.2418430325643,-18.4285920446143
-19.569115955294,-33.9284839265503,-8.34471249338735,-0.492161694380923,-22.9660634177951,-24.0510384812206,-28.5062925969527,-23.042566717848,-20.4647633576999,-18.4746709376813,-24.1005440227776,-25.1884655164135,-10.3419173449365,-11.3898701670575,-15.2039425062771,-36.438891902411,-24.5674327737597,-31.4600244760801,-33.1867225020479,-15.4194370377108,-14.7232897254336,-27.8362068071738,-24.8776007616661,-11.5658755333217,-13.2248548583898,-31.0851870702483,-27.4274305345753,-23.6230716750592,-28.6601160954402,-23.1868498415509,-17.9776653251258,-14.2775557532795,-32.3211915046964,-19.8233176227857,-16.7573577413602,-8.39745168238287,-20.719557863393,-23.0023733668325,-13.0824475300425,-17.446200278721,-23.8766560122414,-19.8102447392907,-19.5244013922554,-21.3796587573674,-20.5153582561659,-28.3503024035203,-37.0913935630523,-21.3978501458834,-37.222407260436,-29.788055742808,-55.4165429099042,-41.1574444161771,-26.7712851932424,-12.4451719989715,-34.0665113687431,-18.937599644554,-27.4452898151515,-47.8913790078477,-53.6843222001252,-30.5850072433657,-32.512364268956,-31.2173377434191,-39.6408270138499,-29.7241492303123
-7.36414313134582,-17.7078592249452,-4.43021752512242,9.42169127426853,-12.1464791915431,-14.7657319967614,-14.7848600796926,-11.5408499945838,-12.2843638790195,-10.615553258114,-11.6397188519587,-16.7747100457697,-2.0497501672459,-1.66136585764885,-8.00702940607297,-19.967536343858,-12.9964887723774,-12.4354188932909,-18.4910774289996,-2.89267049038727,-0.533482622081196,-10.6935747819983,-13.6781498374318,-3.86690027219389,-12.9593333564305,-23.4896104437014,-22.4747763667795,-13.1130697784892,-20.6722764117263,-11.8061110581884,-11.5868092491929,-8.06829107671786,-20.7039823067946,-10.0024373301303,-1.55785049165041,-6.11469350870135,-13.2520061715112,-15.4329454516978,-5.74456711434088,-15.1320732403322,-18.1751713720803,-13.536799767828,-11.5509865771639,-14.2362663269923,-13.7914966360564,-27.1186975035518,-33.6623980075933,-18.919953116981,-30.8183698838204,-25.6468018574421,-48.2880674392758,-33.1824057621141,-16.0510663377947,-10.8562175355536,-26.5822270434406,-19.3988511602737,-21.7315638874674,-31.5304564490769,-42.7566553954096,-13.7530568390591,-20.6396151318888,-19.5565062660401,-33.9124781202591,-20.3239913475334
9.10035581894208,-1.49109740257689,7.67251135095942,24.435091523523,0.828948141139751,-2.15254393653406,0.793900147640502,1.34579026704104,2.21615755968914,0.70829543268291,0.232439341947222,-6.22180476595352,5.40689845613559,6.44320512062179,-4.70024761488835,2.42924008441575,2.80656161119471,10.6175094396481,-2.14024066319615,7.14759236533087,10.2861034103902,-3.37099888726881,4.66436140626338,6.76551118932465,-8.10828732841612,-9.60414874015167,-14.1650329772485,-5.9915878272222,-11.8229662080781,-4.33033149621388,-1.60333214503801,3.01211597913519,-8.130168160766,3.0127078422652,7.16995315898892,-3.0182045989578,-2.91578402204337,-8.44746365745522,3.19184227494116,-9.53012834631314,-7.83822591304071,-2.04812013868246,-7.50522186807126,-3.45310774288639,-5.05198857017935,-16.4776177924737,-27.2113414034091,-8.89642637742223,-21.8686069191934,-12.8670403182535,-25.8971921945952,-14.732552374743,1.57338256907415,-3.75677311720642,-12.2741624046223,-13.5016132911855,-5.24092551135474,-13.0851203474382,-19.2702110292034,5.39481512395363,-2.82216112440446,-5.58123916690723,-21.1246562525739,0.0129453461956358
25.7728523319141,10.2157244250055,24.6518784231267,41.209471318638,16.06660710556,9.51479216776281,16.284011332856,12.7862829654657,14.3399679923701,10.2803933838681,10.5316201165828,4.3576732372246,15.8628682556386,12.2250437917965,-2.56727630363005,10.0480551749955,19.0932472498878,24.2697840475297,11.4314970624142,14.6943819006125,14.1623419193972,-2.92070762119142,18.2817794472291,16.3534273445047,2.07293075228086,9.13835739343704,-4.94148482890856,-3.39407288541027,1.53819090562296,0.884681310239586,10.8534217886142,12.3709267033442,0.736162201482683,11.7332915567031,8.53282057217484,8.10263810242081,8.17729624921504,1.92564067232994,12.2067308980682,4.4991088472132,4.5178074738296,7.68163158745767,0.287789661282112,8.77455583625886,7.46029062465411,1.77784750016068,-11.0147084698229,5.75773113053586,-6.62080183894805,9.71724952586782,-0.926179070124529,4.27689485083598,16.2059395572507,12.4127480514676,6.62161643571592,4.31794282456084,15.2899123577276,4.82382188469697,1.56144652437939,16.3942273329741,14.1222236773211,8.75325042877451,-7.84625425304913,24.2059491838556
49.4923811164369,26.1520795153725,42.3571170418784,61.7573121517265,37.5957014903875,25.7748060631361,41.6500403079846,30.5019660436532,28.8295908186663,25.5503018989993,26.7437975912201,23.3956553116329,34.2503122077316,26.102545925822,13.2940351449106,19.3937076659458,42.6337307382785,34.5119383150394,32.5176500760887,38.4795932833046,26.8515711185984,11.3384439806429,33.4331834240749,31.7600419483054,18.6156911384819,31.4441124256129,10.3535389188528,8.38879930477009,22.6938029879705,18.0397064914275,32.1941078152896,25.1070245781979,20.3011609903557,22.4540344884244,19.3757819165025,31.014622206279,25.3720007801423,23.4048940368238,27.1152402203394,27.7157459503983,20.2594928256406,23.2789264831831,19.9071112695013,27.4850623504046,28.6143479188568,31.4091763055999,24.5744617217428,30.1550516429333,22.2746500783428,39.331409558898,26.4018177535967,27.47689462637,34.7035842013398,40.4108584044371,30.3975747183312,33.4951757893378,38.640243781144,30.2709640339464,25.057306066445,35.3123598710861,36.1630716332513,35.1892239450027,14.8827493868749,52.7760976125477
83.5940531924454,52.994009555132,61.1779923269541,85.9703896920537,65.1305420689986,53.089159207426,75.3641456932775,56.8673112641684,54.7218348096935,54.8028635659196,52.2199114366534,52.1686717906729,60.216033383346,52.8620003396713,46.2547989322512,52.0449583053669,77.5151032969473,52.5075949244527,61.9621935417833,78.2864298370614,54.9190600850575,41.8952775569547,58.3562584824215,56.6305749484299,38.6862058249837,53.2311546641177,33.2706309489957,33.6053342632446,46.9327528887041,47.0862888809928,60.654763457004,50.5310663545999,54.024670916179,45.2699429116958,48.1679302369988,60.4471792342204,51.7034037003113,51.9625774058278,50.407615678345,53.3676945438532,44.5615277956763,48.3157788434675,47.0621201196662,55.2218519731943,55.8372525143433,69.8254250762146,68.68494734761,66.0695920334406,56.4572645105413,68.5164045398974,59.4073003305818,58.3890940865245,65.4408782034153,75.1818400779389,59.8029683424012,66.9466476646638,66.1240107916981,62.5366187182332,64.8134775830413,74.1053257460961,68.9110414446018,74.7267814013436,52.102538942603,84.5581086456456
113.001373403802,83.402829665277,81.559751483906,104.835031972153,91.6826673841518,82.5938205597134,98.777508041087,79.3990427665862,83.1799895736405,86.7528328197592,79.9482179031356,79.807446477948,83.7942707002942,80.8837005832804,78.7995016487,89.7775915459637,112.45385537112,76.828695879226,88.6553912161156,110.532488479484,85.0429104306166,68.358246084716,84.7955462294729,82.263786406287,57.8275014591579,73.2305102500018,57.0514207973109,58.5808695991338,67.3497698109848,71.559112755341,84.1726718818483,80.7515370968434,84.3924260508986,74.0378657910063,81.2784390515171,86.1447181379645,77.629518145652,74.8740061015788,75.9415696737979,72.949963515365,74.3054274743531,72.7607192160713,69.3422437042441,83.6105936240512,78.4700961696535,101.51955876446,99.0786077572564,95.1976896122023,80.882034533795,89.9784838438962,90.4908267677818,83.3072285141229,96.1359211092319,104.775615851241,87.7797204628422,93.4290586824269,93.0893783477476,89.3921412707849,109.119706452553,114.726916094478,98.7785644469878,109.333089121163,88.8212479104268,109.039041391952
119.256032103137,97.1132810319582,92.7845647623783,109.965101959155,105.413479562981,92.9359508270678,100.380907362921,84.6562407111956,93.1543707986864,93.9247716458049,93.2823377011956,91.2280142893801,90.8179661642066,91.3535538890395,88.3369267297527,100.613454788841,124.401298415659,91.1119424335789,99.4244694556656,117.570746673624,97.6241801821396,73.3445228340244,95.6057999585558,92.9616527273209,68.7132818848413,87.2931862165574,68.5198401456176,68.2872054569266,78.5937483020175,79.2973582163611,91.4232462317913,92.8366999054074,91.4895167714032,89.0673783827033,96.6898051783657,95.2401092254414,84.5571346923764,82.6877885433785,89.7773384602344,78.6638197956885,90.2889698762593,83.2514868056233,76.9939275151291,95.5068274237256,84.5894981516275,111.229262260868,104.386328851596,95.8106420223838,85.2605161153538,95.9602964369872,103.447319567073,85.3619638939877,105.401607221099,115.982156548352,101.688699968687,98.707591275775,104.258640492141,98.4202250214808,126.662497445388,128.386182594908,103.243156076307,119.281674371007,101.255873712431,114.295741181533
102.289317158554,86.8219059737735,83.010604376718,105.151127974493,99.5823723910322,78.7247285263781,88.6901952278035,75.50464885391,81.0595232413083,72.0734758364489,83.3888008334521,82.1741076948437,80.7508623115749,79.0286635368287,74.1552744289595,85.7342679820065,105.39827070233,84.0190448447146,90.4697072125333,103.860048826239,88.3888383861461,60.0753187102607,86.5574149560862,83.6726723807784,66.1682226116124,86.8346072175042,60.1091345619249,62.9602739916228,78.4986124811017,72.5676049677328,83.3587841160866,80.9048671907019,77.1770115047176,83.4064083017885,87.1331051758268,84.0808779786358,71.3839831278599,77.0821843821338,85.2993746260863,69.2040405590989,81.6285641551214,77.7015356063804,71.8227375384392,84.7137682295974,73.9712603909056,101.044776735977,92.115486449597,78.511533186233,71.1309949813983,85.3305701278412,93.5165123337747,69.4343096228634,90.7911700882148,106.007685925644,99.6736393906289,81.8008383738787,93.3953483536736,92.4586334988672,110.315467512693,112.393808616156,81.1070788284409,103.518382257581,84.8643485712136,101.158117972202
77.3865318804979,70.6761998788357,61.7782292833779,97.2310846184166,81.6081577397181,58.2463619652822,75.8160582489913,62.6308198369095,64.5600126444453,52.4405275183029,64.3327162779413,64.0981230351931,66.2274601455628,59.7167698244165,58.029800950572,69.4597991969854,76.9601291307249,66.7731400812081,74.2386060607248,85.7693683396073,73.7771180607083,47.0809933573142,71.0804344735896,67.0707161988784,56.6977378163631,74.0765568353288,44.1588352758566,55.0203063684306,71.4433130452408,61.3300255142775,73.4577131125529,67.5148078030976,60.8512394985335,71.2421046510095,69.1841871272795,68.1191446440361,59.4291622121147,70.1562609679225,71.5788242925709,54.5617950340682,65.247754119529,67.4094038741695,63.7957149267241,68.897868380555,61.9299904198896,88.1055041087291,80.3218440770057,70.2776416447006,57.7269919277537,72.0799189719401,76.0505373505752,56.5851993270128,70.2408586131378,88.1791116917518,92.5728390895785,63.2933108678409,77.2483135549082,86.5115299242842,86.4025664729233,91.5229670389425,55.8074583263778,83.5384551641961,59.9266794384349,83.8542585983983
60.6160911045038,65.2885253969897,49.5439061873777,86.0849136615526,67.2818820059475,47.259246629027,66.43661093018,51.5977606456247,56.3600651673338,54.414050136259,56.2684063171237,50.4282490573695,56.3132953584313,50.960774978814,53.5336394770828,64.8755143849642,62.4090936613375,57.7673271873613,63.39293456414,72.6160755453734,67.5123721229862,46.6243812324892,61.2756048670028,56.9641705295118,50.7117819750881,62.5078165821129,39.8594619030114,52.3037227136399,65.4758393110185,53.5913278870825,70.8854967938682,68.7121236768252,53.7586296073445,66.9272532372659,63.4645591956878,62.5131678065072,59.9222905659958,70.1590176539862,61.3755422166294,47.9958577978224,60.5708087490201,61.9120357025753,59.7095584515341,66.9334361724083,60.4321494960428,83.9155030268779,79.614525483901,73.584231708285,58.569537680665,69.8420638309997,68.548886740799,58.4946115722126,58.8424756869093,78.1348214771339,89.2580186358563,60.5869200421562,69.70161120736,85.9907694038709,76.1562584569963,84.304429042563,45.0152073436754,79.8954275974449,47.4738765021441,73.4854265377677
57.4751528580774,67.451109013726,48.1512039095333,73.7962346822736,63.7821313934424,45.5765331830379,60.73728351048,44.9555683280077,53.1248138107327,60.5909944275823,58.6838499616027,45.9319621826681,52.8623867334632,51.7885255040856,53.2594259885349,66.4045172205863,61.5541162275717,57.7784115217635,56.2195525169709,60.8464184251591,64.9965808558742,51.9745226019481,57.0802175547119,53.4599613553082,46.8284856054723,57.4211740077385,45.0030449996245,50.4576924016374,61.8515383249131,48.7416795136918,69.6932482820366,71.1266808961761,53.3264973110087,69.3319991701558,69.1053739931012,62.760376442842,63.3425355136457,70.347339026405,59.4256472901509,51.5060047545426,62.3482160717535,60.0748380799363,58.012911627473,72.0590316554071,63.296283656578,82.2692720088365,83.5526060106281,73.7593112271387,62.7155258466009,72.4188335363843,73.3399859152969,67.7301898680166,55.07048916704,78.4035533145448,88.6815370582505,66.8824217740265,64.307250106826,83.127650298651,74.2770872519689,86.2427875469508,42.7320291101219,86.8469063991135,49.5208188795917,68.1059976595986
60.1965289527489,64.9713465401809,46.0432854065934,67.8883153476665,62.5081906030997,46.5433317068974,54.9363306087128,40.267755235911,47.6198792727329,52.8639947231954,56.1740762807023,45.3300424393341,54.9409052692477,50.3299743050052,47.9542914246728,63.0242754492002,62.3914050774842,55.4346054293527,47.482143656717,45.505960700747,57.657868598887,52.4111010648931,52.8027015072497,48.5097764357393,36.5602072479265,52.1641947189814,43.0587247299084,43.5364495242712,54.2793330819118,42.1348682690546,62.2906566195761,60.661658675294,52.4484198757218,68.5534348701338,71.0520462457403,57.1476504335771,60.3103642563812,61.4826475981347,57.8497390427901,53.6914433263938,55.9834298184995,55.5761221712726,55.0845601317173,66.3002012478942,58.645825357046,73.455289790505,79.9896201843682,65.5178851256966,57.8539776854176,65.929936985821,78.3685285318755,68.4041784175316,49.3875200737309,78.4466378457783,84.4221718350244,66.754254184566,54.775530767805,71.8554986186963,68.0618934621466,83.7555822795529,37.4108473679783,84.0915262740438,51.3004500742843,60.5113993180665
53.8302205364787,49.5778954811946,36.6818062425157,63.4717034350462,51.683593297241,41.2036397110996,42.9932553502668,29.418024457658,33.2320063997642,35.0120389318811,44.0872344392805,36.4390344399467,54.7911483504858,39.0679972766731,35.9404197144228,48.081689165788,54.109865727132,45.1820308191289,35.977016960046,26.8342897310326,44.8896396282246,45.4949787968185,39.5625120001636,34.6285560646845,19.4352516569248,39.6143169440238,29.8404450509555,30.2295528643607,40.1237489954564,31.2919373768426,48.3037474528754,41.5800399696881,42.3134004459331,57.5647725369698,61.1714323471749,40.7919153588251,46.7893779764783,44.7207245783072,43.8256116172052,41.9353418095818,37.7413098050373,42.4217978365948,48.261013063835,47.6723994670964,42.3416791935089,58.3014514557493,63.6432822275508,49.6243939999226,43.5414064016398,49.7854812617783,68.3571628251158,50.9919091460581,36.2029153013843,64.7443397075648,70.8091982308997,56.8819513169327,41.8843872663435,50.9158435053704,51.2551018973418,67.4696521844003,25.4763247706094,62.978184744131,37.8705546385317,41.9014063986164
29.6003211168517,25.2994272819463,17.1028583929352,45.3663409138826,29.9104200792602,25.0786452100461,22.9662803099849,9.14272946885827,6.71442141506919,15.5076108664871,29.2206176213893,14.0508824111462,40.8873533132382,17.1901174480621,16.5778719397236,22.7331740196692,30.3689808161667,27.2133114516468,20.8138548884795,5.65991190554768,29.0844442302106,30.5638643954657,13.0939364681166,9.24448154426084,0.971410922239869,18.8588943952253,11.0969557402735,10.0684352057634,22.6996684609214,14.6315399400622,27.2411922287299,17.7869981146635,20.1936122554989,35.735150000368,41.1221366818756,13.9625141344476,20.1164838149925,23.9309743293168,17.5079186658777,14.7955648306784,13.0928231759562,21.7558132256387,33.4028059951762,26.0585926731266,18.1831324335297,38.2128010948754,36.858351558287,24.3782528493392,21.7028207597836,31.3926851752617,41.2364595608917,21.1845492901687,15.5003114831852,36.4729708815964,48.8199475656274,40.2490509395493,21.6285022830675,23.0950885912521,21.9444856562908,37.3913162313222,4.3182981036279,31.1481186286458,10.6533081673951,8.78542229148835
-1.50125168929333,4.35198793156895,-9.13127618347722,17.8125392125089,4.04849261211564,6.02299744001149,-1.20940878708468,-14.0314581466335,-20.810396362584,-2.71053013531509,13.0225850574555,-11.2968077496817,15.0716417281351,-8.1803709980233,-6.25951668395154,-3.15819650113175,-3.46704328616199,3.66641372061368,3.02992513791945,-18.6232258085954,11.1617789008243,9.42354846572838,-15.6325064001685,-19.4702489546137,-17.3534057506802,-3.81196128542204,-8.3989881777477,-12.3214418055307,3.14488161013649,-4.60755555114878,0.288182215890874,-9.85300821382693,-3.63289974586226,8.08463604427531,18.0337820125899,-16.3562036498299,-11.7302013573722,-0.49991581860361,-8.3082825920065,-15.9874229526964,-9.40543023710875,1.35084102458492,12.869893550408,7.62003928852962,-5.00730166119023,10.9241273471142,9.35056187545497,-5.49407825402287,-2.51510026597806,12.6262351237424,12.1719928493768,-5.6894727545008,-9.08670416884096,9.32860850707077,28.1752394761332,18.4443173415454,-5.13203393528244,-1.23446746306938,-12.3811802511039,4.23580116554437,-21.8913185485974,2.24897237802854,-16.8777951061863,-25.7644058154232
-24.6548750697052,-14.263405187468,-34.6128255432977,-3.26789512319204,-22.4687184789477,-11.1074355235191,-26.5216753353666,-33.922110758151,-38.8678232372427,-19.3404547779368,-10.5363544822619,-30.3742219741574,-10.1562566511388,-28.2695598750005,-26.6107488130236,-24.9030177160604,-37.9240455615285,-22.2533211357505,-17.4784734454237,-48.4847538410349,-12.2423044953785,-12.86256272708,-37.4538274952537,-42.4664468252722,-37.2090016454294,-25.4860200460189,-24.7933467860728,-31.3104645403611,-22.153357438926,-21.7052358294214,-28.1521994475159,-35.7687804619897,-23.2949619310925,-19.1251140647185,-4.47353791311035,-39.8587697122897,-36.6961783068102,-28.4654567318465,-28.7067557582169,-40.1578596037554,-28.486461166001,-19.3644345258584,-8.40582782804061,-10.2840213811363,-24.9501773497955,-18.3727063473906,-13.0378409279807,-30.9636336881895,-25.1130669751315,-10.5519100561834,-8.89439863967646,-24.3158788195021,-34.6676463395718,-9.34793998569381,10.6062873413134,-5.26548891830222,-28.549002921801,-18.1589495642709,-41.6543915324482,-25.6260457743349,-42.5778163311657,-21.0243083202278,-40.8638656491811,-52.7780610156936
-47.2309959628918,-41.9618731706977,-60.6779535418373,-22.727030576399,-52.2229307960018,-33.0380342816543,-53.757705007443,-54.775400015273,-58.2252873508167,-37.7171667840433,-44.2162670164944,-49.2825926827262,-31.6671776572848,-47.0528132377725,-48.7668882783582,-50.9188789583964,-72.5997223395733,-51.1077653082905,-45.7566758801976,-83.5564634978223,-44.7233257165683,-36.48353481203,-59.2035955665289,-65.3166946640173,-58.0565971157159,-51.6494100646206,-40.2653796866171,-51.1032456650076,-54.2092749943014,-40.8413464957354,-57.2113439034192,-58.9530898547112,-47.7632504335585,-44.7196965171008,-31.9177742197149,-57.0904300890759,-57.4521019945935,-57.7119899658103,-51.7516570308683,-61.2096215995584,-51.5150085856046,-48.6599752136588,-35.8701334850158,-35.6490130370517,-48.796474386876,-43.6436646111988,-39.1099052133182,-52.2057555968395,-49.366475894297,-40.5487734927092,-30.8336538866969,-45.4089943581032,-60.9715425173232,-32.1839737301991,-16.2999944175031,-30.5126425516333,-48.6615010787152,-40.8668983040663,-69.0058357090719,-60.0656478562397,-60.74931206447,-48.6733826331147,-68.4300423635234,-82.3835101347089
-77.0886460990909,-69.7351489328142,-84.8539895199286,-47.6484697115037,-79.4024393229541,-58.1128223184065,-78.5332140037371,-78.3238948679246,-83.6970663857299,-58.4748445566043,-76.0207009466152,-70.541892171957,-49.4353216914169,-69.5172805371974,-74.1011685224653,-79.0417677187448,-104.204763712349,-80.0132114674745,-76.1325798492116,-112.276504437616,-74.0942223669313,-60.7185681630217,-82.9209807683307,-91.8984708295997,-75.2207388109084,-77.6457270938326,-57.1215419918575,-71.5910898466431,-82.6084562694676,-63.2380693222825,-81.8271148996418,-78.330246083366,-75.1859186799116,-68.2086425360999,-60.8819119917305,-73.7058043549096,-79.3147582318177,-80.0617478662959,-77.67935430144,-82.0474016551065,-75.4936220679828,-79.2014216024329,-66.2522901624302,-64.6445593377778,-73.7103150960775,-66.1303075112796,-68.6789032427066,-69.5349353211305,-71.8451165085058,-68.9816561401197,-57.2816872614964,-71.975999288592,-83.1202951996999,-60.3755420658152,-48.5641095692428,-55.447972455601,-71.2564737625135,-71.5310988496386,-97.8997887260156,-97.4201578634625,-80.7464313789852,-78.8132544198616,-95.861203481081,-112.310145954747
-95.858724839294,-76.9147062266846,-93.4572456726598,-61.2431394139461,-87.722575210186,-71.205765496823,-89.872933411102,-92.0900466393559,-95.9311971621047,-70.8012495383976,-86.4365779084096,-81.2432330330905,-55.8261401552173,-83.0508093807952,-88.7517085204445,-91.0311394980133,-118.212302376511,-96.6148869251825,-88.2094444488619,-121.880706134361,-82.4771503680321,-74.2327758573722,-96.5831472118204,-107.367106191254,-81.3965120839231,-88.3388282192409,-66.6862622716089,-80.0435874199289,-92.0696258322841,-76.5180272013455,-90.6986310456812,-86.2265960983232,-87.0532064250625,-82.1995279538128,-73.9107870288949,-84.8280325553484,-92.3956700218739,-86.1210843835105,-92.3103519284554,-93.0144691551251,-85.8625326778665,-89.2669839520863,-79.1282088357088,-78.7999998154021,-85.0366798198285,-81.2211263058304,-80.4471287786575,-75.1913368383607,-80.1605370135016,-82.197556342677,-71.4377237665741,-88.5165156553908,-92.6857012293688,-73.5600137974627,-61.195595701722,-68.5172040753751,-87.703348195556,-87.3816280822632,-117.227906801102,-118.186417244781,-88.1404122982864,-93.8133800908823,-108.277302689059,-122.995943367156
-90.8441503111592,-66.2834222796527,-85.1559399662164,-52.2033751389207,-75.3388903843919,-65.8208353061205,-85.3196714585788,-89.5719356788458,-88.9500381999516,-66.5651586508484,-76.3237463270183,-75.7756970191877,-52.5699317956482,-78.992154321002,-86.3187577827011,-84.9056831182283,-111.984821265656,-95.5609841471284,-78.723404165118,-114.333045194118,-74.8839186206215,-69.2050490827265,-94.3726217692372,-102.115372689167,-74.9097211670366,-83.0921261617474,-63.9243915575534,-73.726850166983,-81.630680144522,-74.3186814470362,-84.809848969087,-83.1360244252244,-81.0757176766471,-81.0835074804829,-68.4261379076916,-85.2262772468888,-88.6100713549794,-78.5986726441679,-89.5742388656265,-88.6842073642526,-80.8021387404098,-77.9340920049466,-72.2744863706737,-73.9124748469966,-79.2398682877997,-80.379489450647,-68.8871964684098,-69.867984859947,-73.9630243562173,-79.161193206471,-64.6691684055142,-86.9270697521444,-89.2192427499584,-65.5844347699264,-51.8403867694846,-66.6661527142441,-87.2753101005464,-78.4632391522279,-117.154522209284,-115.949406985855,-76.5850248735162,-88.3625560203385,-102.969039022006,-113.927039001568
-81.5472536566495,-56.4199900595839,-76.3270133593339,-37.4904636753242,-62.7205881929107,-54.4207042562829,-75.492424497602,-82.3174295753553,-82.1728602511621,-56.6192834251371,-67.8034529318307,-66.2576965642518,-52.3130068837924,-71.6813858168824,-78.5580180294198,-78.066702405031,-102.474104133071,-86.4288082003268,-69.4088702321214,-101.024072605003,-68.4890323081724,-55.8147408259777,-85.1215350937003,-91.9726349068749,-65.7169941175987,-74.3370164864641,-57.3154001660146,-66.6771629226025,-67.5571111687319,-66.3405783113988,-76.6086624666063,-77.0592034772026,-73.4984948849858,-70.4009252628011,-61.4608518350045,-81.0654217137034,-78.0579242715937,-70.6428522420369,-79.5849657992252,-79.0019819308633,-73.0939116840038,-68.6452895658189,-66.6754176958733,-66.8168135822933,-69.0732560360581,-70.8641066005891,-56.6355376973493,-66.3970025071626,-66.9283861666528,-69.7887307819239,-52.9729876609668,-77.6590240012474,-81.1594007002901,-54.2878701474712,-46.6502092016945,-64.2615467793412,-77.4772653860542,-64.720806991245,-103.561566935938,-103.85617481995,-63.7260918665633,-75.2355868028753,-91.2216738806509,-100.566881322213
-82.4902894088356,-53.8974548890078,-73.9905933379723,-33.1663780892263,-61.9695958898619,-49.607612072282,-67.4122247395771,-77.7162836979409,-81.291729358279,-52.3290159203469,-67.8356804891794,-59.6915739374473,-54.6944836162795,-71.5515735907782,-72.6260393420886,-74.4818352958972,-96.8254783818672,-79.0961504428906,-67.7651471853271,-87.9157461970281,-65.674903583068,-46.0164851203893,-77.4158948426672,-90.967585708096,-62.1935888074378,-65.1178716799256,-51.5025444360142,-64.7187973075349,-61.6662481967707,-58.9040961976223,-68.8244722459106,-67.5631943267026,-67.5622610302282,-57.6852846711397,-59.3394089505174,-75.3184756155838,-69.8600274795635,-67.9472675141649,-68.8682460517193,-71.7584459328653,-66.9557861559027,-67.2843580458485,-65.8116181511771,-63.5418421417618,-63.2228978794965,-65.034338109587,-53.5571099327293,-68.6461812804701,-63.5198371127945,-58.6919409052681,-47.6469912698949,-67.8448623668812,-73.3645669963255,-50.4288019548729,-52.2340047778078,-68.3350504186403,-68.3308823783152,-60.3404388599325,-88.673177196364,-88.6931451000506,-59.0915491542462,-62.7831115340836,-78.6774864951543,-86.0858747451411
-74.7675124354142,-48.019137929795,-63.4374602444867,-29.5909519462345,-56.4615608196146,-42.6407173992567,-53.3681016239231,-64.2932441712194,-68.3897957194666,-42.5680157617413,-57.3209343160561,-44.9299271468979,-44.928039032659,-63.736760072999,-58.9177546425229,-58.7279856654931,-80.7638773673677,-70.3126390543481,-54.3289810686749,-69.1642440148156,-56.2307322919718,-31.6306496361236,-64.5657638401774,-82.5381939488135,-54.7777856107062,-46.0228106287399,-38.3348944978413,-53.1949407796293,-53.0764419543738,-44.931257572097,-52.1665026717808,-46.4475478509869,-51.0054512646414,-40.4739999506917,-49.0407642030884,-57.619219402763,-53.6225273904194,-58.6756555291335,-49.954888763782,-57.6225999990312,-51.9391233265549,-53.7766976905126,-50.2300602232109,-48.3405821792505,-51.9750750564734,-53.3280634217045,-42.4545203690348,-60.7938474262178,-50.248483611105,-43.0760686505463,-37.2882653004134,-51.2540405361898,-58.299361967632,-41.1313182391254,-45.6569105637048,-63.4845771490666,-53.3037466207691,-51.3369955610983,-73.5555480184388,-64.9941979297053,-48.6556914942991,-46.9272882045225,-60.3331213131218,-64.557165806619
-48.8255556739853,-31.2634272395311,-38.6265293219371,-18.7637560337805,-35.995508522872,-24.1242984731168,-30.6774468685398,-38.578619644827,-42.3433482901215,-20.1579070260191,-31.9874206034735,-19.595150018081,-24.5120376473409,-40.0657623904444,-36.3536371799266,-29.2967350537993,-52.3433036701616,-54.7004497879349,-25.0259472367541,-44.6562755918823,-41.061374797273,-6.79528542897193,-41.6050515290155,-53.5534866312426,-34.4535490103493,-18.9489633167419,-17.6985208605489,-28.4302333326998,-30.9418854740089,-23.8967810172268,-30.1945624134929,-19.5638580112692,-27.113780852171,-19.6139084587426,-28.1730257005644,-30.134272550093,-25.8377050696271,-37.010105883166,-24.9857854481376,-33.9006756288237,-28.9237240490598,-28.0808932534479,-22.5564208151654,-20.4327501597987,-31.2286919197075,-28.8891808614132,-20.4676592627339,-37.1302151476723,-23.9231565594968,-28.2926013755389,-18.1522408069265,-29.423993169572,-35.1200618167918,-18.5870286010213,-23.384525135197,-41.5035223741932,-30.4433409337584,-28.2519401834516,-54.3047327112353,-38.0831777691072,-28.5629125892083,-28.2053885813266,-38.0869087596204,-41.0626996641861
-33.3024150619931,-17.5179657956476,-22.1149881723231,-18.51964235401,-24.4294077716947,-11.2682084802049,-16.9624916862325,-22.9293323799132,-28.6783206022261,-6.51868480228046,-18.5059122428865,-6.33417452005931,-17.0200931884186,-23.7607066924002,-27.028991925499,-10.4286490342674,-37.1625644416219,-42.6493213361339,-7.90859756942735,-33.2387632864189,-37.7409360453666,6.52143092576744,-27.8855995025158,-30.7811338135592,-18.2625026146181,-6.01279634828437,-8.21149742082631,-16.3013138682401,-13.3416885868849,-13.9783853900383,-25.0974171923266,-12.085337533917,-18.4022439023603,-13.033267229354,-18.5139595280245,-19.1336271943375,-11.1439933045804,-23.6831773747493,-17.0950881885472,-22.960613085972,-20.1927420699869,-19.031170318351,-13.7042547812332,-9.95605599336202,-21.9820210883058,-17.3710343404806,-12.1516725317543,-24.3021327278199,-7.88703234789636,-29.0091283423533,-11.3805769625415,-19.8616985553835,-23.9384763102728,-5.25208583693936,-12.7999983508532,-26.7805299616731,-19.2794310633551,-10.9919078360362,-38.2067294975759,-28.2454513267245,-20.0466025835075,-19.0552667665469,-26.6695244730758,-29.6368727206219
-39.0296268186712,-15.4434778058366,-24.353465953493,-33.7754552566298,-30.61248323816,-11.8926405340225,-16.0357529325294,-23.5596480584047,-27.1876111747233,-6.69017370290171,-22.7349949970679,-10.1048160436241,-22.0862497433073,-24.8158555916683,-34.5513382711909,-8.83088019298506,-40.2225385571879,-37.8592249743617,-11.9554410009909,-35.9691422463396,-44.0337703070907,1.24204340860586,-32.3109180342786,-31.9550036436363,-17.8518470765719,-10.6729099925591,-11.1296953925454,-23.6416317986239,-12.9448717096178,-19.0189552986479,-36.1577838297286,-23.4619146484899,-23.7133988596333,-22.1018807447594,-24.8159844930428,-28.3837369070036,-18.7057260494425,-26.8784969257192,-27.0026506061557,-29.4288620969811,-26.3656381767781,-27.891089130312,-24.0108384801348,-23.9642597841808,-28.5979314510365,-27.6814248296843,-19.9154286992219,-32.1919585737756,-10.1162634191034,-38.7700791400668,-19.2635718659638,-22.4366031917061,-28.0177925426985,-11.7444519089899,-17.7824249125919,-31.5700271613559,-24.4694242314454,-8.46725089264978,-23.3116580263744,-32.7367032948695,-25.8185161957798,-19.2933021188264,-26.1841432036146,-26.2386531324747
-36.5510529149714,-7.76150279562818,-21.5283573411927,-37.7330539231795,-26.6573608008598,-5.13576013611044,-6.74837308157986,-16.8684150988859,-10.7680672406648,5.57906575969619,-15.740948324506,-3.80623555937246,-14.2633182769865,-19.4027818355669,-30.3290162505192,-1.454715049995,-33.1345230911402,-24.122559338229,-10.7240119087253,-25.9002408720762,-34.7928036686037,5.12140848007964,-30.5105705251511,-31.9100217189376,-12.925279115961,-7.78651158619903,-2.48187385594226,-21.5578178414247,-10.321736761553,-14.8784907209434,-35.5125841013012,-20.0752781412562,-15.5146981931611,-18.8743479692696,-22.0247641094848,-27.2613059066694,-21.507349667046,-21.6473861368565,-24.3255982404208,-24.7300292124694,-18.9599632296858,-22.8471212494605,-18.3588061586027,-27.668419349496,-23.7996471807516,-27.0351307925115,-16.1761712108329,-30.9726481904156,-7.38799886615768,-33.883155524221,-13.2649129638446,-15.0762076824976,-23.0577808061389,-11.9531458362128,-11.2752075600302,-28.6817303776851,-22.8748664523269,-1.5922700141266,4.70108880413828,-24.4746797545475,-21.3401494886388,-13.1740876984968,-18.947900332858,-14.7481241919538
-18.5860407731216,11.6012993616355,-2.4883473396439,-22.742515496495,-5.86369549586045,9.46857893552982,10.9199720128826,0.104991806503263,11.8585364910505,28.4865420416993,7.42767277589744,16.8704899338903,-0.00867308067638672,-2.23135473574002,-8.87870520943567,14.4842147410854,-13.2288211515987,-2.30326446972742,2.33366342252149,-1.51820158760689,-13.0085229403097,22.9428556241119,-12.9961179142021,-17.665736685748,3.72530746984727,7.15612261500725,16.4052728863362,-4.7756328596121,1.81988179659406,2.64866081960817,-21.5900453115255,0.185811463017356,5.59581249151656,1.33363639308168,-6.28846544162359,-8.90053205893759,-8.98206370487662,-1.70848934857985,-6.05194251060356,-3.89575386074964,2.70356143229622,-2.10407055972109,5.78845622358655,-9.90394057286155,-2.7379521096865,-5.87056566893974,1.50500361190899,-14.9070166449909,5.79555743032877,-17.463201451156,8.17951227537586,2.94296218521086,-8.06562270470423,3.47146900607968,8.4651347689913,-7.99255191775947,-11.7933508624307,11.7049846578802,33.6448927251307,-6.07601289097039,-5.20466846628937,-1.33583642353705,-5.1464079094105,-2.02459235817006
-9.47157319703835,20.6731388612906,12.1883192109783,-13.4732889589075,8.32985307919171,9.95323693141222,15.6293484255044,7.57149890239014,13.1638603133463,32.9509644602941,19.14955203325,26.4890637793908,-3.88558458643573,6.13921048854954,3.36143877732607,17.7691594302184,-5.3377301814499,7.43668802358305,5.61484450708746,11.8637581464208,-3.15682697432543,31.4447806836303,1.62239289997557,-8.09920655378876,9.90191515043542,13.9322499538391,20.1267287085496,2.5391304517635,6.07692473370778,9.51336818575332,-15.4159720133248,7.49269248823988,10.5566946313131,11.5657946400083,-0.430859101046308,0.360707911995515,-0.620561331943082,7.95848862779194,-0.175425179814046,8.31578300476266,11.2491014951943,5.90475022579021,16.2938070927977,1.16140740860527,9.68302061276609,4.47022144469802,10.6037815858613,-12.1106484363285,10.6103591076287,-9.33657867889052,15.9056120233983,11.1335079145308,-5.82469606738222,12.6310376408761,16.4129381255732,5.83158248598992,-11.3976129113893,14.376500920808,38.6178604125415,-5.55823638705378,1.50142064849654,3.95156899921902,0.526596831139801,-3.32465874488332
-16.0834540958677,7.23484004846931,9.038858647476,-21.4866188070639,7.24355248875027,-1.63007351939462,6.10849455274375,4.60887746118422,1.25297583563586,15.8497369871818,9.29550071881531,18.5908342504536,-17.0413880066244,1.85545808942542,-2.35480452665107,5.51340169794681,-11.9212056120477,1.90112924645517,-4.9235999773092,10.537998587786,-5.77090396823971,27.7937040755501,4.87411260158424,-11.5266857309265,-1.00153983613483,7.71224170363903,6.61879615209558,-2.53785306194009,-0.662802361329775,1.31573841194351,-18.822032600454,-1.29214882181915,-5.38849980026443,2.90450106703709,-9.89296394020323,-9.65434881084207,-3.89598995822045,-0.827092620644305,-13.8661521275263,5.89177364074172,1.39889836471442,-4.81986449746774,5.52176285148834,-8.56717394396767,3.87843062157962,-10.7998764765962,6.92676770466515,-25.2458929173845,2.12757259614153,-10.4860970058708,4.31067899689348,4.60304893210057,-18.7780410184818,5.21112681771236,5.51155703642449,1.28126244634723,-22.2005539075026,6.25473427832782,24.1843397359379,-23.1012705633836,-5.03939525912385,2.1290424482779,-1.71106315009049,-13.3490080264546
-25.7165985802363,-12.1734181915507,-3.26208986434337,-33.2622814318614,0.101328976685322,-7.62334097052032,-1.75454511603726,4.9518829913364,-6.5045290692165,-4.37025948035727,-5.7330998885554,9.20155881803271,-19.3241036902616,-5.71032783127812,-10.1692899662314,-6.46876647174493,-17.7676052957295,-6.25773166671893,-13.7720769128266,9.06262776888998,-9.59684683753613,23.9210496571187,0.549162527204363,-18.2371427327332,-11.3433828133803,-0.724404673844336,-5.70641263904615,-5.34774941770208,-6.64025845625096,-6.05313184686956,-22.3859818686049,-8.67044883543345,-17.7808778394883,-8.3326087203167,-19.904344169402,-22.839133062491,-8.17488679417971,-10.4564166200753,-27.975111342432,0.0524053495039049,-9.1575444856862,-17.1019855746203,-6.7164322309881,-25.0936273538189,-6.99286320985721,-31.9451231524015,-0.91288877257266,-32.4159520739363,-7.96473996055492,-13.8753300522393,-6.29761640082841,-3.08658394212056,-30.5614193147407,-8.06229346599239,-9.83311920577638,-9.47725796515934,-30.6669562359805,0.111744079581872,11.2077074424201,-35.9102634751732,-14.4807006807772,-1.68248386398649,-2.0829036800124,-20.4158430272698
-27.360322537845,-16.1148396945867,-12.2243508411851,-34.2088038534908,-2.74131455952112,-6.21936416450684,1.62143787542708,11.3745474350248,-10.5977498238003,-15.0980335238296,-10.2811008813462,7.57278240536538,-13.2382355136424,-11.2259458677825,-8.2923421378339,-6.31274400761668,-14.3513162822403,-8.9658858309182,-12.9049434970322,12.3881124595135,-12.2298447435273,24.3196313846304,-7.14113212693044,-18.5142306892731,-7.02113031318236,-4.20201319540632,-5.7430656581632,-2.95293222463659,-7.31830910292851,-6.11679397458983,-20.2987125534652,-8.97703736999467,-11.6771275191383,-10.4348525841009,-19.1172327699816,-25.4255735271945,-6.31179657364544,-7.38246248098709,-27.3526930044246,-3.21128695683127,-8.42064517096756,-18.1991309865031,-9.24501220920967,-29.8669102379297,-9.34852712386709,-37.5322152747097,-7.01439192745498,-25.213118921246,-8.36828339753359,-15.0516357648925,-3.22099070972423,-0.629285559399057,-28.6390840906834,-11.6950662148692,-15.0557173009758,-12.66840214257,-30.4146382114761,1.87049176515324,10.3670115733973,-33.4725559105627,-17.883527916266,-1.93128483752788,2.40963426507176,-18.7853906293226
-19.1275808645831,-6.59240821247379,-14.7779431381381,-25.0165456284664,1.2847933188919,-5.72947037131162,10.6473330468779,14.3275775796144,-11.6035915030816,-15.400344165323,-5.93369895514462,6.98440109878869,-11.2879588070704,-8.69672128855964,-1.73894420295296,4.3056926745377,-4.28999827497689,-7.09695771334499,-8.04967337806386,14.5372636932491,-13.3876585389705,25.7693925047026,-12.387416589365,-10.0419909360467,4.5116137582121,-4.12959949239846,1.28761395090937,-1.00957062974061,-6.29254005234593,-1.94241269775356,-11.0517514014956,-6.86450770303819,1.32171296475686,-6.91145930818855,-10.1545206130392,-20.666662435005,-2.67139545167051,2.74266191396194,-17.609426001655,-2.87833940481482,-1.12450922137981,-10.0804536449687,-7.04832008972092,-18.9020940571042,-4.18951749818381,-28.7167870659108,-5.88918502511606,-12.7935275991525,-1.23855912697014,-9.71710906067539,6.29440051330194,6.33246378435569,-15.4454106708353,-3.35135328706458,-9.84325115865012,-7.15231407104063,-23.7876004594691,5.64607266516899,15.3239464423756,-24.40328108445,-12.4807358449231,1.38563386690437,5.91559000915141,-11.4838653380155
-9.03978817908201,-1.9539957265232,-14.3784418888313,-17.2458426310793,5.00276278745889,-7.0432063235867,12.0237387892783,10.0199975890261,-8.63564631935632,-13.0847165489907,-4.25750414983072,0.728996610304895,-15.9249481338212,2.48574971085652,0.307596620706455,12.2862996016724,2.34122714453393,-5.32053885825337,-7.00110009894888,11.5510454587052,-14.3483045685181,21.7137642836572,-14.1688272608734,-0.364234079186569,2.89169241049014,-4.74212394690398,4.48558945743537,0.834050393871298,-4.98664338049868,3.64818545611737,-0.884599115537285,-7.69811593475472,5.80648892610522,-4.21263457574974,-4.25273082613928,-14.079207015954,-3.86753147525037,7.48807543439182,-11.4499568917955,-0.764673066939992,3.19392405956702,-3.92095487369807,-4.88604192241792,-4.65193132864301,-0.858500119178648,-19.798989828537,-0.0623111118821777,-5.25112222956226,0.782594745626511,-1.13984844660573,8.03014879582796,4.83301346324306,-4.56713189193641,3.56590661379772,-5.01770084175096,-3.2901431587614,-18.8597624178713,2.70746205995544,14.2806909804179,-20.0072890268224,-4.42525543888425,0.958624026244887,5.82759096068625,-9.87861238332255
0.2516533107156,-3.08783106510899,-9.30766153040177,-12.927088879208,10.8185455609262,-1.90598882998757,7.35761710443575,11.8189466344155,-4.00609080031935,-8.54580667484859,-3.75101000372623,-0.716583733178734,-13.2694957188085,15.017045329172,4.96625502199188,13.0400921569021,7.9295997581459,-2.57468237022604,-4.96478841410103,13.7039316441295,-11.2712938181315,19.6768513916319,-11.1847865590509,6.95795165938365,-7.75744350950566,-2.10150437125061,8.41579063213252,12.2658499585748,4.22212547717325,15.1376433615037,8.24347491580319,-8.44048690243437,7.53334591643411,0.460886544910266,-0.677976485831889,0.823065640293777,-1.97202061020977,9.87565292669493,-3.43440286185977,5.64677266401219,7.74880760921752,-0.135581379679464,2.69554222703813,4.80081555856436,3.48111869497736,-14.3106079246068,5.3570682401747,0.785880563804899,0.10586752225334,6.69550217160561,5.82115606085988,0.334588706617719,1.67814771216743,7.30850162988936,0.230556905552535,-1.92619015527045,-13.8048906950506,-1.54417832886158,14.0228613481467,-13.687383693947,3.46974132778895,1.54307748898279,13.1366664720199,-12.2005725122965
11.3500131270453,1.05387283965712,-2.02463307005374,-8.40389189715308,24.6800508516164,8.03593009639674,7.0292759265152,23.2179318033994,-1.35125667454022,2.37419488225803,2.52920560129353,8.86988523252101,3.6156761982697,19.0352168752392,17.2181963207901,14.7116247349428,19.6969851239314,3.40326671706822,3.78685007019793,27.2892148724041,0.534658804924073,30.5903826213748,-1.39626689966496,15.9510574312157,-4.67222406727063,5.05912482402817,18.7103101153798,30.5653713907673,18.0271473310954,31.7112223372344,17.1535087950267,-4.90363310990371,16.0761667224428,9.45875591431779,9.15208520673601,18.9029574771374,9.75602410037998,16.9300965383662,12.0797214708574,16.6439336266342,15.7229892220797,9.04904187242829,15.1433242360818,9.23524151301829,13.2182021189437,-11.5048242260298,9.25387971575125,8.0961034146369,4.88156907250823,12.1777667573881,10.9272225312711,4.21451350067322,8.64846072182893,14.2076652135842,10.2832172349497,0.953075037563312,-4.11979246905795,1.72742563474385,21.9090878858788,2.88232264468194,10.0559389659761,8.42847028122494,29.6466104853456,-8.99551134607236
16.9588718827456,4.99100237061222,-5.63824863919191,-10.1914164001573,31.2762662734392,7.57381564704678,6.23744951232554,22.8747822737711,-4.14464291375598,8.73058643155256,6.11124350655798,12.7301505579437,15.3505617155798,7.40386563658504,20.3222675960951,17.5363762769685,23.5929833312872,5.45167708355863,8.86527670265848,33.2925682905422,7.86721972070954,38.7774315850112,4.49172093165159,21.1689933029902,6.3134856440927,7.15327812765211,21.2825921472695,33.8989756090404,15.3065723524907,35.1904857463861,17.1167873239308,-3.44317792206303,22.3977315807584,14.1926876329662,17.4195093982979,16.7493938716829,16.4971889974249,18.7931524064381,18.0827929287373,18.9435602232125,17.9291845681792,17.254983054764,18.5464287340619,5.05543482820512,16.5969938327629,-18.4897459731129,5.68128196177707,5.60429821181455,3.83477370781506,9.08298314231009,13.2454882445546,7.56954328766798,9.9674744234154,13.5299150090984,12.7121438162624,-4.4292717718299,-1.15412339287636,4.92893830378701,20.4606272857028,14.7007318499238,6.61574887389926,8.85991403438186,35.6833708239559,-7.44129585024381
10.987142870803,-2.20133725421769,-21.1178299049431,-20.7934835084274,16.6274150032751,-4.11169355430322,-3.91500465786543,2.59125077076252,-11.1910036404989,-1.3937635546077,0.712474826753698,1.04921601528881,5.87088946629067,-10.2694717902979,7.49897504511855,13.467602710685,8.5507792253573,-2.15946651104876,1.64285099831312,17.4219077421024,-3.48051571972815,25.3278189458512,-4.2296721812231,14.4264000611881,4.08184049899275,1.0835828039908,9.0351937738055,16.7387199151287,-5.19306347885328,19.8917940560145,5.03186955035815,-8.38123343992443,15.483693448344,7.23156148376731,10.9160982927699,-5.04859641334798,6.65738797118405,7.55826001383236,4.9913410366441,6.83519743522261,10.607936606346,12.6745339760377,8.45284109015793,-6.9726688370197,6.80059185783021,-34.6569451040612,-8.78954473099062,-8.12360364671746,-11.3785631594599,-3.39302810916156,-0.386266073670606,-1.10122287555349,-0.340911172793976,-2.75267407671963,-0.6943779219288,-22.5910878578676,-11.6671181532413,-2.57807002065265,-0.384569645413252,6.39773976541518,-6.38564356746835,-3.21002682208964,21.9136151548944,-16.5889567503736
3.31620227327748,-13.869604594748,-33.9368617144506,-29.4099674155399,-5.45934214081682,-11.3550162641286,-15.8451587218968,-17.6005241603621,-19.2620288766473,-18.4904425130171,-4.65445253839546,-11.2744604351525,-10.7706676709865,-14.8183876878594,-4.445002822241,3.3384458501743,-8.22116959553302,-10.310580964346,-7.63698632616436,-2.28605809715921,-22.3437128594636,3.86481935438317,-18.1562423688605,4.45530686478334,-4.16168309985044,-6.97245507362793,-2.45521583683262,0.525897309580323,-18.5773059562625,5.98101043617874,-7.06701658232264,-14.6598251567932,1.71457064370284,-4.70049487627615,-4.29799067034144,-16.8093516823297,-6.93806284664798,-4.65434195694998,-9.56989708903743,-3.86739603760272,1.04531171522504,-0.0840266247540375,-3.17348005993025,-17.0788540130412,-4.15739776922283,-46.5472180945686,-22.9201024848964,-16.9664790672938,-26.2435517919576,-14.860067417806,-19.5164950036842,-14.1815430112764,-12.4173592928714,-21.2643710000365,-16.5281181891186,-39.4814825851301,-22.6629830783429,-15.6356074347046,-19.6180403494433,-11.1843124130485,-14.3319681103623,-17.3474789497864,3.56333802076639,-29.55475596963
10.5337169739318,-11.4891033219858,-34.2653192700858,-27.5674643986079,-13.0403436219483,-7.13235911759764,-12.5940826620702,-19.3783039342992,-21.4440466957178,-19.4181354681378,-1.73807019679284,-7.77516422803737,-9.95500986958202,-2.90279084565562,-3.54592566985618,0.243476121097901,-6.48135599068987,-4.79988513452068,-3.44915554047443,-2.52680703713903,-25.6832579079836,1.33627429932098,-18.35289543758,9.00157992329851,-0.220595535710117,-9.77890667827505,0.814904699370358,2.77428708291833,-10.43424767857,7.85540010504749,-6.26137156040866,-13.8626939124643,-2.07728887750602,-6.19414081116524,-8.72680909586606,-3.88324076762037,-3.74037708041568,-1.55271629354951,-7.89058200317363,1.68521264903049,-1.821758903764,-3.78462059815988,-2.72003628893389,-13.8462699599089,-2.11761793494754,-40.4763650450573,-21.1685763065396,-8.89012131933664,-22.4123625505421,-13.5929283857787,-23.6699244790105,-15.0411335519848,-9.10332249825946,-25.4800495302174,-15.210335846548,-38.7417660472712,-18.7130864909399,-19.05395875609,-14.6493253589753,-14.7056227254711,-7.4469922288098,-23.480389301062,-1.01896369136297,-30.6031312034656
30.1375098846664,5.39245657216581,-27.1230076489262,-21.6084979505555,-5.48842827973728,0.893073188034139,5.20145054689091,-6.81445978051437,-10.2716891303053,0.58984766163987,6.02290211671368,6.88423385799327,5.62412052625225,11.3643117588076,2.99834286086975,9.8241028975147,8.79414370294074,9.36510288318438,10.0340241444086,10.3150837796936,-11.6965735692193,15.2954601744892,-3.87376997384086,24.8570292129482,7.94114542323407,-7.38736399363798,11.472158910289,15.5078378410088,5.00926630998594,14.8413196395414,4.66362851596575,-3.83945442226736,6.13544158343302,3.69591266680226,1.74193119677233,15.5956481529248,13.2670811331773,11.6299666598447,3.55448719514279,14.3659058945353,3.4461809932241,5.5786615346179,7.92919819080984,1.20005246694262,8.22173561648651,-20.4174912322956,-5.53902274458139,9.00043002763426,-1.83887991495392,-0.795653668891891,-11.053650105527,-2.58168274875586,8.2937270376577,-16.6356438634884,1.36403789132818,-21.0199396253933,-4.14778744640056,-12.1719956549043,7.88586286460402,-1.20115280839483,8.37755679253454,-18.5781305698196,8.88495597949278,-13.5244881979918
40.8891485284008,16.9945503164442,-20.8787676667387,-19.5526802874879,4.64621372149162,7.39479966434675,19.3795659156435,6.75184555644606,9.09173920520796,17.9281139911365,11.9965813087933,18.5117048738338,12.2808966593946,19.4787945409215,6.5067028903097,21.1128064066029,20.3626529130723,15.3848016046614,15.8775825529868,16.9054322541081,1.60177036675015,21.7551777496784,10.7763847982964,30.5864375503947,9.00728583183958,-6.1778488252382,14.1467263571492,21.1211868460018,8.07796512591663,12.0816334612712,10.997876379041,7.2371120412666,11.3125569971209,9.90900600604556,10.7638786885044,21.7907961629914,21.0246576812466,15.9619399320875,10.4310355433621,17.9432789163444,8.8636790313588,13.9463251186232,13.5582870223388,11.3317987713743,11.2667292273186,-7.44841024250379,8.1589534515128,21.0569537262887,17.3848103005538,12.2285028541841,2.44099906444342,7.82622835480025,18.5728704427788,-8.72661976663952,11.7691069082649,-3.77436066399619,4.02355727859873,-9.20887770924165,26.2107321010618,11.4227850022081,23.0176011784228,-5.37730520947307,20.7599947528391,8.2300554400726
43.4207802202439,22.9899362278892,-7.96229675287001,-10.8854612151256,20.7358086425353,20.8210062904606,29.0058364724173,24.300680784027,27.9891803905021,22.8564887354135,21.901765200887,30.3957565609145,13.1319833675916,31.5490962414459,16.0518556118512,31.2911713611688,31.1581107745968,19.9301178319371,20.3188251545562,24.3145371328985,12.9210937963645,21.6771490169797,25.8992473779127,28.614206721977,18.4437679893379,3.54871512005199,15.5953059121436,23.5379173192279,8.90280668965011,11.4049287587228,13.8574854831958,18.8014170976059,15.0541076595843,12.843832296559,15.7274858529375,24.5170981590166,21.5057492585885,16.8969103678154,18.2064312024714,20.8515619955594,15.4931871745116,20.6624486685389,16.129300975471,13.1191640153226,14.2205883424045,-2.74237495433521,18.5948247463575,29.8703874415233,28.9075289523224,26.5029610245707,13.7993456942121,14.4970115313807,21.9887900601084,-0.475402360036556,17.831406705383,8.74357960345601,10.5155788730912,-6.06875058465552,40.0685111355184,21.5032347559053,40.3302879537783,13.693362526909,33.9099997527654,25.5570651386622
61.5114774103038,42.7129042676874,20.6436458347263,15.859765475638,52.1302729322821,46.1861871638545,49.3628708148631,54.3720476998053,48.8007023351472,35.9230951103197,45.9742064075822,53.0672304680511,32.2082854362427,56.9410990450796,42.4406369371576,51.0945660548415,57.4076692336054,41.8434541473401,42.5535565507088,53.5379033378356,38.3233014315184,35.0057622560067,52.5182440267908,43.7721274260422,45.6534690350582,35.5155508565926,34.9406251297379,40.4616025736881,31.7874374838474,33.9412907774776,30.4488328573566,41.160128372309,35.7338307017226,28.52009294913,34.2643701329342,43.2441632474482,39.346297144931,36.5832929675526,39.6662195071623,40.3629768376621,35.3911276885306,40.3908190398597,34.6102375241283,24.5582675786746,36.6314635385747,14.9992928991545,38.5836685087461,49.3814864134812,42.5818129520989,49.8294594292275,34.7167949131969,30.7191543333814,43.1598935705766,22.8987528947562,41.1516930040003,31.1179641071195,32.6532138507734,16.48812572685,67.9501354605995,44.8891319176093,69.6693214801851,39.1893530784352,59.3854016382832,50.0703221215818
96.3299868417794,75.5450806171574,53.146444473087,50.2588116728178,89.14170400702,73.6685251670307,79.9436458712287,87.77841244775,76.7470912253013,65.6658327943705,79.882720977598,80.9384856703179,67.2355711029148,87.3650162008067,77.5421642868167,79.7537421381254,96.930770883511,76.4215667244169,77.5293486359846,102.280975583551,76.0806263790595,61.9389908783915,86.9331812195267,79.9118917773345,72.0260180307943,74.8864675387353,67.0189482531192,71.7129585471684,72.2699310502697,69.7570572821714,63.0376450069071,73.1761300169054,72.0398302239427,59.3662413592268,68.2319633973389,75.0530975980482,73.7367828477609,70.8909597096615,69.6523602551571,71.5760760067112,67.0658343621224,71.7172500440806,69.9051889981159,53.9371104186537,73.1605626367504,46.8399582829698,68.5732209042401,77.3718400081049,64.8463273003991,76.4533092921925,64.8011614453162,54.6346559882194,83.443830049943,58.9585179995564,76.5946515875434,62.8594180875051,63.6739912528841,55.310832240119,111.518136014795,81.7947287069568,105.490045768916,70.4099697243296,95.2503916409075,87.8429087619186
119.218643982069,97.9765638943684,72.5604338035521,72.541696308655,110.174017087233,88.6568270778306,100.71950506051,106.009036977098,100.835530154226,89.7839218290893,104.605803442464,98.1190113429432,90.0017178675857,105.199296770584,102.119884434248,99.0027576053869,126.542896494816,99.39704582604,102.560190716025,143.070582835365,101.236786072189,83.1346968235369,110.336126885892,109.203299873484,81.0628235682435,96.2034530817156,85.7501972598848,95.6537883353874,98.5032468399081,88.6779780758019,89.7327890756453,96.2924660869582,97.8219350999939,86.587376774538,91.4363582717718,99.0789999230147,97.3371357751037,91.3478191872898,87.7451971802612,92.8185378378516,89.6554009993277,92.7215992768723,96.2388721967781,81.5726955734691,98.6784654470984,68.5150091404624,88.9542503364453,96.5312657646275,85.6156308725247,91.0835554598792,84.5236743227001,68.2875712280755,111.904366496438,83.9003342064602,97.5297186303426,81.4451048747692,82.3970220798104,82.4205128746905,144.079563016921,111.078280244312,127.776693303474,96.8128974925403,121.478843666955,119.272288863584
110.795631963085,94.5747242147096,76.1933875110583,72.1421365177053,102.770670312153,80.992142208019,94.9119845975168,98.9860635542474,98.8053344171143,86.6606081650044,101.34776218038,94.3293429226266,83.3801306066082,98.789069681599,102.227948537149,93.9355151859851,126.170480872051,94.6912029946014,103.100214861875,148.84103493206,95.8019835711418,82.0253684374089,108.022482168663,104.274307420074,75.6015874819475,93.1430850895712,78.5861608209664,92.7466018007802,89.8905010267154,78.5423822426577,87.3158773958921,93.079986926775,92.7378410890949,87.0090913531141,82.2352740000326,97.536584608561,91.6689900963188,81.8661822574432,79.7978616334113,89.1690380500985,85.3285226355266,85.8907224453833,90.5271155447391,81.9268161923198,94.4314110161083,64.3911629337032,82.6114900682498,93.1831212851279,84.557187364287,83.0906384068787,76.1016257912187,62.9921154605517,107.006952946641,78.7690686422036,91.5240792277316,73.7802558601281,79.6785893668478,77.7701114209662,141.774920874078,111.593768846698,120.352015836875,99.6798942965089,120.953478121065,120.663944337834
86.5804481676275,74.8568735449441,71.9678818747269,56.5119407795305,78.0594688934517,59.2647834265791,71.1840074658991,78.1571660598606,75.1081879153784,64.5633117689085,76.7329896888814,75.9329128727591,61.9630823164974,77.1480578740211,84.8905912088894,75.1216473308189,104.930042728124,73.9520074455091,85.7772079956342,123.013936773732,73.0345103914484,62.7623991969367,88.9166514048504,76.7851674915695,67.8858792002886,76.2479034529442,59.0001996625205,69.354948134411,63.7973957880292,54.5792532518839,63.0235324462129,71.0822212705345,68.1306200930971,63.287574674082,55.6400075247951,76.099476004242,65.7553047709843,57.711180491456,57.942052720589,70.8929917142822,61.9306121567318,61.7779111234558,64.8445178127798,59.2448699721249,66.9292197952818,45.8630090235244,60.8232512088237,75.1975756263297,62.4570972324331,61.8914671018627,50.2498652984494,48.5911066225037,84.3342545028227,56.0548256130927,70.6569810858782,55.7104100985366,64.0019369953347,52.1527708329295,115.974129500888,87.6901168150065,91.5910474100016,78.7534419488991,101.56641745919,97.3091017556078
69.3775467598904,52.8379670641029,64.6387176439405,40.2403640275319,55.983761006723,41.4655102734072,51.717627956003,62.5906009318093,56.7582518730352,42.3491535871992,58.3360555004414,56.7269616083499,47.1350783409769,57.4684789648894,68.303159787153,61.8175967196533,88.3438507334632,57.237483352794,66.4456261117012,92.5121770389931,55.4332506089318,42.948248626078,70.9412388958649,58.7664414697943,61.5865797847564,57.1820829974125,41.5667648174823,46.0904855764716,48.7958007007002,35.214989227142,45.1568587269576,52.9760123090719,49.0794216651312,40.7750592403351,38.7957374701029,56.0711504634525,42.1110806696139,41.8829834404524,42.2515551414679,55.5580182591854,40.3191214682974,42.6560104704947,47.0070933399799,39.6722706543867,40.4260577652249,30.6579442182414,46.2079516161808,61.4584810587821,43.726586834057,46.6422091923819,31.3328764656664,35.9682159103134,67.2949067454839,39.6783310192099,52.3457188045451,46.7337881969355,48.8530655930516,30.4193329143286,93.6753428904757,63.4818058176516,64.3263722295878,56.0970090291644,82.0038442815115,74.7127797836093
57.4608606948678,30.7170612369949,52.9431600017757,26.752204635095,40.4221785301367,28.6605574212602,43.1392086427142,51.8624675189743,48.3038996943013,21.0970490697557,53.7606221981429,41.9487505463063,37.0726537769137,41.2737107585277,56.2769002442777,52.6089626255899,80.9096161875128,44.7090007725431,49.4405117220562,70.9911639238439,43.0781473075404,31.5910500730047,56.3064335199053,52.5192897860687,50.9262815730828,41.32662244755,25.2890749740578,30.5159384086942,45.5278439155237,22.465411525369,41.298139350168,44.061071980841,41.2288680856478,29.5115358087601,32.6459223091073,45.0260726070255,31.3468555152667,35.9180793802962,33.2739348724207,42.6546742182062,28.6475125894556,33.9659280427389,40.6618534586586,34.3612229559305,29.1492684047527,20.9592055318816,40.9163507411408,53.9534661214524,36.7297804776101,39.0852129475283,21.9833407771075,26.7149978527331,54.8684142697756,27.8306379944554,40.1216752522695,43.4207711862385,37.9997677816083,22.4700080274809,81.1844969280435,50.6989078677615,46.5365562417166,44.4525150685392,65.5588764378535,63.1158388020445
43.832476906374,13.9774847582031,39.6390654840961,16.3735451768242,28.3090161468935,18.0879100296759,39.8762581138927,41.1709550589495,39.8713053017226,1.67179917495708,48.3872047656704,34.1589869279045,24.9762808812355,27.4447810140565,47.3439984977009,42.2912519379059,72.3720903274377,33.3384427880603,36.3480156241646,57.9335212660684,30.6955380460517,29.8601926250109,45.4413360921297,44.1064707675319,42.6302432574189,31.239292919954,12.6020093068277,23.109661589467,41.853813798096,15.652526484223,39.3504232965258,37.1206793638587,38.2883042422557,24.3964158887225,29.5079706597108,38.4784077406635,30.9170419883091,33.4137297768473,29.4839393852962,32.7395979997165,27.8631611215447,34.3082595271043,38.2510910484176,37.4285523789561,32.333431244257,15.0731338256999,37.3191525044237,46.1724375123619,32.2952485801874,35.5229067640551,13.9582382405128,23.1550263109541,42.5101961381775,14.2292975483198,33.5323886311513,38.9688695454731,32.6324361387947,23.8811428413123,68.2803804087542,46.8727973118145,36.0076033939643,41.5644207050958,50.2935240663275,55.4282052126093
29.6098454771922,5.51150316915364,28.9799240055754,11.6345526122812,19.6526583030771,12.5309716311005,37.6896837182141,34.7330865306149,31.3840739565067,-5.69376249093782,36.1226111981253,30.1328062003692,14.2249427777581,19.3508584456762,43.7436770962895,33.7128424300557,58.4427515402331,27.7264741301793,29.9817137115955,50.4823339236769,22.5442806921208,30.9667773061968,41.601317110054,33.3469961261881,45.0286015310179,23.7191749213877,10.5900565435224,22.1130212629325,34.5414917392345,15.9604675573738,32.8572899261627,30.3976222358372,35.2431068787811,22.6621927240819,29.5949579412114,32.7108448102269,31.9883372252051,32.9014534441006,33.0478790379449,30.7737831164072,33.4759376143913,37.8723970785894,36.9390706805606,38.5927387074177,38.3939395124701,12.1412494886286,33.0771224466439,37.1483719463024,26.4614119265696,39.115331620026,6.40263259023737,24.509024430595,35.4127208831186,6.46612737938128,31.6741486058607,36.0835085749094,33.3526918283361,25.7280246535723,49.0832755719187,46.75082107978,29.4680979005226,41.2671325187762,36.8523174695255,45.5002926472086
12.2861309317036,-7.09221190884026,17.8319481835559,5.00242471638209,8.18957811407759,4.16091760139015,30.7833557297741,27.3977555722499,19.862261756999,-5.16004898795327,20.794152608538,15.6054870318765,4.29568231226208,9.1569817464643,37.4597368803072,20.899848331559,36.4485726508183,21.8696903895368,20.4034701639357,37.252055251648,15.1693114964039,19.3816085226506,33.7061681311984,20.2612688393063,44.123029930883,11.6995614420321,9.63503424298512,15.0745126793116,21.4440734959705,11.0402823757692,20.2969272157983,21.4311278011867,22.9842875688775,16.6799708249539,25.6692015583431,22.9585706544873,21.9279355667228,25.7963202806973,30.8240694865544,24.9198436204504,28.133629687386,26.5616387623469,26.7804716789546,26.2867096152255,30.2822346844185,4.38776332385693,23.6949208615299,22.7003157426488,14.8718124837042,38.9773665814627,-3.7071392089946,19.8242873060611,29.7657400143082,-0.735748252775181,23.2436509906295,29.1491420086684,29.2864852952083,18.0155644270742,26.5217389511295,37.90375775351,13.37293926124,31.1190513381183,18.1987068984822,30.4978056176097
-11.6126285576367,-29.7336226485817,0.628498694659111,-16.3481735473048,-15.2746033152158,-16.8648460891156,11.6807659168375,7.33190718372787,-2.47380964234456,-14.826129454816,1.57687841418253,-13.8107395137415,-11.0387107275354,-12.8491905760879,16.4327848605968,-4.90903542288711,3.95355198989683,3.5984689676753,-3.41947140744664,8.12872719754437,-2.58276958429438,-8.30407264256463,9.33922621794194,-1.59346668461658,26.4034397940681,-6.86587609064005,-3.74408847851728,-5.10493021325667,-0.0204106094635743,-11.1574551533526,-0.925289702981462,3.96584431169262,-3.70534774236139,-2.76009853763157,7.83640350521468,5.47106268869832,-3.04320386225603,2.10086627240544,10.707219795983,4.05703749827265,3.74074751088331,-4.01937041824306,2.8936279967771,-1.13931816005439,4.28970592976074,-13.1783314009041,3.08089771046888,-0.579653863847608,-8.43775272270255,17.1828279852616,-21.3736441838722,2.27478297775876,14.2444070965567,-21.3048974269992,0.385226424143449,8.07043093237183,11.257488134879,-3.74938943340057,1.21645244414722,12.1006785203446,-19.077225448541,3.60894453715113,-12.4743350549899,8.42363054406787
-41.0530771284631,-52.052321584218,-22.1573458817508,-50.1088081517759,-47.3530609588597,-46.2342778976218,-16.3484315980962,-24.3236912696928,-32.6994508697251,-39.1248399188601,-22.4544683383616,-46.1299171464812,-33.9227258565891,-40.541630528114,-17.539641176848,-39.6538184567617,-36.0571837145009,-25.8309599632764,-34.2786140012426,-30.9729910186764,-32.3440703851055,-38.4175396787261,-23.4024465533355,-30.8593108380383,1.70446912581159,-30.1472799246667,-23.321543230562,-27.9824309415126,-26.6189373751267,-40.7413799366172,-26.5968395542989,-22.1563117112904,-34.9891900451968,-30.9671010938097,-18.5251166979881,-18.265445318734,-31.4410649040496,-32.1323422057478,-17.9019725045602,-22.2642424935218,-24.7917579916444,-33.020723160086,-20.2043415348612,-29.8094243643064,-26.4829631115465,-33.0656084372629,-25.1243622168657,-24.3827971158551,-38.0608329091317,-18.4668483385287,-43.1656858237754,-22.1361893002238,-12.2089122827357,-48.3064210630952,-27.074232291068,-19.8375167800865,-11.927132858903,-33.4352295981931,-31.491379426163,-18.0215481771594,-51.5878585981895,-28.4343602429578,-49.4757395407969,-19.2363052624699
-67.2980201459089,-66.4936865762132,-45.5645262832061,-77.4099338213472,-72.5981652122447,-71.3367268475824,-37.6310723907861,-53.1816491760453,-57.6434796907755,-62.6202520850593,-44.6689295935835,-70.6025522057372,-56.7124573028371,-60.8203698983655,-51.8564649132673,-69.0694331999314,-72.3852087232487,-54.4675694587968,-57.9296438787704,-67.2639358650489,-60.9488477634559,-60.253522743346,-47.7736599562124,-55.7252287860702,-15.31733007775,-51.674450006548,-36.7879742163201,-44.3339926089392,-49.8503406011681,-61.5130973758273,-44.8522863626842,-48.7483960071646,-57.1384025095637,-53.2241362269414,-39.0382856501564,-41.9940575773138,-51.0598852332709,-59.7675938354547,-41.2759783063282,-41.0378383989596,-43.6701849770458,-47.3001933063665,-31.4273646036987,-45.0565893672469,-48.9105153380162,-44.0700275290137,-47.4746021172965,-39.2061923126144,-59.4570885495756,-43.7347241470733,-60.935691642386,-44.1352029295901,-37.3174426282374,-65.5371554366429,-44.6379448409559,-36.7332553625111,-27.9002777902737,-56.6484059576256,-69.1500962770717,-37.3212687590465,-70.3503041052172,-48.9352725240636,-83.0724297565232,-48.3378111524442
-86.0156114773761,-81.7176141652079,-69.8213664117111,-94.883042581171,-89.3954362647117,-89.9306835288372,-53.6649288204962,-73.5284874208976,-74.3339003980867,-81.4685058337009,-65.585127557586,-89.9416967425994,-74.4593421753243,-76.2575097814299,-83.166307241698,-88.7750659767746,-99.8467352807455,-81.9975010556502,-78.1656349745874,-101.040441183198,-78.6846702777666,-79.1906151805497,-66.093598846731,-74.1669199038304,-30.2295369488654,-68.499794354977,-50.3250700552426,-61.7707465841525,-70.0023779051726,-77.8795610801845,-58.1975647462728,-72.7339964115663,-74.5931565837039,-68.6639864066741,-56.9392928017084,-65.3125918608833,-67.8342249789956,-78.402998111936,-62.8480202480898,-57.2881900242793,-60.750462508362,-62.4388002284007,-45.7064137192652,-54.338908147885,-67.0580405103089,-51.942063255885,-63.6941982936121,-54.326871294907,-71.7184655515809,-58.8367857026896,-76.6654652803492,-65.6728633673893,-53.6325714181821,-80.0847850652211,-57.1959826161507,-46.7823938651753,-41.3330845094265,-70.4964586670228,-105.740082564139,-54.8657654150304,-85.2875251334909,-65.7164619658076,-113.894633489025,-79.6343180320109
-107.534775814111,-105.054151335402,-92.5480547960149,-118.485376737239,-109.330851853973,-108.442282819735,-80.9938021727857,-93.0339642776962,-90.966918544084,-106.747970317752,-89.1864175789578,-110.44379920206,-91.5239804821542,-95.8867451859488,-112.966796347044,-107.177300526999,-126.458470672935,-111.673489484305,-104.490557797577,-136.062475481241,-90.4680277249413,-101.154301550683,-89.5950499410926,-96.309933935648,-55.1189179804916,-84.1324405141322,-74.2098089615678,-86.319042131341,-93.8867415398765,-99.7421696354722,-79.67172535414,-94.7486687730618,-99.3102142163893,-88.5893693118177,-85.8911954913813,-90.353584435631,-91.6588495051026,-97.5174822877916,-88.3711572869286,-79.0685287229578,-86.879082091985,-90.8862870884505,-75.8175560941782,-74.2411109583305,-91.2088608432585,-68.7546152854087,-85.753253027186,-80.7422617200583,-86.9177556799754,-79.5098758346079,-94.0381472455633,-89.6972568080639,-66.2790019274946,-104.575042814345,-80.6279703961399,-67.5374550474005,-59.369062691815,-86.7136110102358,-136.853068248494,-81.8588605313591,-105.319627442204,-92.099929566736,-140.131916845221,-110.23080702306
-127.475591909551,-119.577105920063,-97.9151218799651,-140.894022904371,-124.226853304445,-118.457796179959,-105.474703584946,-106.938623735108,-101.764040640006,-127.000544947911,-100.508160188674,-122.959735617654,-100.718317843728,-107.633245866979,-126.975258866803,-118.336828252989,-145.480533158179,-125.541982595258,-122.385371863941,-156.0690612437,-95.2133277403127,-113.401741669492,-106.827968148494,-113.858885777353,-76.2644210073828,-90.4852314602982,-93.9063903201357,-102.508035332748,-108.226413757221,-112.742210339862,-98.7501205530489,-104.901036287602,-119.173033412763,-104.327889684727,-112.205473470631,-102.862319902534,-109.004018728129,-108.099977060269,-102.469019006698,-92.0760755405097,-108.559977548115,-110.904845281028,-98.9226050868728,-94.2996954535055,-109.954468594484,-82.074306274505,-104.180983406015,-100.77988908548,-99.2572586023582,-96.7318019151221,-100.605883709183,-98.6737782705135,-74.5053410860052,-121.528637388432,-106.149037230339,-86.6536292548324,-68.5410555394002,-99.5917745318342,-151.20260743918,-102.237679925263,-114.520846256046,-113.753462560258,-146.577935371507,-122.374878971253
-126.355929242513,-113.299986157329,-82.9359135397535,-140.122027552967,-120.129853777892,-109.762861097721,-103.002645998398,-104.023058115287,-96.7835024242523,-124.604127804333,-91.9478820108524,-118.021883039394,-92.6457407802323,-101.481292047617,-118.112265414345,-111.892933280761,-141.042106635742,-115.589472984008,-116.958531411684,-149.539574724294,-86.728855274402,-109.045144965636,-103.852296549989,-108.239311258465,-76.1832475916285,-83.1249825101183,-92.6471589448102,-96.9424757501957,-98.7684937944197,-104.685014229668,-98.2342689647512,-100.158510962725,-116.259825077342,-99.3649538234145,-112.313905117859,-93.6194544838442,-106.212870529176,-101.125073060106,-94.3647559742983,-85.032781443568,-108.764957849529,-104.217168096014,-95.4670845249511,-96.4518332669747,-108.911543277812,-77.9499333205475,-102.727296678543,-97.9779266474192,-95.6680545675445,-97.6427853592014,-91.6827299317314,-84.7120406264902,-73.6543627087202,-114.556243374273,-113.279479485609,-82.4133212479881,-59.9241416001579,-93.3562942495571,-145.656331026272,-101.690209598008,-102.051323882095,-113.257591914002,-133.974966336945,-112.013040883238
-107.671147386845,-102.575421642911,-64.4089603485683,-122.197189175948,-105.304770512405,-93.4715696760103,-86.6404543923961,-91.4277668666174,-84.7382372660323,-110.60651412996,-81.5039191148779,-104.798845442808,-77.2919861626559,-92.411801574679,-102.904446990541,-99.1060174525013,-119.583901624877,-102.362719963341,-99.1250204231748,-132.545120919813,-73.0569776110149,-102.63318620751,-91.0913797834802,-87.2176387606698,-67.9901689902945,-76.2152868175747,-79.6923215904234,-80.3602866322366,-81.9652284107825,-90.7831328270617,-86.8472752076477,-92.3595034651619,-98.7938179503768,-82.2874346303488,-92.5019630351027,-79.22907556619,-93.4544375345994,-90.9393995046366,-81.7386966184733,-73.4421867400384,-94.4349277453742,-87.5418096874938,-81.8872640448199,-86.3879170549527,-96.7521485425787,-64.9959622136007,-90.7563885822719,-85.3819424982452,-82.0566280564248,-92.872981299217,-81.6030095151808,-71.2491140821337,-67.6345974974134,-98.8182007551091,-104.13209429572,-66.4036596026332,-48.8530460327399,-77.9435796151528,-133.405755079093,-88.8267664659494,-85.478033294171,-98.1665952376507,-118.488200694781,-97.5502896434486
-89.0301894786783,-92.8661001304763,-46.5620979447081,-103.958775290574,-89.4879972566221,-80.2216913584212,-75.5490953599665,-78.6312508463941,-74.3015480094095,-97.6567135036066,-74.0824520215715,-91.8480186404777,-63.1746437265466,-86.6156085863952,-87.9622218634496,-89.7305013122258,-94.1740050634428,-90.7759324708437,-79.2463051411032,-118.055535532226,-63.1980148022376,-98.0053605068304,-78.3280605685211,-70.9296317530914,-63.2827836222545,-70.3884541411723,-65.6663864486488,-66.0299988535349,-73.8074945798425,-79.68302562353,-76.3845845754917,-79.1106375280806,-80.6713652331068,-66.1436009871599,-70.8181799665282,-70.0362672984065,-77.7191983274998,-81.7372728685105,-74.8754117699106,-67.334796244197,-76.1613517816226,-73.9044999368539,-70.288674638389,-71.8565284589729,-80.8743655875128,-47.7446958281607,-79.5488121061302,-71.8031478375495,-65.7802315587093,-86.3772439647229,-71.5009759918349,-66.86096434511,-57.7078629569799,-84.2565442900211,-88.3757687569291,-54.2744404698678,-41.8133287963917,-68.6256595406003,-117.711482487497,-70.1132926366283,-76.9402149021486,-78.589127002016,-97.7845116549528,-82.5373943356546
-73.1036921629722,-69.8002481210202,-25.6399771289783,-83.7522065291528,-70.857109061517,-65.223107112412,-63.5259469226766,-61.6257550975258,-60.070001484775,-81.0957118577873,-57.6001310874457,-77.3278827178058,-46.0912688944312,-72.5411914869882,-64.8963826719718,-75.8338836253492,-68.5663186480398,-67.0663346388196,-56.1655970155899,-101.798956014457,-53.4821655402387,-83.9842487276764,-61.3424253698433,-58.4639221964732,-50.2507741569163,-52.185107050207,-48.3121036298777,-50.4277866613469,-63.2452062512228,-60.8395444818331,-63.009514646903,-51.9015856140869,-60.9313132339603,-48.4099816376173,-51.1404972565563,-55.9529316976455,-54.2450483269115,-62.0168299833539,-60.3119702932343,-56.2331423233887,-53.2783608908602,-55.881663522909,-53.6647903670491,-51.0656105517212,-57.3880301557442,-24.5658854558004,-63.1711710747498,-51.5798938603728,-44.1708621915885,-69.7798821981814,-52.4069110403082,-52.5759514870313,-41.5715155592687,-62.136161314307,-67.3639853229156,-39.7523719344461,-26.0793357510837,-56.0592024910635,-92.2870795487624,-47.2291283745648,-64.1755407412542,-55.3671046364726,-68.3552315893253,-59.3202503024935
-63.8592425464563,-46.746655057326,-16.7258454774964,-65.6386217975556,-57.8925902031307,-52.0726224549017,-52.2198247998401,-48.7683689728929,-46.5230828825611,-67.5245907299985,-43.4885074494552,-69.0583268294391,-33.7255854591779,-59.4143085054726,-46.5937642096279,-62.2699016683148,-56.3857617809693,-43.4679093565595,-42.5203527337878,-90.8902533373385,-48.5898955296971,-69.1874017327113,-46.4341098581415,-46.5862780842218,-36.9831700454692,-35.1450256034997,-36.7488374816488,-35.4820752596305,-47.0009711177141,-40.396960353807,-52.0616888207236,-33.9574265397981,-46.0695702582134,-37.3950918388308,-39.5060934824765,-41.2856995325977,-36.7098748664356,-44.9013207538374,-43.7498455076039,-45.4860362175072,-37.105265046928,-43.016301990084,-43.0004281165552,-37.2459563859088,-40.9958825201406,-12.8637517037847,-46.7129180371726,-38.8865071922269,-27.2623308511573,-55.8729364982856,-38.1335258112659,-33.3930637054956,-31.1229491855379,-45.2460441865397,-54.0884901843805,-30.4563674194965,-6.34744874966226,-38.3953073043309,-71.8432577234777,-37.1475790976129,-46.9496668879906,-38.7129484185971,-51.7330331170284,-41.4924032189078
