-29.5785466710719,-27.6936392851702,-23.198860134174,-23.4163494479319,-27.7661357230895,-14.2093018321816,-19.2840524865321,-19.50154180029,-14.571784021778,-16.9641664731147,-24.5037960167213,-10.4394870603783,-13.4843374529886,-18.4140952315006,-8.1196010469609,-9.13455117783101,-2.75486464093316,0,-5.14724709226986,-1.37743232046658,1.44992875838588,5.87221147146279,3.98730408556116,8.48208323655737,12.831869511715,12.1794015704414,11.8894158187642,7.32214022984867,6.45218297481714,9.2795440536696,13.8468196425851,5.7997150335435,16.3841949697604,-2.75486464093316,5.07475065435056,6.30719009897856,-2.10239669965952,22.2564064412232,-3.4798290201261,-1.23243944462799,-6.01720434730138,2.75486464093316,-27.1136677818159,-9.49703336742748,22.6913850687389,-30.6659932398613,-36.7556940250819,-37.3356655284363,-39.8005444176923,-41.0329838623203,-36.3207153975662,-38.4231120972257,-34.2183186979067,-37.9881334697099,-39.2930693522572,-41.6854518035939,-28.7085894160403,-37.4806584042749,-29.6510431089911,-37.8431405938713,-34.9432830770996,-37.6256512801135,-32.6958935016015,-35.4507581425347
-138.537118238162,-129.375786378228,-109.860572793022,-109.805108056484,-129.139808818958,-67.7127987920799,-90.1974532437135,-90.9394493242873,-69.7952507020948,-79.4796327847127,-114.095059962707,-51.0575531443561,-63.8378807237272,-85.4895544113549,-38.9623003648887,-44.5031799612533,-16.0441238298712,-2.24738957549811,-25.3660237228926,-10.3056997093933,4.70498574409493,24.238687574814,15.8023200940732,36.3324838101495,56.4646453897357,53.6586856446597,52.3552063062442,30.2486092014562,26.3381711862098,40.2614100709087,60.5555962277144,23.2422256894567,75.0602631598994,-14.9566772610817,20.1647684382162,25.3601975463653,-12.7306890193601,102.416297565243,-18.1066309502414,-10.125186886661,-34.2062195166509,15.3916558885975,-132.858528486618,-47.2380998125418,105.277722046857,-140.217198379291,-169.765157623595,-171.574655483313,-183.487938895917,-189.480828821178,-167.048726017819,-176.952053958326,-158.957809025294,-175.975536862614,-182.239924294039,-192.504277880012,-132.596779961175,-173.060104188593,-137.503679861779,-175.722527601962,-161.817776962776,-174.255567142195,-152.31390770289,-163.500770192169
-254.979620328451,-235.85272386965,-205.435457631368,-200.732253381531,-234.050468104565,-127.199313794112,-163.273774210632,-165.326857300406,-131.637862190714,-144.988957596307,-205.992501525707,-98.5972961004972,-118.103271143017,-153.402763044183,-72.9791337314698,-85.8000065508527,-38.8102508823261,-7.83645118774185,-47.5415190507292,-29.9871971470817,3.67184321275501,36.6717943318526,22.0722838826776,60.4228121686605,95.8575422044719,91.6586098472338,89.7262458372833,45.7380677210016,39.2885077498765,66.7001923796685,102.233514769697,33.9310889300619,138.03411025618,-32.0554200868463,29.1264547293227,37.6080620325965,-28.0710639551027,189.497644183632,-36.7690696041532,-27.8858914154032,-78.6876031020922,41.7315097328743,-262.115926597407,-92.1745574374996,196.949852032321,-246.333661289309,-301.655406533857,-304.56356224769,-326.503260104497,-338.333822165175,-297.356065462592,-313.751280108492,-288.110770660396,-316.692843564365,-328.694128841029,-343.347247040906,-236.143365282049,-309.159440638991,-247.436027354625,-317.65487647081,-289.926019205063,-312.451839691876,-276.501336393569,-292.11900014645
-222.637049577788,-197.808408489951,-182.840004666641,-168.06961503421,-194.496424721887,-110.846947606431,-131.373705807429,-137.528899649895,-114.777128575127,-119.266496420213,-167.170919641022,-88.0986799347679,-98.4925376703466,-121.715863421952,-59.3830607287041,-76.084182382728,-46.1426083463345,-3.19293608415141,-33.6461646864521,-39.7483339831941,1.07928713304257,25.8354003429476,13.4887331546346,54.0072422725559,80.866448210083,78.2503533162274,78.4161429769427,30.438259148492,27.1147182546937,53.0317725468995,85.7848648691807,24.0517080561689,135.918536882886,-29.3315589791516,21.2895696857335,28.3298411562683,-19.518377702114,185.409200305111,-30.6169472830725,-28.1236256470605,-86.4269573812531,77.0213093049106,-256.213684608603,-75.445596352822,194.683366505094,-194.824720589644,-236.467855656101,-245.992548092834,-261.523275011306,-271.7989893885,-243.036264705635,-246.604230861658,-245.891327297174,-263.609794052449,-272.257573993401,-275.144743244072,-188.204836430912,-249.773452789459,-203.577879741595,-266.115658731872,-235.066613056208,-253.361907986195,-232.389610290182,-237.993444617693
-78.8571378591333,-51.7160125809814,-62.3125659686595,-41.7239350702625,-48.4810129040733,-24.4364137429433,-20.440350541872,-31.8302706881004,-25.4955823623829,-20.0429875852083,-32.9118008311804,-18.8173550912003,-13.8947204222007,-16.2506310875887,2.21494896829638,-12.2271675165727,-14.5466069813302,27.1289561664926,19.3915239369517,-11.2669409791444,17.9439718770298,22.7331115613002,15.9847266979254,50.1056253351417,54.71364199629,51.7719243304662,54.8102814284524,19.5362668587418,23.188816036352,31.6638868961358,55.7587794533471,25.4437450500662,99.8317610828874,5.20940438938472,25.8079490839088,31.5975922071625,28.4421781577385,124.040833025522,9.72112046741298,13.4409925906478,-23.7562337278967,108.937581497069,-108.628349778332,18.5244809733813,128.819069573831,-59.5895433976508,-44.4165866004025,-75.1978232195265,-66.6845645231866,-63.902628164232,-79.4910576568088,-49.7292518945005,-94.0710260985843,-86.2441643450257,-78.4439791023366,-64.9499281774096,-44.0799351054125,-61.4809493526944,-56.1944189949604,-84.6920324032353,-58.9853856945644,-62.0579312760261,-70.8926133178689,-64.8856649110426
7.39200400772648,34.8290042523477,21.1486253343049,35.4415793782796,39.5183078733722,46.5415741641648,49.2351078324131,37.3774245860383,45.1041700676861,50.7732319132629,45.3848923992099,41.7104708782355,52.0270664507325,49.9307880876078,57.3192566802653,47.5835811022116,39.7092094650923,67.4785413962413,68.0936721636161,39.719594810102,56.2179849658242,51.1150867318405,44.8085852610651,77.4945581308309,74.2259517462289,67.1759933394784,66.1450382858578,43.690902192465,49.8064982945295,44.1077771261374,68.0494702680055,55.4095801187148,95.7546059987313,44.3232583744083,54.630446369601,65.7508465555056,79.1675697237042,97.0760329965806,50.1647358434104,65.3967051765708,62.5782071051405,121.009792636445,20.9408169380688,113.540189333868,97.1479179455002,-34.5704728595196,36.3485426693533,-23.6740718959744,9.19578827311161,29.8680790821504,-24.5946820648419,32.6724885440334,-34.2940220725103,-11.7523673492067,12.5422766053063,28.8532903040852,16.5608697574753,28.6581054247471,16.934544432027,1.75118872740623,25.5665916702526,30.413064105315,12.1469632008626,18.3320708819398
25.9622155834796,46.2538728901926,47.1788127439023,51.5532018605542,55.3858583453693,74.4256741530266,66.7651246921223,58.0742471506467,70.3348134478729,75.5924992897757,55.6223579120778,69.5633606517837,76.6055878225887,64.5032491287511,79.2448928953413,76.1118932760484,76.3243583705634,87.9111293695942,87.5468783534125,67.8160733392523,84.9185337454921,77.9483531696019,68.7840388841586,100.057299135139,98.5781175475367,92.4763529214906,79.2388177244678,67.4042042514472,70.0036705556658,61.69765855147,80.7107100674226,78.6121482985331,101.787606598733,55.9819552700324,70.3449771371882,90.2649958553062,92.2929993371921,91.6560791712467,56.4617337093645,78.5957333187016,108.04875171632,109.945817610029,62.7942132712828,144.605563719512,91.3136569134269,-87.3509076092993,9.76510291089389,-65.2890668844099,-20.5822306633385,13.1043711815581,-49.3596440753033,8.1151904328036,-45.7492602446306,-23.6721457999459,2.45120913386808,14.1718885905962,7.23988780743902,24.6980252045319,21.7006893833868,0.715186840199369,24.6268688774899,26.2697606778908,16.1515009134699,21.4831267373989
62.9481152354177,72.4406259660927,79.2197970296102,82.6138918517447,83.4139735879348,88.7742507383621,91.3434438446479,83.5627034958686,86.6461440534131,96.7296786776164,78.511196079232,89.1774934874983,93.3961575399123,82.298078506815,81.8478301979598,91.3157960330599,78.5487009831486,85.3081996472337,92.8418753707454,63.4337501728643,88.003481297566,75.7789070518563,64.4107385399329,90.7989800402523,83.4889540603754,84.6643560956989,63.1492145697323,58.7839080310429,62.896617413285,51.0835890874535,57.8278475997857,75.654760652538,84.6074316104901,45.1624368925132,53.9558149847196,79.4981733315208,79.8286568960163,70.6291058098212,36.6849043213254,57.9342102546957,105.708529841583,92.4863175083769,71.0922369423521,128.229345131635,68.3147910270923,-55.8488788985967,36.9410185617976,-23.7600017374669,14.9178860039945,50.1309481103115,5.07460632359668,43.4745297556129,15.0972229846651,30.5584681686986,49.155726432964,56.8136704863887,54.9405535230393,68.6758551312383,70.5372728968129,52.2318430165326,69.9903085871068,68.4524673499142,59.3338363377226,71.2394405097074
117.014210272005,123.947755895875,119.569863193673,130.331616741189,131.672615493172,99.6097749891654,123.924425542653,115.306822618353,104.091431279376,117.555880889897,119.986106814135,103.84264627187,111.507285694253,109.862567358812,77.80197003042,104.886409192755,64.1934362762789,77.0976457062811,101.82611115289,52.0103046490986,82.1617434023629,58.983198875712,50.8615140873574,73.855827807176,55.4216304711941,62.9146553024965,43.2998659296764,39.5106748629253,55.8813281384085,32.2177256499655,36.4430158578957,70.5184255261144,68.6433557109454,39.928672543498,34.635525278304,60.9683510586034,76.6706948780197,54.8060148903973,26.1762533346931,46.0707045636631,93.0930367068869,85.712040097303,89.8393917420017,116.004411573199,48.7708107499248,82.7368801855958,139.78498225288,117.391162943822,132.921989358512,152.356305011683,140.85980109228,156.837197174911,147.632431890715,152.706806848637,166.545006845541,165.125987654212,160.639142036854,169.962171717212,164.311317339407,155.181660290721,163.876822003891,164.026818323952,145.362568795759,164.2611967591
152.536759072409,162.507361972254,140.910710645508,157.403661843096,167.251541341745,104.182943877777,144.202904287202,136.860259493456,114.883531548566,127.994828628666,145.975825124883,106.192846207695,122.515017239575,131.214179375233,75.3202534372932,115.683029193881,57.8680102455903,76.200609247918,115.87658644222,51.922392002445,83.4851458019449,47.6159509622462,53.1491615283326,73.3514563803078,44.3752454774484,60.1447432639096,41.7328378836069,39.8319049009714,67.0611466439701,34.4185740775029,44.4090387243533,84.3491134729518,76.4749507916505,54.0428948071625,40.9223694656558,66.8976450802061,94.7852484421288,63.7507910783927,45.5819967002179,66.3083780980996,105.442603756808,95.3078443752281,130.998580428024,131.40301986415,60.1812997121698,235.187069621273,237.439289147039,255.383000180101,245.693075745621,236.195316522432,263.448596481865,257.230438818216,261.644796000893,254.553175023389,266.27143027692,253.526613718364,244.720514834434,252.60232867574,239.913443775295,230.958551178974,237.266342167018,240.885858643715,215.63415772535,234.935594933827
178.049931081078,183.848976964177,153.80467475513,168.437594741383,190.107250671178,112.302442264476,159.82235043832,157.862745560804,125.420234127025,140.432091371088,160.532255881979,109.571175186925,131.290077663985,150.808451002689,83.3561087784663,124.887021735576,64.6464990727599,84.419127705305,129.098414414068,63.9712372773683,91.5832824949005,46.8615010320017,69.2230923055914,82.6352361998923,46.75484643964,72.6633326499405,50.0504787008012,56.8715611045249,85.4876878046051,55.3120982712199,64.6109212896014,108.920056453271,93.164041858991,79.17157023907,65.7140556574153,92.3912381331558,122.642913870322,81.7040213388536,83.9139732613542,106.864941695434,143.167673579171,114.872560697612,194.540388493811,163.432748589813,84.5496483366631,337.101622349103,300.680992391223,338.859200963172,318.556277771377,287.595521947403,332.515618452618,310.887298505545,323.554225705756,310.25287097526,320.756014240272,302.758900927125,286.03808303415,294.795524127737,282.572767373611,265.564705017443,278.712357352004,284.903559590466,261.658241756855,275.673464150496
198.751905805789,194.086080137338,171.398567097657,178.693506441243,204.647434559846,125.108957574879,170.647665209864,177.778425298193,133.728314484328,156.984774554674,172.952158564825,119.521449060958,138.883954004737,166.405662923528,96.3465555318203,130.441893938331,73.3749027256787,92.1143360293212,134.682624297839,77.3474578040037,97.8497385668313,51.2169177216169,79.5827240375125,85.1213705411048,50.6042088811448,76.611134252005,55.426704005355,68.7447329277882,98.1360983730275,74.5730429271856,76.67665998835,122.480152414891,99.8861191918739,100.472107730444,87.2399480090507,109.059043157621,143.474460548283,88.6296900799601,116.782437930661,141.323093296447,176.442928510573,128.810022257562,253.012489976948,190.861418783073,94.0767899827782,381.360300306122,342.678441772897,375.261373122703,357.523881974337,325.600155134688,354.077907517146,333.817724879744,343.808362751997,334.534337077926,348.085496401827,329.646026432971,300.94392967014,314.068596362454,299.638259778942,281.198957754227,302.553708639948,308.434572319977,285.678978691176,297.46454554394
197.864012316214,186.454965980739,177.43082624142,177.557803721536,199.721527628064,127.175275703929,163.542750525127,180.382865085494,126.847156269193,159.476311450225,170.698362214367,119.906335208009,135.885196609894,163.525739218772,100.465806260043,126.732502836037,77.3234188578514,88.0581212005879,125.737081623423,78.2341257251136,93.9213942798035,51.303528717942,73.0106191571832,76.8624517616512,47.2473472749986,65.5513177757473,53.2318938965472,65.9022801760389,99.0064835676896,78.7301371756072,76.0061525298836,116.908856476475,95.9878924021942,108.363390200877,96.7460677416104,105.876185760601,147.762242617494,80.8347906864815,129.267174611183,152.137827097689,182.095388355536,124.973240397935,272.387741667984,198.066341917249,86.5069220563537,374.264968441985,353.140225878048,366.497112054696,356.024560833744,333.508694015116,334.606642066373,326.16966728306,325.144136602276,323.686033333576,342.759133546354,327.281468238608,284.226135211578,308.265893149389,281.956055751739,277.92664084329,297.718261571645,302.764554398214,270.303667593229,289.515648177301
178.842891204766,163.742518235211,158.869384800387,155.395133682908,175.145447735775,111.003219005327,142.461293814905,164.964696786826,107.504016382437,139.990372751901,150.707452355497,104.055926649383,121.151705687391,141.580475790424,92.765374687367,112.005729299198,75.7598340180225,71.810306168282,99.5823186447105,61.7946809506656,76.587037313802,39.8549467833448,54.4254859843807,58.0907066279965,29.6852302173626,45.9215736463539,39.4550314637928,51.1310903109064,81.6962950742203,63.1688680037954,60.7919015088096,95.5932369582081,77.1936088684355,97.8125953689905,88.2507384848471,90.24532760411,128.984914401865,56.1325260302298,117.177219715326,134.14543737009,156.096738386876,96.8923639857694,248.016711826282,175.197464358579,61.4887670232407,318.014406831145,309.672769157415,308.431449456345,308.211152920434,294.314021599307,282.135146344052,281.647246259442,272.862790917902,273.192216051586,294.118464273498,287.471266318389,233.509571296846,268.646129100933,232.357669067419,245.445710299128,255.040361158132,263.107058658802,221.4771507037,251.061820024818
153.604300800059,135.209326233554,124.75773841762,118.646047492587,139.912158906058,82.7156163596239,114.83729439268,137.146513895197,82.405191528905,104.606776748382,120.300980189576,78.1677503955201,95.7688100037352,107.628234295222,73.0118328177975,85.4537340094454,61.6646546733618,45.5914792199394,59.1049821602071,33.9190994629989,44.560353075206,13.7420719660542,27.0779262117376,22.4117309485808,-4.70252717789194,13.7374734698437,9.39104868314237,23.2267269055888,43.0206885511642,26.6855955313921,27.208661376784,55.6114649707689,29.0326332874762,67.174930883404,52.1783712646218,57.8699024741507,80.9187727983588,7.0614050135937,81.4654903564262,89.5410803612541,103.790606189334,43.1401075899545,195.29922641704,120.528096276798,7.19274302903185,227.059222783365,219.624403273356,219.365878178074,227.522995066826,222.145769185616,210.036362838526,209.949498245585,204.731841899542,198.339206456138,217.439761454628,222.173796694524,166.500084677785,205.710164656016,170.572697338823,185.354302309104,189.084243202779,199.426865552973,165.910822468007,196.696822317403
114.16245545114,98.1481579962363,86.8600472303775,74.9144601328105,95.0969546224025,48.8892902734901,75.5368123111653,96.6068865259246,46.8987777815579,60.7475217041904,79.0231111179953,43.3948210011596,56.0732954639244,65.066496026462,38.0018927580103,47.9862189079833,29.7327530986357,8.11691113514619,12.3001173310373,4.04245858814371,-0.396165510099096,-19.7697942615197,-11.4617519126963,-26.0628084776541,-46.3483548210933,-30.4266368837164,-29.6967629225477,-16.489030028106,-6.79265276112208,-21.1282246403691,-19.3885443871058,0.485207139854438,-38.7194639997272,25.8494400942583,-2.41896937078959,5.19050830355407,15.2553725810386,-57.0430834490794,33.4703403409362,34.1847806894334,42.8078954191745,-19.9359642325235,133.163829436836,50.8527853422512,-64.2495754679224,134.241924294851,122.021173379495,132.955018171955,140.636576394663,142.804463008205,134.296433729273,131.961247985482,134.687526807515,120.93636937927,140.293189498136,150.457168742883,97.7113437534468,136.156812550318,106.697958350418,114.282128914803,120.638186720054,126.237502575928,113.657801899489,133.536767591815
63.4452321468872,52.7872079559243,50.6755214206385,31.5901684945595,47.3539697608909,15.4241926040749,30.5220971051298,53.3292827329716,7.32761686561244,18.9063340078185,33.0891559844374,5.34093122258596,10.8760194014287,22.3708377969981,-1.26815261400577,7.65696445592536,-6.24290618098205,-33.6580174512523,-27.9964480239488,-18.8481765480917,-46.0232190654214,-45.6142927884799,-50.016000348804,-68.4645668224001,-76.3468206002684,-69.4495047579264,-59.0415040648712,-54.9874399820265,-50.5626677055699,-62.1902367678982,-63.6041408435057,-50.8377034768285,-93.9602564730689,-10.0721486682873,-48.7179271859339,-46.45873881503,-39.8150600135397,-110.756974438972,-10.5871032400459,-11.507966227307,-6.53007963689482,-68.5923002295344,80.7970772308077,-8.05960367293939,-117.674395109995,66.6418562051592,51.9982259941346,71.6076320564441,71.8811807710058,77.6733022674197,71.7806158014939,68.9470359219542,69.6973203619845,57.6325935437971,80.2976120173122,86.5198871627176,36.6131868475398,72.9682844547844,46.2133202325417,54.6459462059209,64.0887398013411,63.5742429916654,63.1968781834802,70.4095198637218
27.6215364682964,16.3400879094105,21.7691201976708,-0.345039646797745,14.0530916422141,-9.46596678765222,-1.64505714857279,22.5725982645758,-17.9665469161604,-10.938403389144,0.309265638134932,-19.9147745299433,-20.6582381066286,-10.0822728757381,-23.973851343507,-24.6431020688913,-25.8019070373239,-64.5271437543998,-52.9034974996053,-31.0025833841549,-77.167294614545,-58.6752278328232,-73.3001074876288,-95.6242696455135,-89.1102286787712,-95.1096005004417,-71.6749289005046,-82.8155304504582,-80.3036693640645,-89.8557308662956,-95.789353837325,-86.7627280439288,-126.577051088421,-33.6956474396396,-75.0421259010167,-79.3485841929442,-70.0135979963154,-143.932946653116,-43.3469790859945,-46.0509122298411,-39.5387163516162,-98.9447432507116,46.9318476842156,-45.0286415739109,-143.14660824116,27.8845659018421,14.4767165327489,37.8518925267065,30.4819986996683,38.3923323940787,31.4796927309618,28.4286867572255,20.0211880761055,17.3215580523709,37.9291365790015,40.0507267515772,-4.06257404411943,30.4281524004405,2.22293612201158,19.1422795977764,24.970694621824,25.9044062226015,23.6095975342765,24.7923685079595
10.5654550259601,-3.70659670744028,0.384756177818199,-21.2270478869214,-4.54502818496137,-24.8477016394649,-20.5997538355339,-0.860203777185088,-30.1560179987875,-31.4391894275323,-16.9976382364982,-31.1706753957341,-37.0705908230514,-33.0749080499116,-30.4995981822543,-47.4431529312434,-31.9629172495496,-80.9843454338264,-69.4625090781846,-40.1555600847066,-92.4809257049164,-68.3968037672597,-88.0520390725142,-115.628192386628,-99.6615416256749,-117.382156908555,-82.0118724598662,-105.1748636603,-102.189909584033,-112.479901313862,-122.275423630061,-112.598034057639,-152.060424472888,-49.8841486761104,-97.4706519283299,-106.618850297853,-88.7739961310904,-166.441614328017,-66.0376670474702,-83.3280777793047,-65.0294356065294,-122.981956111248,21.7600945287958,-70.8947308132008,-161.10163122677,4.21879831696454,-8.25589125893814,17.1494132490691,5.65172769322282,15.7970318393331,5.34744284515705,-1.43518549895254,-12.1742087459416,-6.54305071608784,1.8990441090858,8.96394187163371,-25.508933666056,6.88686901339015,-23.1810542913291,0.366885919186319,-4.17364542559671,2.64030783032961,-0.446344806520741,-3.87365190229812
-17.8496098571615,-30.8624247345683,-29.9495587928024,-53.407133612035,-35.1685739180459,-47.2382294311303,-48.1248153907271,-39.1778150599952,-53.3157733403403,-59.1851472329231,-42.8024355876773,-51.8366683859153,-59.9516311916939,-62.1005618407222,-48.3855664402462,-75.9042703455607,-52.1150868109033,-100.486766675087,-97.1116863469094,-60.5846517307032,-110.283895732055,-89.2702984915534,-113.295098009109,-141.902879892544,-125.230371274477,-148.559269512725,-106.324889517291,-132.979664332826,-131.645959789668,-142.369446314862,-159.898491548502,-144.190962555436,-186.41757027484,-71.4715655353642,-137.388194598236,-148.923825745525,-124.589471356542,-191.424148235619,-90.6244053187794,-135.189583806318,-103.446096488294,-154.620707178511,-18.2667522109441,-110.215060444272,-190.573006681826,-29.8555327840495,-43.3549370202476,-17.5991705181823,-32.2936697342414,-20.192092460465,-30.5811399534375,-42.2910363713176,-49.4302425247955,-41.0969700318848,-44.2894872228311,-31.8366018093397,-54.4006852764753,-26.4214724489589,-54.0900194412177,-28.4519532340398,-40.4684820969919,-34.0316583892446,-31.2897162103442,-40.4916706575412
-63.3736023266273,-77.1842944016146,-73.5877193515547,-101.426580774921,-85.4723182380528,-83.6975221822858,-88.6877123378875,-89.8444012723838,-90.5407748181391,-98.0461150317704,-85.2708676690733,-86.3414005003044,-94.5375504671002,-102.404557476099,-86.3715631683578,-113.045771469455,-91.6599661284502,-130.125374869038,-136.373765982678,-89.4932982399892,-141.466905233193,-119.071404794803,-145.862415936177,-174.912817688123,-161.701895902822,-186.547829641582,-137.317652596466,-165.805209703419,-170.38255261348,-179.609092557659,-207.108664624657,-188.974985363501,-228.819991031832,-102.042847312529,-189.129015652358,-197.210793584792,-186.266671389369,-223.110261951745,-126.683032806879,-193.772457319339,-165.694610444322,-199.926701423669,-79.0298360126441,-169.868230081516,-229.570960804245,-86.3787095866173,-101.365627006663,-75.0535127552617,-95.0540420577002,-79.2345237335437,-83.6710894820563,-99.1220449486706,-100.772038892669,-96.6193422085927,-101.207591874622,-93.7459905614528,-102.638223104342,-78.4243838164205,-102.192379539837,-77.2566291620772,-86.9097443430698,-86.6093244441673,-79.1369971832882,-91.7299715477253
-79.1479773752875,-103.469822466262,-90.6640795294527,-119.895054612674,-113.062402160899,-98.8144106637235,-105.434581569981,-112.476256145108,-101.832205453958,-117.213865681845,-105.924001816208,-97.028863395796,-107.48539374455,-123.233171216507,-104.422610405038,-124.260952352716,-108.089144311869,-141.338320093706,-153.573462791012,-97.3039342436709,-158.898585984804,-126.155216197375,-155.793056436075,-191.125361652151,-179.00118936964,-206.805417538016,-147.416407927675,-183.100262718821,-191.9684778245,-201.331445819662,-231.730395898753,-221.532506109198,-256.277972848011,-117.559732032271,-218.09757873252,-217.978630310578,-240.589271944375,-246.74270756541,-152.871374475668,-225.20474931444,-221.518035027477,-241.595481190207,-125.826875666824,-222.356131493484,-255.80992996579,-136.30915183928,-149.457631224876,-121.30347010188,-144.233907787543,-123.517451202849,-119.132272666448,-140.664770467045,-126.192402585178,-132.194617305595,-134.037237798498,-136.814782966675,-135.755234667517,-113.302440490519,-132.071765686304,-109.488906509492,-119.42498166631,-119.722192053125,-108.222529491334,-125.994112750384
-49.1594537986473,-88.0182767967677,-64.8366419406095,-92.7228410306662,-97.7384920100963,-72.506124377526,-83.2511231387097,-96.627496246024,-75.6818354128996,-102.116275797618,-86.7324853080902,-74.912902179566,-87.6381283298236,-109.617382875817,-83.1909873450859,-100.261386745287,-82.0393808627386,-123.792345907048,-138.552748351909,-76.5305133672171,-144.490798451349,-101.866454549441,-139.475330719417,-182.588092748351,-169.298712837229,-199.089064898681,-135.272610664335,-178.748646770808,-188.410002918578,-200.568711813096,-226.75603145757,-227.316228079476,-265.688688949492,-108.636382038123,-217.180005662277,-214.949887711371,-269.892934973527,-260.195738087264,-154.93217000915,-223.646726590515,-253.208455348325,-270.021872037974,-146.088916201142,-260.388369001673,-268.042090377762,-161.864489473664,-168.526069943267,-139.435346659621,-158.28540624394,-136.982716343165,-122.211658525826,-151.331677706828,-111.839079203045,-126.822704230464,-131.495125770742,-141.221959808905,-135.230759269283,-122.548990211284,-127.095510023653,-107.488146068361,-131.556420576907,-126.295833497368,-104.890753572448,-132.451736081594
-35.6203703255524,-79.5322356513727,-52.6098516750029,-81.3752888765652,-88.9898331833393,-54.0622711702193,-72.1504413767677,-89.9348182351106,-67.2680970244315,-94.5799332071732,-76.7093315760673,-71.4209330104807,-79.920847288621,-104.431012420909,-72.4389307873045,-94.2439368378799,-63.3279221136505,-116.814222752566,-134.701546120854,-66.3648275548563,-134.083011976272,-90.1051548222022,-134.805087873968,-180.867095117216,-168.111228329536,-193.727604801528,-135.172636299241,-180.010249996282,-192.21500945171,-205.550431708745,-228.090619744849,-244.386568342109,-292.525087933607,-107.087488223452,-220.456207428107,-232.1802092612,-315.237382480543,-294.877193430893,-160.074128512012,-230.555953981724,-300.779319352189,-313.61966014198,-182.32194415918,-314.746774233495,-301.359039628441,-189.773241576585,-192.972829214751,-163.00381648261,-176.160185365848,-158.83448167893,-132.73615684261,-166.264152258105,-111.039402440254,-127.235272458761,-142.671417254593,-153.222408696454,-136.497300696976,-145.279635792287,-130.089161447495,-112.67509063379,-150.609587025211,-145.575143789186,-110.703428151169,-146.382013402098
-66.8158700733277,-102.941674937228,-82.4534787213388,-110.641543924999,-111.895882298569,-76.7067526257306,-99.6071828736109,-111.709632059304,-96.7604795920819,-118.369566358088,-101.011763581969,-103.925115449753,-103.032756635461,-128.628057712949,-100.083800280225,-126.044635163627,-83.5613605423973,-135.174863803608,-158.883952997269,-85.2109937088921,-149.517782193768,-109.35603559043,-148.80488740483,-195.363127684568,-183.936556922575,-204.285969261236,-150.833183404864,-187.69358187056,-209.705111625469,-211.290275682772,-233.720934785236,-289.47754646954,-343.294334877731,-115.963045723157,-218.145585142742,-259.382077622956,-398.575033751478,-352.023071260985,-165.046346939433,-235.42349000964,-376.314964860933,-384.570182044799,-232.63053733202,-380.597915271238,-361.308158512695,-207.666611602948,-216.543502739555,-185.42279600916,-199.86713728329,-184.65692654794,-152.51250942703,-187.268249340217,-132.238286679266,-145.195867210954,-172.726319485402,-180.053804940321,-149.874174884148,-174.502209937772,-150.543441463848,-132.74606988572,-169.213852923863,-174.431345715666,-132.223577546925,-168.717322577024
-83.8013802322773,-108.826389600015,-101.83838605675,-120.804583353855,-120.073960715218,-99.5168659756564,-120.152157428278,-120.078323069509,-109.294153297621,-132.78147693647,-111.227798872314,-123.202275535025,-115.338634638659,-137.894132636721,-120.3144564029,-144.160578105322,-105.293076613101,-144.350878819494,-169.084670799785,-101.383658986705,-155.795569713694,-121.538251025129,-144.226392991152,-192.686201375287,-180.502713416394,-198.537118773624,-146.142989319931,-163.564746558319,-204.378890260756,-171.702477672224,-193.547466717975,-315.929824159213,-379.858847002795,-93.8281082832971,-154.60098053197,-231.355896845111,-471.831878901164,-390.080697167244,-120.523629353431,-164.558084124686,-420.562121401561,-453.910363784194,-227.601881536948,-417.16363159481,-406.089194707264,-158.09292367559,-174.976353085042,-147.102340063987,-165.035745670981,-151.917330454139,-127.240567994914,-158.04093359119,-113.008063027068,-121.77955427263,-152.155472593778,-159.042689920845,-134.760608466544,-154.125973116602,-138.228444936803,-115.105434685799,-143.088340386286,-156.858018888854,-121.549542423665,-149.964661865422
-53.0815095848984,-68.2380664855568,-75.1765952982069,-82.5324281707794,-86.8418343432091,-85.7377141395345,-97.0768636319506,-89.2984177351069,-78.4093316456089,-107.479870729017,-76.7943021743139,-100.342574519891,-92.7733052442554,-106.320708442356,-100.602005875391,-119.521471381569,-94.6731361481458,-126.019157944549,-141.739318744921,-90.4637541191203,-127.872535428155,-104.568849504025,-111.995188813554,-159.719899861847,-147.116703131343,-159.81218249142,-112.316841545737,-102.42878329383,-161.762105166095,-88.7828548722934,-100.399335669937,-288.549906093113,-381.040632976056,-34.0383568075345,-35.9001975453533,-140.278405362919,-479.827947908214,-394.810885597324,-29.5894700747732,-19.3140681561801,-388.270065634615,-497.670743957694,-149.802882633365,-413.018940217052,-411.441511226431,-54.8523650336818,-74.813347730527,-54.3165095082705,-66.0826152290414,-62.8728677567881,-54.4104148622395,-73.6837784997733,-46.1973956094253,-46.5046047723787,-70.2614989115505,-80.0729122436799,-80.9124100868527,-83.50088435347,-82.2243442269984,-50.2369072252747,-75.5878276177987,-84.131804623146,-69.6739380665737,-85.5797976507131
-16.5388303385234,-22.7890098682245,-38.6521884971179,-41.0973710457817,-48.9884970599483,-54.2237837265418,-56.899438634923,-48.1993816077338,-43.2296003336835,-69.7476108323617,-36.8927108899889,-63.7381833247844,-62.1935507302589,-70.3016733493576,-70.2243331992677,-82.6706180217169,-63.1861325693293,-99.0579710126424,-106.226760281131,-63.5129666289168,-89.4289343197474,-81.3241603316733,-83.3660935158734,-123.073401924155,-111.500965072052,-118.598184541726,-77.1366597562651,-45.2696236566931,-110.295943217368,-17.3329735432561,-10.6849798444785,-229.320245449859,-352.064439811116,22.6442246506133,65.2094002647233,-56.0750364788994,-418.70777482857,-381.693296070608,40.8314273857433,102.798764023878,-306.082315797294,-504.630639271816,-63.7538776215752,-376.553217918189,-392.391471854637,13.1400715587545,-6.25722007221538,9.79326225125639,8.92250534877228,-0.422219280341091,-0.0928225023484766,-8.90793927307137,-0.215197528307033,10.3065880665094,-8.71436874843635,-17.9771173613316,-32.8608303264958,-28.0079442151216,-33.6069011840474,3.32895383262553,-25.1390970072696,-21.1714492871998,-25.9011506032035,-34.1935801120125
-5.18665159514888,-9.12519177233474,-27.434736543525,-28.2337811726273,-35.3494936700291,-32.4331717902595,-38.2267633103321,-27.9560827144706,-29.6048743986831,-48.1716483177927,-27.4145544323437,-43.7667690843182,-48.1298182172748,-60.6524461251282,-55.8990240630995,-62.047330542124,-29.2101740515586,-81.6735336236829,-90.1884997013244,-38.6226497059845,-67.9875230927649,-72.2716308083401,-70.3044390189327,-105.03365262708,-87.557257305751,-99.464514507443,-56.487630966847,-16.59608558463,-79.3118915687566,21.9351924362595,32.3938978440709,-179.282976605529,-298.621037831195,51.5106602644521,111.930309253534,-33.4208523264277,-325.018450485441,-352.164002869705,62.0038486512129,150.726429092414,-227.692213030912,-459.762811448123,-14.2345442065361,-307.78058900046,-364.10850692364,10.541860358591,-6.05732686509283,10.1033761894784,11.4413119787228,-1.24290461034254,2.21855089081958,-4.69753932764386,-3.13211982977785,12.3981120215144,-11.0506983493245,-15.7054206175237,-20.1445292578535,-20.8129934914823,-22.7536569591084,12.2803263981428,-20.2626673965386,-11.8292749195615,-16.8383010361631,-24.2103501789991
4.17207364984877,-6.17627790637279,-21.2617637730974,-21.4975394899332,-26.4015593325988,-16.4355763076842,-36.3234887892529,-21.0986233689822,-18.1039347666298,-32.9724493592754,-26.4893233406525,-33.4268986357343,-39.8105910990657,-57.3341989856751,-43.390554155092,-50.7885160060855,0.499076951180654,-68.0836651529098,-82.5992975768461,-20.6309400926239,-60.0498378142891,-68.5778210720579,-54.1362009978884,-98.575162448851,-64.806852511932,-82.3254572714806,-40.9445114874414,2.84080162741224,-65.3692503117133,56.0620950024489,44.069812383494,-149.876095438842,-232.84478936303,65.7903951595218,133.965632444583,-56.977991050821,-228.386094705992,-301.738357273857,71.2229370420767,166.641694319992,-165.840916216034,-365.822672043522,13.9888718719695,-216.565820179487,-320.906764771581,-7.40413178373187,-19.570236835101,-2.66857190874662,-4.90758122644219,-13.4046007412438,-10.6990176527501,-16.2282838509323,-10.7130865007075,2.85858876773914,-28.9306150480632,-27.0822765135594,-20.5140297075365,-25.4158560120966,-24.2885376599736,9.46170615575099,-26.0209413099918,-21.4058355456396,-14.3256424620209,-21.9155018770955
19.6411219591745,0.0257715751717722,-8.08617337998828,-12.8050088945524,-16.3680597777904,-4.06566531225408,-35.2840483832879,-21.3487908623665,-3.58322476727735,-21.2307559504211,-16.8682865884629,-26.6463619144039,-31.4839218976414,-46.4373068644362,-30.3116711638176,-46.2735112763539,10.0464197450642,-54.459294860813,-72.5516556811192,-16.5866924534929,-58.5477588855908,-66.3957483950962,-40.514078095218,-94.3424116003121,-50.8847412712498,-53.1392687840866,-30.678063677647,27.2430543751628,-54.0121001242162,91.2096801771965,49.8782788162229,-125.882083547197,-176.827057887888,72.4877190288373,156.060129200674,-91.1830770135649,-135.062465197053,-242.507414148872,85.7041362585963,176.667089156781,-107.809933556411,-262.156106670677,27.7602886987878,-136.345337656953,-258.901173256041,-9.29251709523198,-17.1426616081251,-1.13804753095185,-2.82620153129094,-10.1614098394364,-18.0425674678657,-13.415732783988,-6.87897217263538,5.33471095338011,-29.8950720495568,-19.7185838442302,-19.2571889867075,-21.6325173342604,-23.2956873038726,14.2093653203959,-21.447119584838,-18.524542925174,-6.87551063784683,-15.3720064801335
12.5129837004043,-11.5237153928422,-13.6693412641265,-23.762628121038,-27.9155371019668,-9.27221326101245,-40.8827034526035,-39.4195230805942,-4.30012118576044,-26.4156922000972,-20.1698009478145,-34.455374418,-36.0008329677202,-42.6254255513554,-35.1312757550953,-57.0203675854157,-10.028342133812,-50.7957174334972,-67.9535265512031,-35.5361338212206,-66.2612528844098,-75.5701785735865,-51.9620007658375,-91.3148718299474,-61.8382601354113,-33.7121630344377,-41.6800098594988,41.7593738554186,-40.8597299976762,109.441554527833,47.963253522312,-89.5714414820517,-123.863024507808,60.7951669776219,170.557941941335,-122.82705912192,-41.1621427342963,-172.281311119866,85.7392043949391,162.653401553526,-55.117391976637,-169.343108366965,14.4593301596684,-86.9009965508373,-176.1368282183,-26.3724179599449,-28.0265066836837,-17.8803559596294,-14.7343305115235,-25.4782087973932,-42.6929102477441,-24.6757717721623,-24.0425474083173,-8.19743984766861,-40.9279833684848,-27.3128085233565,-34.1945909901562,-36.8861328009911,-39.8332056516271,-0.72721405947252,-30.3129089412256,-25.5653665215898,-19.3285222697416,-30.3605811177588
-4.96747803115116,-23.1378044640863,-26.0030335260965,-34.6965572489714,-40.4884990530821,-16.4560435116062,-41.4195182335464,-53.3109553154664,-5.388485533535,-28.6324483150657,-25.9814794218306,-38.0190799869907,-38.4670343519121,-31.7288008367186,-40.1338420939123,-58.4901006697566,-32.5013575916846,-47.4999275973124,-57.1771299457394,-57.5255014657083,-66.7240921004928,-84.1144902132381,-67.8615129837574,-74.5694417967894,-75.1788403796649,-25.9950358045377,-69.9765559726324,47.6121340618071,-10.6841459225953,120.732059127674,42.9085208111892,-21.1326754957665,-32.1601949310086,42.7630316266149,185.809764593767,-127.72504007287,69.0427837918075,-62.9565600220782,90.4811816081682,148.275745887045,8.56036904602365,-44.7775192717587,10.0467414997039,-33.3725380953437,-57.601667511007,-50.9815425524047,-40.8368056099903,-44.1485449999019,-32.9271500224021,-44.481119640443,-64.2470421554646,-40.5239763582672,-46.521096810267,-25.6843973631206,-52.7462061420373,-43.9135438960566,-50.9418252511324,-57.69434704128,-59.1267175543916,-24.3901133021209,-43.0205184657945,-37.5316278542393,-36.654812296058,-45.4216282676125
15.3547225357835,9.16503231576261,-2.30641655360501,-3.15147630913689,-8.15786708987999,4.22579895679013,-12.0435295424659,-28.8440557787374,17.020276803004,0.521883719946337,6.82061477613267,-12.3037869500203,-15.0010231012794,11.0400619421344,-19.8766478401947,-27.2497544848511,-33.541695942931,-29.3675631800498,-24.3014849238257,-54.1929844731508,-44.8994969325176,-78.2232854091379,-59.3380846533055,-40.1052878362871,-68.6848624357862,-11.9317267766144,-92.8211285118196,60.0306605662058,44.9373379747721,137.820030912628,52.7903522911181,79.0577694135722,91.7651133737173,37.3456225784584,219.794641301644,-71.8695746312922,201.541477777303,65.1386711116297,140.257415251818,183.643002485311,118.341693921321,127.74287443873,79.6001668563108,63.5592299908561,73.5169806036412,-30.8566880932705,-1.90580610881782,-20.0725824279151,3.6286304013986,-3.63318205400379,-28.8273990843501,-4.22936461532652,-20.8231620934083,6.64621865285809,-12.8385678622083,-4.80809697729374,-25.366936441478,-26.7739201077045,-34.8137195706787,1.99665523802479,-10.990554112574,-3.94206213430865,-10.8192180967523,-7.77640637558309
77.1381613694283,80.7842711946283,55.8019192410474,63.8777729867704,65.4682950819894,46.0506348999828,39.5999309165145,24.550582494648,51.1731627856981,51.2491506410804,74.5788148689042,25.2786854687785,24.8459692860521,69.2622733479671,10.8545970107318,14.4190339901474,-20.327600149372,-5.87617439568214,16.4677118000966,-28.206447387509,-16.9341452853791,-63.4292711244726,-34.6722160590428,-10.3591061630566,-52.088572747206,2.14403039997903,-85.9561503818033,76.6791080805116,97.3898761083439,146.263712291704,80.5820681634212,175.768030031332,175.155834980639,38.5864568210392,255.774096023699,36.4521358562836,324.806982326693,136.406815702834,222.879426003768,250.195066180013,263.350613886656,278.746788412481,222.885697770709,181.679032473543,144.79614769244,37.3673176604877,91.4410848844269,64.4922785327204,99.6539592083492,98.6064829373396,58.2084427247158,89.8826612318382,54.5962439533292,93.3092662720473,80.8020228370192,99.5491327741794,45.1257612443693,62.5719126914148,35.448690903318,91.3576334498147,74.0624101312378,86.1766311704957,63.4557183255675,80.797046873632
139.137321478725,149.842405234635,113.414180690705,125.727730509428,135.646657993289,84.851607483728,87.6317951966371,74.2913997229699,85.8360269473244,101.57730878895,134.50858938168,56.7349041884469,67.6042925422903,116.598286221005,41.1717694148889,52.033627182359,10.1029292687453,21.8866851496355,53.3895581260744,13.3432555762786,12.042454360082,-25.3055166939946,8.24040200193397,15.7718891852144,-10.3778578885855,23.0669653807521,-23.184666017738,111.196107167964,126.707956071398,160.333364359527,117.451168695532,246.490691608809,193.559634307306,56.5640806426093,265.221149266153,136.368733164137,397.04762279443,135.780268585537,300.190474774038,269.382108305756,376.053536602703,356.624688027715,351.962126571201,267.330001944904,143.764512501883,101.986321083018,178.105017351498,145.72495678706,186.356200120301,190.483659003319,137.222812417561,176.165205763646,129.940587796427,175.538026833269,167.251840526669,195.708102622532,112.852971335342,148.722473776581,104.965144077884,184.002307038421,159.819489840925,174.869146038013,140.951808316124,163.125189282854
152.872060449062,168.129892780445,134.442275716888,145.658043649539,153.397509441264,98.7403238502534,104.83300232237,89.0704525402719,110.529955754647,127.100855452679,145.460770056938,78.6608147215961,98.024322303453,135.225067452856,71.2198053571388,85.9335529900019,57.2591138485332,59.9748501709399,84.1697138533529,66.8974106382053,52.3322758461005,48.567233287851,78.0586588318934,58.3966288123949,75.7152043984433,78.0736261943207,84.5602805533827,182.785734574635,153.218184545057,212.193122133694,150.793307262045,298.725632039,201.194838439154,111.966030611702,240.075787206161,171.489022451401,398.654378939093,134.341297652849,351.40878816552,202.942955312334,392.02063788346,385.042369619624,368.850807723577,280.273338589183,147.438684681302,108.984807441812,185.563200561932,149.981047716628,191.977871138929,196.256914269072,149.305481547339,179.484164875,146.572474882171,187.316503151699,177.891385753567,202.796571426832,121.72475573047,159.048494967041,119.87814189305,202.915956964925,176.011099266753,185.653809119392,159.165106900217,175.062634252399
97.24591501139,111.384065725661,97.0067363569499,107.612883221513,100.174851360685,69.5172643648951,71.4553597914649,52.5528169149478,92.8149082782756,100.195545173573,93.6916859010554,72.2235305496894,83.4629141616981,106.554937176386,75.5230549850982,87.3577996287285,83.1124633806144,81.111421526472,88.6095607635203,101.137999857216,80.8819319873685,110.336831166861,134.836636105337,101.269000004027,150.856646647747,140.002286986509,154.326296734991,244.18207747213,195.843810662746,251.65818206888,158.414166711426,342.330374158424,233.846676021937,147.310814357685,173.793291746056,176.534613657093,355.547144868297,182.29012386622,348.489465417168,96.5002071125179,322.295099821083,400.307163201938,274.92835432967,219.408525905601,206.418375658654,51.9255352509072,100.169900181208,75.2430150502163,111.087440688204,107.147438638221,83.7285872330489,92.7094628141661,87.504400627688,117.398306798055,100.795513955911,114.622851694573,62.7349242558071,81.2136318554079,65.6592297089056,129.801414679598,103.201150044768,103.974711628525,94.1718653222193,104.455535196931
9.4319559792226,21.2504910748517,24.992632240046,37.9906388534435,18.2146582840722,9.80809771673542,8.50026235374367,-9.57287467648982,29.9215714922991,32.0579727024491,15.9036557585793,31.1571495341505,24.6782749135918,43.4172570641637,38.3423093465423,41.7395933482847,56.5410749001132,59.498980542069,56.7694180825544,82.0469190883169,67.4713520115724,102.177253719355,131.944707666545,109.25709743375,144.672307551954,146.879980651726,99.1934211117327,225.588547258166,241.637088863892,179.342137479126,114.608906112553,381.53382019177,275.140674927463,53.6346170781196,57.0158022590024,230.087339401771,345.69380950487,250.685191026745,260.474481930507,1.33145951330441,250.451715746638,417.097318395203,170.621090353559,150.298088787916,284.486861115894,-8.80551488215289,-1.54332431200652,1.39693468858554,18.772012319559,0.474916367852957,3.51812481591686,-5.51060575963836,12.572070398072,27.1546705405035,6.60614763978328,11.9971050184173,-6.44533344874937,-13.160255693225,-8.2674931504868,33.3158443481277,6.35568005295299,2.71069880166292,2.77709572758157,13.6981964047843
-63.8429428738372,-46.8875491699221,-40.9101486041882,-25.6577289531897,-44.4480417642839,-51.611469434265,-50.3167141795591,-65.9843225017384,-41.0134552136017,-39.5300427673632,-44.4115094106337,-24.3365408577181,-39.7131384126903,-19.1601325246347,-19.1465771550532,-21.2323604943156,-13.4175195910853,11.3062309792452,6.31208766112317,14.8026203276696,21.3063213468529,34.1143891754243,79.623547893296,75.780052997193,75.5572186551219,89.0664523966413,-62.7684776970395,129.912810123757,242.121187215321,-15.4746735953047,17.4685900611399,386.632752748882,297.314615555317,-170.500850342264,-101.609818392253,284.18945813742,408.921541562154,280.123340429032,90.2590124048618,-102.237797780369,216.158728681968,425.729004452617,111.474754371247,141.735708142773,318.523635843071,-29.9262447006369,-54.5099912626442,-28.774122470862,-28.1298412817826,-59.8561503731025,-39.0692175173675,-59.1910125100791,-27.2964593638022,-32.0255783291652,-47.804414321612,-46.6498989277101,-45.4783180157668,-65.8819327372808,-57.1308429207613,-27.042129236288,-52.8958651224106,-59.0525769087967,-55.6688964070936,-47.0021214269665
-129.037365387882,-104.197776606468,-103.888633773116,-87.5624198034189,-101.399073520368,-112.656474040829,-111.421530098526,-126.580525061401,-104.841021447211,-105.978688468761,-96.3002350822845,-83.8447197026499,-98.0541615153458,-80.2586713418674,-78.9360284795626,-82.1295268046063,-98.3041474840268,-41.7435328742267,-52.4316866088794,-68.2867694819838,-37.4366911248043,-42.4580327877172,13.7224439143085,17.0552849188909,6.48955958258112,-1.69551417191367,-211.329627407806,-0.0832598014069436,133.770864135446,-233.960572868427,-105.386997016282,289.229787755783,277.831053367117,-383.721451593186,-272.502556994733,199.327192173301,464.686702138084,252.357622893756,-124.982598417356,-254.979158603204,165.191493614027,393.235691184085,42.583090018857,166.95040412497,289.130057742525,-60.6031197038512,-99.1568793799667,-77.2739089896819,-73.058790495007,-109.992723125389,-86.8000405705464,-114.388619327678,-76.0283050549482,-92.5672726280896,-102.987264146623,-102.339824576669,-94.8638675366878,-115.015374752088,-108.05496300638,-85.7400039594419,-104.260035841656,-114.928046577571,-107.637753072828,-104.79652969058
-205.011657853844,-179.592985455131,-179.693891023041,-160.60173656371,-175.430212793026,-175.1579565294,-184.07450677577,-198.031367085902,-166.683657849623,-169.512744906831,-160.233479916743,-143.654995346275,-158.530698980667,-150.114542468699,-136.208390137448,-139.460052118854,-169.380205920915,-91.518424131947,-110.591264266056,-132.850237717299,-94.1048054620763,-93.6307606152299,-41.4355609136202,-39.7439616306078,-36.5959101395594,-87.6189589356677,-244.60610065771,-126.462218616832,-67.809321653906,-348.647997246404,-223.913356379467,80.0562576862263,198.340339119064,-447.760288278046,-397.132798543507,-32.6660117600229,404.333177449812,198.889434810188,-309.012077459708,-427.89977996727,65.5415748040985,296.525921541041,-87.8668350858197,150.692299399008,229.465423720066,-156.408871915516,-189.547730212002,-190.159193653887,-171.002896137079,-201.065337539323,-188.777906584174,-218.668447987207,-179.986418580477,-195.705037889786,-204.137610694909,-199.378245175784,-189.305641368899,-207.055024119527,-193.716004471114,-184.646470695944,-191.66019383954,-205.059152135457,-192.552314343914,-189.849575267718
-260.19034264493,-238.243796081287,-234.21236813145,-209.831746092949,-227.023875905363,-208.860544634724,-232.224488324246,-239.224367227269,-205.307853542187,-201.430045950097,-203.450398075778,-178.202091108263,-197.198804675733,-191.264297163874,-169.17943973761,-166.084066533191,-204.267141278852,-113.920807615298,-130.831087600356,-148.851620042768,-109.280466583374,-102.1900010552,-51.8856738976297,-47.7900202221314,-38.3664889112495,-104.185450079283,-155.751413691036,-181.593380907688,-208.989020195361,-286.793272857732,-284.487471955023,-121.734499977015,64.6107026023604,-341.043560879555,-401.959690276538,-246.280244136729,235.010908605598,156.212323017441,-373.186399024029,-521.006021073308,-16.1420560682847,162.954250453964,-232.775594405561,95.0947668338219,185.109335457273,-270.142080801282,-278.402919902663,-299.561141790411,-275.124476863242,-287.718693274715,-294.442532497596,-313.676523477293,-282.024754384318,-292.640194281781,-298.880200955175,-287.026350115843,-274.242261335772,-292.991110404011,-272.336752883621,-272.522385388307,-270.705289102874,-281.496989900539,-268.889147616761,-263.393885386966
-252.726473367992,-231.073315562432,-224.823691235159,-198.59968023281,-210.390429042622,-191.376251788752,-220.936084544914,-218.154371691213,-193.82691451348,-178.913412254351,-184.792822661746,-165.240628039369,-185.289890594666,-166.543970779976,-156.584887672549,-139.482834564403,-194.948419141033,-90.8037605329598,-93.5681075948074,-116.362179816848,-58.6422863540571,-67.05701487228,-4.77752922407297,11.1853257957429,10.9918160666043,-19.6957688455822,-11.5965672669627,-118.661785888593,-164.313798050139,-97.1321803218056,-220.299221690524,-186.071547746503,-85.0008480568548,-148.896238422284,-278.088521036088,-292.255654508071,56.7898874251391,131.278346331884,-333.314346011206,-461.341336419437,-11.5742722940973,61.8821330365386,-309.150971746626,69.9318026119092,168.461858470407,-313.113458233117,-292.376409961787,-324.442294905716,-303.240751339739,-296.070776978039,-325.20078576108,-320.47245320443,-303.999234928374,-309.593641910643,-312.636729593065,-295.052375175442,-282.986983699141,-298.306042878215,-284.583931446699,-279.581133694011,-276.793320607521,-280.951399906792,-277.188432137408,-272.760253588364
-210.484567421654,-187.157490181041,-180.897521917472,-160.959691619513,-164.704011195494,-155.001553903526,-180.795793924175,-177.090825552679,-155.676974338908,-139.855495808197,-139.514316840942,-131.766768527528,-150.16151107471,-120.66433363313,-124.153666156128,-100.525613876423,-159.700360037441,-62.9721840136054,-53.8547216655002,-88.5681933718526,-5.51845854198003,-32.3117643134231,27.4423687420305,63.3251868386049,51.5523374036548,67.5892199614707,89.2241548942176,-11.4366587028466,-33.806915273621,76.354559879517,-73.963184275267,-139.887819176719,-213.942833928659,5.27346119435053,-119.891528119214,-196.523136728647,-72.3773555114443,94.8370198629126,-325.837545519762,-304.021080377575,46.8916487944842,28.9829754037789,-310.339842269204,84.2630175915228,140.97684893,-289.862261726849,-262.163194957707,-291.845166765484,-273.283361564379,-255.617316338867,-292.968133905472,-273.808510977445,-269.214975183738,-270.450540458495,-270.494502782595,-254.193253165147,-240.501300177133,-249.793136995737,-248.96574263601,-236.552485644385,-241.28292263553,-239.432926525427,-238.420413334905,-239.614506825291
-196.642852983657,-173.983689764023,-165.650067590192,-154.795112984528,-162.446363663228,-142.52079809448,-168.879125947119,-176.71854049868,-141.547195317335,-138.81231268212,-138.562389140262,-123.236956327334,-143.421076837391,-122.070283514466,-119.424254905422,-104.364216259013,-135.037486021024,-83.3984052700307,-73.1788556209799,-112.853027079645,-27.0998753463379,-50.8157854106943,-29.2506574207594,29.5514136983765,11.1734141480983,43.33549626091,87.7672271337381,27.6611208783223,7.04692785724209,138.458603188779,13.949552597786,-92.2467690689229,-285.921019413692,53.3581637470562,-30.6575171069173,-91.9834914302743,-149.038941181457,34.0572269061935,-406.796622514446,-189.072546077853,91.9933725082535,42.9201613222173,-296.542535494997,82.9031436844833,73.4631092719007,-273.225812866136,-265.23757228877,-274.818260170744,-264.274939679227,-251.086424680341,-266.51379638764,-261.626116189473,-249.251219710365,-253.048109888121,-254.33954922809,-247.756330512435,-216.956407398535,-235.258737641777,-227.663267046231,-224.055098372805,-236.707369861932,-235.46643141716,-216.718794672325,-228.885966769514
-209.895122375293,-192.248791927803,-175.962235685877,-171.575098403183,-191.980981242416,-143.935822796913,-181.928236337726,-201.590453265147,-151.721949681992,-163.385157087189,-175.955925702524,-133.980440286986,-160.925097723708,-154.334262836289,-140.006952399435,-135.872395484541,-134.703948137438,-129.101193122553,-122.19379745914,-159.313476156114,-92.9600540133126,-108.83281109853,-126.921139936644,-47.1915418848234,-80.2495493739879,-43.3141007839675,14.1971035652393,0.54446222252367,-24.1442970617891,118.63107967958,-2.83339077568747,-42.8855548577422,-249.351565318957,27.9007180463779,-23.749307893161,-37.0168787321842,-144.739496490939,0.27845511017132,-451.09765151439,-183.190695234432,124.222473334801,90.1317431414249,-300.998504798127,73.2065970803901,12.5884325678546,-269.361082163192,-286.645851532538,-271.237503469413,-277.081443513165,-277.30819851285,-258.175346685936,-278.558819485997,-244.128048237137,-257.384964587249,-268.141338739521,-272.655846698403,-219.988837445392,-258.803943707184,-225.089422486486,-240.715422596078,-250.064799399683,-258.50601465246,-218.467777481932,-242.67517294184
-205.097104243398,-194.774886396294,-167.293251782204,-167.182220843285,-193.504970484361,-130.826711179436,-179.03876400659,-199.737999155192,-147.982356617872,-167.508110317141,-190.236080760384,-129.701729557922,-163.492688650918,-160.944222213683,-146.386349745854,-148.424621777103,-137.138324493475,-143.559385999581,-140.237120676172,-177.099786764382,-129.970067988742,-156.624958005892,-179.900136366671,-83.7466915017726,-163.952395183357,-79.0310918785207,-98.7930477192547,-34.3971416143902,-10.213919288606,42.7367685819227,-50.4122426699493,57.6057958238117,-125.69263162255,-23.8748977842106,-78.3334069309605,13.1778971250223,-54.1945079353458,17.1985326928015,-371.250800645122,-241.290742657579,156.461657063346,148.441591819551,-316.909582958832,97.9601764232581,-2.82546099641023,-234.788586251016,-264.449993770764,-239.396383944432,-260.280726545125,-268.586468049067,-231.828171153648,-263.873535575273,-214.748801313639,-231.405501160129,-255.018879661689,-266.809761021508,-209.380376183549,-255.974654104654,-203.555020555197,-231.110637325651,-228.617217354842,-248.181150846249,-204.010904427087,-234.272735359627
-183.057544998143,-179.669523226145,-146.004529000014,-147.383973791252,-171.679052238604,-114.652464820261,-161.398094525679,-178.628742521444,-130.004010858052,-155.09090871953,-175.356349961133,-113.976824711892,-151.850259273021,-147.784544242483,-133.398401532183,-143.567949487241,-127.568462643856,-131.031452375721,-134.864017445165,-177.699978567503,-137.653990804033,-185.046773399478,-192.885920659273,-90.9668888321265,-257.683348896456,-67.8524156441548,-265.354088785513,-105.955525015963,38.0457950917235,-155.962016155659,-90.4809289311163,168.953213342749,-24.2387992736048,-120.868588032648,-215.862669718068,89.7015303655228,50.3616985801678,27.1126710951495,-272.835276434364,-301.354547663934,144.24060676576,159.906136046352,-343.672842266623,128.176875844864,-12.892387822854,-187.053326280591,-217.710333833651,-196.513214340444,-226.936275455049,-231.372790969766,-192.72460949751,-228.243211780514,-178.162531998556,-185.789730798441,-218.300714003101,-237.065725458026,-181.88601038935,-226.844916604721,-167.428355031245,-201.875069036809,-194.013284062288,-214.311271787422,-175.368409113665,-207.422654930379
-170.669408257906,-176.036566198229,-141.472980869291,-142.841428807755,-164.763650211455,-111.259098773134,-150.512576699631,-171.905941856007,-120.892091429235,-151.858307630937,-167.63878545673,-104.938326740021,-146.314557484215,-147.949466313923,-119.971165109626,-140.383527558209,-109.102260707341,-122.535729956985,-135.074518666747,-180.534560818841,-140.375086759783,-196.350647146154,-199.749333004984,-113.197249215466,-365.291535200492,-72.5145119307041,-419.054806981635,-271.866076370384,37.8239169300338,-458.892375787693,-153.398995312375,235.018679664797,23.7600416758282,-258.121808777702,-415.887623423926,155.139406410008,117.899339010822,24.5117913120417,-263.264063572156,-326.217230517377,69.9737398927344,125.940364645284,-377.380862220587,141.688190747716,-22.6096736480373,-165.115693356545,-201.389154028015,-183.032222480644,-217.542935636882,-219.940395784451,-173.501924414889,-217.285785625354,-168.294815038046,-167.518165718019,-203.034153719566,-229.420009929031,-163.283757819386,-217.588792361688,-145.168823520447,-192.266910723675,-190.108302150044,-202.417518879197,-163.393005294399,-197.995709081923
-156.466823809226,-169.892582020727,-134.332937721217,-136.257778030861,-157.132213351456,-97.6363056789027,-132.879854409639,-161.028331695458,-106.783727316407,-141.375674011894,-158.03150406417,-88.6771969472675,-129.728589822834,-142.865364875638,-98.1930050513305,-122.485864118199,-72.0840437559134,-102.092380488481,-123.462915329109,-151.224310516701,-122.721374209222,-156.939766943135,-181.60543134476,-136.894152033705,-399.708762572804,-102.651847834457,-405.438944838912,-463.39638206676,-26.4966631399439,-656.59985705493,-245.620728833412,246.072921644536,86.476411429383,-335.019166210169,-553.82469715162,169.762419941322,151.750919582316,79.7425814037192,-290.504808234662,-304.852917686383,-2.80100354005955,108.107556562327,-393.012568738314,187.622439051083,29.7802156768642,-146.217167979721,-198.299042034006,-182.51645857809,-208.834459356886,-224.326858558194,-162.856610305059,-212.849608208313,-159.857422842779,-165.018998673591,-196.231022116492,-225.607635462249,-148.009407171655,-214.318880238492,-126.664021586655,-183.813112109189,-190.504570431762,-197.257321056355,-155.033740565203,-190.898298821242
-108.614141855793,-119.750123708542,-86.3191514456576,-84.7560249086822,-106.69966246174,-47.7941250140877,-82.3128595612559,-103.581102329381,-55.9289544496029,-88.8352076259655,-106.368952221375,-40.6505166709464,-72.3185144981766,-91.5548266453781,-46.4477570232434,-65.8778898614645,-1.2196256540221,-39.4693424796418,-70.6145743783293,-63.0755324702829,-70.3694225797332,-49.9202107690034,-111.977035129268,-135.239337686068,-296.196361390669,-137.233381468114,-201.280908723785,-527.132950843272,-136.457215012033,-599.859854900765,-322.364561956453,168.027037048202,181.631580727149,-284.910098623192,-537.143912722136,152.006885431841,130.55850914995,195.027308089543,-266.21471328266,-253.240009012543,-23.5617326996924,114.240798019001,-360.839088958751,275.703474689994,143.187428923338,-91.3806136904065,-152.056201831993,-147.493810109782,-154.003169712534,-184.562320510935,-121.660866617086,-164.992420185211,-108.439886789425,-126.288581240104,-145.233244493159,-173.951753591644,-106.190990625859,-167.584552128737,-81.1074230523039,-132.559623393124,-145.853881122655,-151.100541766872,-111.018877009145,-141.713565808034
-35.8730983601823,-37.7259337077427,-13.4514699090673,-2.01915739898052,-28.8500915809771,19.9978152337757,-13.1210137319697,-15.5359842751973,16.9230763376708,-10.9003203002411,-27.1456800380581,25.0939101148202,5.10945024143227,-13.1654189915491,20.3849828715747,7.35762113436576,77.2459685966724,36.3793264965522,4.50824281729556,34.6088282687734,-13.7078245136059,58.2875325787633,-21.7625379346496,-132.51882069984,-128.142797169154,-174.407161498328,10.7974385420532,-442.131401595096,-304.461573960605,-403.216237307829,-367.075004228105,-57.4602459839522,267.386361380833,-183.013350448718,-442.444748107479,106.390787985184,22.9102203717759,295.500299208796,-206.136166349379,-199.594104989049,-29.541385674098,102.026153728562,-274.167101188611,322.39683849627,241.453968051135,-17.8706935578735,-71.0296270728021,-79.2886756683009,-71.288280397257,-102.919640366979,-55.0927862296669,-85.261109788936,-31.0619986652694,-53.8932223997517,-59.1086386895346,-89.7271984084844,-42.9839887722928,-90.2960632162529,-17.1090074633889,-55.5523426709836,-73.1973087588632,-76.4780027616168,-42.3201639700057,-64.6528919266932
9.20849608423364,10.8349307140112,23.9892761767081,44.988399313235,12.8576272753167,60.2386591433131,26.0530800200852,36.2612593354545,55.9810104817648,30.0966667326918,14.8810638188224,59.7917343512217,45.1451509596848,25.7852548706462,53.7339852251052,42.1710981786378,106.673292521803,64.1942322932266,45.9083040862685,67.9722028049337,4.41543112750748,81.2439852263184,27.8315248701086,-162.082211718353,-23.2392013546744,-218.652742943883,67.2376051384836,-342.344378246497,-511.845208320377,-263.824505599976,-410.569519943472,-397.887328903856,321.334935000147,-136.123710972445,-401.170106903116,-24.5562790938808,-132.187532791296,338.765394914198,-186.219011671363,-178.966025364878,-84.7981771365036,55.95059628298,-177.857592014533,255.000212201356,282.842067932008,21.8377258205671,-24.6204016696163,-32.8523572938056,-26.4053668007602,-52.8701970234185,-13.231604292819,-38.8089641652459,9.9184877888456,-11.0503235056705,-11.5877011358321,-43.1893544103357,-3.43308286536966,-48.8309515853028,19.7190841124265,-14.289071850578,-35.6725249995387,-35.55703674453,-5.19138022832274,-22.1666849375829
13.6383703335386,13.4305912901669,18.7762959855544,44.0063135050231,14.475248028811,67.7021637571793,29.9478887692183,44.2008822172617,54.0030434595671,29.6462735130257,15.3792317595037,60.6668256620736,46.7045282949828,25.6214140711135,53.3192368992188,41.2559109932889,91.4142304342682,60.836533661036,54.7301810652463,59.1767586819683,9.59647025093635,59.0525863879671,51.9333500817292,-172.779362772301,30.6229405019308,-222.926135690943,34.6841908814209,-268.962591076403,-624.294947399069,-210.212324717576,-405.901648605623,-661.748989827897,347.381683152284,-129.067804117248,-373.935950888017,-209.901509726284,-226.158034927115,347.833460640762,-206.788532664184,-182.514964335701,-169.028466012702,3.76048260543145,-119.76340032567,115.596636348727,296.654271249733,25.9653171670341,-23.055177489832,-21.8100303040028,-24.7073833271388,-48.3702209057812,-3.87793695048261,-34.0017695543489,7.32863394665019,-9.66278541287899,-16.2798311910025,-39.8114141453516,6.7077371962506,-47.975481845741,23.9201219407855,-10.3164161414991,-36.1562885547707,-31.6750711882044,-3.98773000862539,-12.5512258109439
32.3839780109933,34.9290969972529,36.1252859046282,62.6345021868146,46.7918674460618,85.7118940902575,54.9758431539852,77.403286670318,71.9351710420813,58.9859893151808,48.5042654657614,86.7738918406745,76.3629763062328,65.061314674899,86.3711945888802,81.506205468351,106.928813779904,115.955256815566,108.654885311959,116.503851246302,86.6496034169807,128.557728374746,153.313692361357,-65.5892166945199,182.079086494581,-104.96645373939,107.02312453263,-108.561756575218,-504.766473810332,-127.401509127109,-238.420152231045,-650.268165353293,372.232166904126,-62.7731466231953,-217.014119670067,-280.202304759452,-183.806440553228,360.472055504694,-167.87016004568,-132.021106141069,-189.446902008406,-16.0898509279874,-77.762800379729,8.13994494668187,320.519022675767,53.5815148756696,8.43432404371377,13.8509206686698,4.07816403883391,-14.3741763455198,25.0793778872811,-0.807366390561918,22.5320896463135,13.7941237370859,3.81905465177003,-6.11632701928281,38.9322458917646,-13.1544782917944,46.6296290878509,19.8948375518414,-6.53157210899921,1.64433486430469,22.4225395549922,32.3121492363945
112.991451715503,125.935474595635,125.395483314335,152.795615083057,155.436511745344,152.627532603285,147.070488804321,182.533109954401,158.647314578868,166.479339785338,164.732496553736,177.599418778978,182.267773097102,190.939842186793,202.591344463434,219.225574375995,210.338719461602,275.70831204888,265.078287635251,302.500522134315,281.208088188525,349.23545292678,397.395520308956,188.051241527096,522.123100311241,163.212450669181,367.878112396054,212.590944699084,-178.70154757413,88.7319549385494,93.2256113128805,-355.446637531227,453.32582106394,106.641774770206,79.3312754073325,-131.021013881324,-12.5258513618947,402.740427306867,1.41917252208058,29.9855853352264,-80.2806298119312,45.9350744605179,11.6705126673465,-4.46006632402359,373.284313691938,143.245532193696,120.055933462704,118.836045208147,106.961720443629,95.9238427959103,110.272404507573,110.100865403427,96.2255221061189,99.076685677445,101.330894163499,103.34171614025,126.104144865399,101.526499112251,124.688446572433,110.760590306419,94.915602511836,107.303590377587,109.449693576917,139.862730280493
260.371455751483,285.16711620465,281.495494256895,310.094972424309,331.221062922203,282.881567110478,309.074421145204,355.691265858522,314.513151948127,346.545030811281,353.882387806361,325.673805260663,361.208958487043,386.655260223093,394.499485678205,443.959938977124,403.811596382569,517.745733675362,516.587958353333,589.742128246011,574.726600741288,672.808736635495,747.427199741365,548.484550084233,1008.88277803708,541.979310892658,749.060057746542,665.03979504457,252.451374494821,461.452414317897,489.356428674499,107.272655658476,634.534345394926,339.342423071273,423.136823543261,186.745730740493,274.407353326116,514.045496584865,252.116060718916,284.007851405177,173.15348762205,256.693736577679,194.266684370482,108.430116775853,498.949647587526,283.030967332098,292.86488315324,277.159582626441,269.832498789516,263.138778414084,247.795887891854,284.910539616061,221.464540706126,235.624888284405,259.515077130582,274.157199402612,261.62705061052,275.84417809045,255.691173512929,250.574642433986,252.312340762024,276.24596793764,244.121709562617,289.479016063562
436.827890434237,468.232286618348,455.354650562853,488.675243352663,526.561784170168,447.032109151956,498.177121554897,550.943017072603,491.828985466331,549.960989502914,559.594697689085,487.419428935589,559.384389895117,597.203968879414,600.324072743694,683.675049700313,621.014754189886,769.168031195674,789.118415854344,873.892425165701,883.910740527642,980.691076103509,1077.20113611137,929.964555221033,1474.4056114911,935.55121154171,1081.06205344956,1130.70461870029,713.382981189484,875.026518351442,866.032831213652,609.871303048918,867.258055236798,545.015290187052,738.27999863289,554.902173483505,641.727792295377,706.030932082884,460.818297142463,550.196030219158,516.377331685857,593.339977179658,455.809214706002,330.822320811806,714.707742769513,430.061337226113,470.669306375722,437.829294037681,441.346494169081,440.355650430609,402.573001090958,468.715020603115,365.46168206024,389.54236897326,430.806111468225,457.517950008116,415.905040929969,457.648648229278,406.138166547981,405.790553915569,419.804967966961,460.026639624087,393.318419237202,450.212630006516
554.57359559033,587.242176193146,562.546647801544,603.729878349784,650.477685950177,556.257036226488,621.897753906893,671.142310283511,597.221146866375,676.682029569386,684.237157240305,583.912626767881,674.983791746477,728.045397429082,711.554437843647,818.323676111655,725.977028845166,901.210160062439,946.528785290589,988.72330859441,1053.6614433916,1084.93141781433,1203.58027207483,1177.12053639069,1632.53183815326,1183.7988664914,1145.12786705358,1374.27670547563,1067.56221612273,1091.66163175056,1111.44905690875,976.757121893458,1023.73579357363,620.615754052952,917.276392926035,828.356470256781,940.486061402166,885.488518706561,537.554539027489,712.30527565732,798.615509131952,877.716551850293,691.003561156662,547.819511704928,911.120669829908,520.556981241434,578.351630956775,535.141023291869,545.967228023901,558.76391277908,506.2810015084,584.506836553031,467.799863935539,496.13931604605,547.838825085669,575.39861987358,522.317342611745,573.684228929993,506.989923240062,511.10304671953,530.126992934446,575.568325350633,499.291241988142,560.071822616488
543.218188021306,574.736211814857,545.66548628073,589.223683574934,634.184138218762,540.920421507325,609.169358134098,646.288263537634,568.327132083653,652.760695704381,662.726359819682,556.949363193418,642.919210305275,706.9444419319,660.715057211728,774.995270303245,639.334642258578,831.389220506917,905.6378094138,848.192047249297,991.833165880686,887.252139896184,1040.06363935774,1187.84413499493,1323.02666229785,1182.38910993636,892.606346766369,1231.46423127721,1180.80613556359,996.370556086728,1120.20166002909,1085.14163451353,1028.96606519488,554.333646176266,884.000408019937,905.346106563423,1020.4343766265,932.092873750869,510.961229243594,705.880757308319,889.047279268678,953.96665009511,776.291784972499,638.452520304857,955.210141885145,511.734643375751,567.493871998417,527.848831420956,534.145479665195,561.012781952744,504.577905841929,582.302194624737,475.194265463328,497.109540265234,553.463683386744,569.981325197435,518.168229056501,570.345698218711,503.81960368144,507.669502136359,532.610332021474,567.440574199544,508.48196353297,557.083494813411
431.687455057726,458.467689135435,437.531030454027,473.244987581385,510.39848995744,430.520558204572,491.116636738784,515.987590521696,446.541419323687,517.408629645636,533.496073063667,434.85355685452,509.895373250873,568.884095787844,503.656135998018,612.0395688736,446.570396627921,635.683861378457,733.890714289842,572.981489347669,790.323116066941,550.661166979176,725.562870125932,1037.58155449892,769.992343284765,1004.61562706346,566.734532740456,850.987931281762,1095.09694827221,747.240895625351,950.111003069558,1000.59503812164,912.941742652023,452.138040891674,721.293508629792,827.536641533671,899.764007761853,834.918800880655,472.012967421629,591.263211018759,808.442821313338,854.728164628053,706.62621785529,591.041806506697,851.624623920508,426.627719857295,464.254388221068,437.882000345103,434.509189499958,460.519486998325,415.375272279758,484.628251209775,398.707539404963,407.901221411727,459.647834192921,463.045865686388,421.727420200729,468.681465125901,417.707727642888,410.183365604186,443.168119049363,463.348323002524,427.323098254684,454.196494039753
302.708282092658,317.395561274213,314.698571640418,336.69109827141,359.834281958252,304.992255503291,353.380000826161,368.070892986034,313.788795420084,363.084605172146,376.714424249975,300.203556684902,364.299367312063,406.970927221847,348.178361504168,437.608544689706,285.420598648454,448.65046291206,541.66378816367,346.47956688306,586.902811067363,319.832364781874,458.290681108231,839.815123576227,340.629084609975,775.766335453157,399.728624579811,509.693014682658,917.845622778663,533.747663715395,739.822705430644,831.792599135429,716.698611824053,382.46340163797,538.306507088466,696.103629822426,690.761304424513,655.706786091295,406.163833487159,457.756094786507,659.414694237295,686.370744426939,586.586584906315,459.508107125211,676.351830905578,324.347639539255,331.866654132871,321.954114022547,313.027253961127,322.257031368162,303.907047621797,354.267696683979,295.298769557532,293.502095652356,331.018243328266,321.929572724802,306.333465285811,333.08247573927,311.92390977025,285.864700781717,319.135108480182,327.207663353186,310.521890262488,317.368143382797
193.214614995562,191.013772606534,210.737270119652,215.59777134978,216.368216869449,201.958984738541,234.375610466264,239.041931256673,198.756619594027,229.180885042977,225.674897461362,198.367463733841,238.66444356594,261.344706741012,234.767176412641,287.745949756482,192.004145002762,304.130729720473,354.677018819269,212.785469404281,401.723055408006,239.123040478369,273.423045088043,602.368563683108,137.975676636317,512.043937848604,350.860942295171,274.133023437733,651.026286017826,358.682350098574,516.331127169246,588.675460001748,462.421704806355,299.834802351488,329.927588003272,540.02476450771,452.661344714693,434.177308152869,204.537191237438,321.966578662401,497.889643207239,480.880192779647,484.882839546205,287.377307135177,460.96184560293,236.298190278802,203.944728674799,212.734281324236,199.176894884875,189.876627648324,211.242025007379,227.55891131184,202.065776498024,188.915818439132,207.857080949991,186.601885613465,210.737078399958,202.219009370077,219.497801570752,176.579662769946,196.547324532741,193.772394745858,202.249102401037,187.609029385625
95.525465400691,80.0875288652761,118.191425583576,104.185675415776,84.8897483857327,114.508808391937,126.490532444905,124.978919986145,95.790478003963,111.21157079412,86.0545315820426,119.761727398758,128.162171335074,125.890405582661,145.616312131133,151.508976291236,132.150067159315,173.840355369795,170.217246029265,125.803740529147,216.305520142086,211.03116049648,119.985905061825,331.535158154588,55.9772657839605,215.906743065982,304.895365990595,81.7632290461044,313.591914486624,189.947282936975,277.904782573694,305.619521086646,213.676964269842,180.10072719281,119.461016487689,373.666174149454,213.890697678768,212.398587677233,-103.523993210635,207.534078909708,334.703632597417,254.202296942904,388.83166579785,112.248581401612,235.969104916924,159.93210379556,88.8659575830751,115.347777785542,92.388800231128,74.0960800567341,135.059692253163,110.179202688135,124.157855165736,94.0172304244733,94.7783574128156,68.2016958324458,131.024075416962,87.9452489325113,139.80433309098,85.3176928940139,86.8626641468261,75.958910555353,116.047664729563,75.3101057321577
24.292182374263,2.0571160927174,47.1864666156401,22.5396705634984,-1.84001734408241,49.1457723256804,45.1163919342345,43.8387987545109,24.581185040816,26.3300438301838,-10.7785431772877,62.3526290555768,49.9615610479579,22.3860494336639,84.6684227275439,55.0392731140673,100.772064862047,80.736037283171,40.2075300064873,84.6190101621202,85.8984953157891,197.163348590952,28.7270733124148,131.189850809009,44.5264541052685,11.5117986900624,277.020567473575,-15.6018815971873,68.1880788568547,98.6434885428726,128.44225182212,102.064364548062,35.6956870797359,96.478580002795,30.868641635794,253.294179613369,18.1887544678073,40.6195674968874,-292.676601270832,178.317334793623,170.431205136652,55.9111222041756,278.656521068985,-34.6284514182845,52.9530372268327,102.387316620132,10.8438119943572,48.5505466773062,14.2825440660776,-4.15819062689844,75.896911988283,24.811205654194,71.5682903160569,24.0899902023729,12.6251369744417,-10.8342092617446,74.3556618096966,13.0802687882997,82.9090275114052,23.4341065848802,12.6063294663507,-1.9445002095039,60.7523479239251,0.606690256326198
14.5945071305483,-10.950563355708,29.5962609349654,8.48226477953621,-10.4473053749635,29.232723018188,26.779235151238,25.7848487691129,13.7056693620454,4.92009089320661,-30.4239488327976,46.9497161543341,31.2840726955381,-10.5651353035779,76.7911198285404,34.9298165959481,114.310893799853,67.3730415945584,12.2037713102378,109.253206898674,68.5527524157393,211.912816303446,58.2083169487711,88.0936301961267,107.404669996151,14.651868135348,294.42567063558,52.0628601720839,43.0453936752349,124.672480799836,137.669042579383,29.3221182431872,-86.2468414875855,110.648133464231,96.0270877270107,186.639924611991,-121.763405886364,-96.1622296997446,-207.927319873592,213.348917696275,-1.05837931721952,-105.879915861851,164.752128613477,-152.486526337317,-91.9275604598327,90.3822028297112,1.62403041740756,44.9997503513033,2.41675428467279,-13.3613280451556,64.8755722937147,10.4850329634099,69.7970036263248,12.1008177499019,0.446562607343015,-21.0514164045705,64.864643043724,5.49982652347789,75.9748191975141,18.8548852629063,4.53554643877812,-12.5327916318476,54.8963754163619,-10.3595344055172
70.0625087203289,42.429000112856,74.9924485058917,59.9447463188147,46.8014693821672,55.3793146012991,72.2093791558499,69.751192700804,57.4354164022431,43.2415901603853,19.8597005576331,76.2059884873036,68.5232661709657,26.8968605876222,117.291767067289,76.4760920005883,164.187581331099,116.115598046345,58.9545627988992,178.077556606217,136.727993328625,243.151276093724,174.710710446683,155.956009691751,207.237898053161,152.989241997433,317.031124583343,199.47906844851,154.016202487459,201.027521819354,214.797599747579,22.9533464740563,-187.85932038358,197.955078912841,199.623711735082,125.227674535127,-215.716224959337,-234.121508983341,38.8917161753521,231.154967908365,-152.005330037022,-250.387405474076,84.2509365304022,-239.615165318843,-231.168636034069,133.845547791979,61.1850206035605,110.065869803753,63.2333247055136,50.4911887674473,121.868474955672,72.0897993070125,128.46748244794,69.1673499094191,64.5207709641179,41.0928100697195,109.791276542146,63.4625812070345,128.25318359496,77.9359434640049,67.2599532773839,44.6170950841592,105.822821113986,45.3068721284566
158.187404372362,125.603754501662,154.639189352575,136.556883696029,129.592890646738,107.484202531263,143.255585599674,147.086083697359,124.643685840375,108.453519531843,102.144819014807,129.144399357534,131.556828340953,99.4087134095785,175.217540233929,140.580418349508,223.154702544985,175.041957188718,125.776491239925,254.906606153637,219.634170428816,274.576408791688,281.091529754324,239.67206797086,293.798456185851,267.734199429093,334.160685121789,296.563545784208,252.81481682497,265.41812631629,254.89258365454,36.0833347247001,-239.322264569452,300.128692486222,265.851859305624,74.8978234050705,-241.611981426113,-323.785707674753,231.744365134979,238.298602009324,-219.381614498899,-341.848164519802,73.8086825734021,-263.277822902859,-325.006481486178,203.861422569802,151.425701761185,205.709637582294,158.545911320259,151.725820500315,211.77828767178,166.644288823855,215.784733679143,162.893451000824,161.600806645344,140.684055721757,184.609186915927,152.615720584438,209.030930989482,167.730535600568,160.839721772903,136.486824716824,185.458514256567,139.3287638999
224.48179038001,183.75571028292,212.555872207082,187.7115077672,188.083556807263,154.145317689076,191.88816507061,208.341876844702,172.036443775112,157.397173076311,162.633218000707,171.470406043742,177.12144285752,154.273557181134,210.707927403652,188.53024713629,252.944943286332,202.284844523301,171.806002105438,296.777252168832,258.711481276751,286.964794354759,295.180556274904,294.922186421485,308.64636594084,295.897247353038,347.481070700247,291.643318938181,308.040844569774,290.953288205145,254.922648168299,67.8535701715998,-218.299272855408,359.859897434144,305.515252631579,67.6839944783269,-200.120813754551,-311.271274110661,293.382078594291,273.288741640512,-200.776171928174,-356.277073763186,102.28886093148,-224.248691012588,-321.917971062713,243.953349161986,211.462065211644,265.115229482803,219.857662058663,224.75517279985,262.821051374728,229.017053355166,269.861798654994,224.050732362457,224.088341206503,209.637383943555,235.094249505421,217.670680543065,259.022988219784,226.397294973927,215.900527406146,203.817089457527,233.865480230363,209.540511773975
205.670786039734,162.837846006021,189.570910597519,161.305379234019,162.734920643809,144.167407735248,168.455421688267,188.097503762675,146.966045014184,136.169494233094,136.604772619893,152.887987464352,151.503661575526,126.889268839821,172.915857599821,160.293224842998,204.248957833027,153.006827188897,137.62363932786,238.284188148944,200.269478210631,223.015580429883,179.918370580204,268.138474331377,179.180151296916,227.368026268359,284.654668090799,159.827043786419,298.974429456328,226.187882668267,207.753894007455,55.1841161597332,-212.617171601189,317.911253307362,291.188340807747,29.577875659834,-187.656778233968,-278.093118151951,258.345337046077,274.565339799907,-196.950689138558,-375.534770982878,70.1083799308117,-210.422456312687,-293.78507220354,206.765671243623,183.801757349221,231.299411635793,186.751722803314,204.501966892786,225.803513950434,204.637704538913,240.152584231256,194.048994795158,196.750823790279,183.548261766818,206.021864660452,197.66470201702,228.632323450098,196.491530017233,181.016925946941,184.623899613989,200.570906006432,187.142155517971
93.5527737149942,56.6690859104139,78.8131451618535,47.4469137509558,40.3088055127943,54.2389127961569,60.0496052905373,69.9676204946831,37.7167422215646,24.9124484753555,10.4968652063833,50.6970205288497,38.2721628107335,-0.0341342630070898,47.1664249428705,26.0052557491485,67.9850545831777,8.34923589812173,-15.2339735174907,66.0715414705653,26.6884003355126,53.5795203922184,-26.9196475061517,93.8701292740835,-76.0218478589901,45.838491464812,101.425072607866,-74.5679500831696,139.976249029512,59.1484743922887,68.5770255049714,-89.3510811423573,-329.535283823019,181.141940982968,178.469482934081,-152.950797281017,-306.970201601585,-350.766511016559,153.586590321406,168.166601723168,-301.374391551912,-485.676127796493,-75.2138769635944,-304.890686053708,-365.22213309159,103.901865258998,73.5359660142193,117.857610425946,72.2167385663619,91.3982968020048,123.32810245565,99.2627167156582,136.340489371323,89.7311596472598,86.2688513411426,69.9700784626722,101.950105685611,87.4536071629525,124.26790250915,86.5150630103216,72.795428048536,76.8147168119853,97.1474713940899,74.7672820296411
-32.6812197799977,-66.4800504688334,-47.7125035962284,-84.0545052712974,-99.6740906963905,-59.8901948507098,-68.395409588307,-70.1386455842001,-89.2975936567004,-112.057974100703,-134.130058576372,-77.456371621441,-98.9074979014212,-148.511064666868,-98.9395499645486,-140.399287127979,-84.6755607002303,-165.689933975543,-211.823736809665,-126.166617176014,-182.481274285538,-151.67687952922,-220.839325269184,-160.136657422822,-318.854881238383,-170.324972056147,-103.171264955033,-270.075941914661,-123.579356976637,-99.4411695206458,-109.043714279717,-304.806869878655,-527.695079525676,60.9871106368596,33.0543893182922,-411.941186966465,-518.987911241156,-508.081922354723,40.924858809491,19.1455355119018,-468.289287674264,-638.996862765193,-254.448818414983,-464.950857847047,-520.847556697465,6.0626019112985,-35.0154068208443,9.86781487739537,-36.1611579944083,-27.9088573910119,28.4616955977572,-7.45654703462717,27.5338791764236,-10.1701630687386,-30.7914136357852,-43.7633755509627,-5.6894406313999,-29.7128271089991,10.5881886969781,-22.8442048944381,-32.438024703465,-39.7053988862044,-7.50161044253105,-39.9336375838035
-100.248010063319,-135.371983666351,-118.155424703141,-156.764203552178,-171.894382624978,-128.033428389545,-139.44845154259,-150.118177618672,-160.68736126026,-190.699084840009,-210.872750817618,-152.543564840986,-183.618336880771,-228.896279177088,-187.849011147324,-239.650146707475,-174.509603743682,-278.562687512693,-330.859071096861,-245.960984769291,-319.606128848442,-304.259797778148,-336.336269807558,-332.501217504942,-455.397517037962,-288.192015362605,-221.909549412219,-316.147562577952,-288.326349229987,-144.150620325864,-196.202746836984,-422.35565301937,-660.011050592611,35.425363396498,-33.3858759943744,-526.006912257485,-684.303629070133,-611.512078075028,18.9478213408312,-40.3244688820628,-562.760469540852,-721.351199454698,-338.931797109595,-572.457662547723,-624.137791038142,-38.6770740003509,-76.2465289897304,-36.873026059513,-79.8843234376872,-77.1360098644936,-23.8443216822006,-50.9633111448468,-38.3632879285287,-61.2280533144846,-92.1257695930559,-89.7027644767673,-68.9756977054629,-79.8068015238099,-59.7733770206664,-78.2074566959386,-82.8781047899142,-95.8298438286606,-65.6809543637774,-92.8800286242355
-128.046465947814,-159.261767880069,-145.420607578583,-181.351002921155,-191.812979273739,-153.436794471779,-158.377593495152,-178.752273424414,-183.032397272488,-211.492402593345,-231.384449321497,-174.909351124995,-216.888112483665,-247.590630993005,-221.323602707241,-273.458264733186,-200.751504130643,-323.905667998089,-362.53044870888,-301.572308956932,-377.214926590064,-385.445988387344,-405.854119405863,-395.751946887988,-517.279644588001,-313.825013471569,-287.143197053074,-286.022095063848,-289.559964772978,-127.787834271292,-178.560925093538,-399.651103871585,-664.020708748541,34.4745120788276,-24.9562864197972,-420.338811789489,-739.218348537534,-607.334313644945,83.7214736519182,11.0328226421352,-544.205573157727,-702.319978129038,-303.143286808092,-582.158293242846,-619.394104126155,-66.3239848652542,-84.5486537432039,-63.0106583504993,-95.5376651693788,-83.8172539911569,-74.295686452041,-64.8556550633872,-91.9296549329757,-99.5519388833034,-120.928168565747,-99.6408753031196,-118.341136735846,-93.4052527650774,-105.838671216793,-116.002131440775,-109.310085000845,-115.374735191782,-102.646536611572,-117.131255413219
-173.786333279193,-195.444565428813,-183.040906363581,-218.927694939173,-228.342716798054,-182.693469077121,-184.007207389518,-214.240418691853,-210.231339983472,-236.865295559284,-260.338046840271,-198.781798995263,-247.494889115708,-272.641283649449,-245.108906970191,-307.274411554346,-212.372272318589,-354.086796973398,-390.590228192564,-339.154253022749,-420.052538891875,-413.856213847564,-469.594869035201,-456.013249712986,-550.885192310316,-356.750107886699,-371.119870499965,-296.396604199687,-277.614457522181,-156.43633530789,-157.212287946724,-362.478310606913,-601.602238134798,-37.141877301487,-18.7858899949576,-265.180912411678,-729.693808854853,-572.260624014392,134.886880514285,80.5603526774678,-504.385258075524,-637.21833624703,-231.155378458171,-546.95133187667,-580.090357838653,-139.764589291658,-126.493852754355,-133.13847607683,-145.06375950716,-120.20734507251,-164.553612660341,-119.200934912847,-181.390838879086,-172.955627071466,-173.576792268622,-143.370091082521,-192.279464329207,-138.476906919547,-175.737864811041,-186.580161542045,-164.651264997804,-158.040113863802,-163.899778426426,-171.154178297706
-246.880146659216,-259.498816644169,-242.011443337032,-283.676143187528,-294.816595102433,-231.619627635193,-238.157627850688,-271.287403019181,-258.845908726697,-290.486051755498,-316.249403300026,-241.839547016422,-291.794266681583,-330.169148857432,-278.966800903241,-361.266707970857,-236.763724275561,-391.478070243539,-449.241581214152,-370.14883953031,-474.088387333748,-414.207350921172,-514.747256591716,-554.764024042751,-559.696353295079,-441.287012442298,-463.970879541864,-343.346123315277,-355.948162899278,-230.236391293071,-189.200037072997,-416.56299236977,-545.932005394967,-158.668063362964,-33.2204537197479,-234.578729525695,-706.778491281264,-569.426006935015,137.44247398812,89.6035686070404,-521.130149948012,-579.011494558716,-197.212928365931,-524.875767047451,-572.412636005433,-258.87982163032,-204.713943706937,-243.440197453338,-230.61540171337,-196.375361655982,-272.396543955047,-214.887581686066,-294.950141692055,-269.142467457765,-254.926697716848,-224.378107155132,-277.061647279976,-214.721382101109,-270.811516119652,-276.70915304499,-243.91258818356,-231.336772018816,-247.943614382137,-250.731713695761
-316.735821324771,-320.311699312136,-301.110647249397,-342.246006239714,-354.682727685922,-283.667934728422,-297.583164162827,-323.99234982887,-306.575374081578,-344.361535570139,-371.067232349106,-284.414458760316,-334.613959366908,-390.285582178408,-319.268668070556,-411.331116094183,-274.880740372012,-424.767995181115,-500.688584162858,-396.167288135137,-521.996778205141,-423.745308901885,-533.895573472606,-638.639353105041,-558.573874406267,-512.338310802604,-532.995543560455,-383.45804486685,-469.878479616675,-308.518395893381,-259.152104155392,-533.75173219667,-525.698485475349,-268.985887749347,-61.5558812170018,-325.52613910451,-688.437744730432,-590.858340242649,130.106883328163,22.5668287525619,-585.379984651294,-562.96722709722,-221.046394425515,-535.397923852882,-595.930149087517,-377.258755798562,-288.212429519911,-351.313923334961,-319.440204826766,-278.915177217325,-359.94045493966,-305.306406243757,-389.426968968832,-351.242974157109,-332.937730684102,-300.542627908772,-349.707256119544,-284.278726929365,-356.588815871047,-351.149110072894,-313.899901654378,-305.823431309894,-326.394598673148,-318.885950736693
-374.512213460821,-367.046202897703,-358.373737076278,-386.139714875301,-397.4037932564,-331.505607594647,-349.035370046587,-367.629861986543,-347.34885025483,-386.710118518281,-412.314701694064,-324.428674768017,-376.610301940362,-433.10063891534,-367.450468792148,-450.321086561019,-334.182029643333,-454.471978746531,-525.491976530774,-435.825662802119,-561.845337062895,-463.248218107611,-552.816201183137,-680.71684445606,-579.909267023164,-559.413146011824,-591.87907676781,-437.455055745864,-555.658824514881,-411.173989620224,-353.084465174074,-632.744012686277,-550.543063250827,-381.326055255796,-137.386368949555,-448.065368120833,-689.966684315902,-631.373444801446,106.907977622614,-101.617459849577,-671.89323836481,-619.083429285954,-302.029202859979,-587.879718894381,-641.9723264462,-478.468225234514,-377.621882312619,-447.305513508551,-407.787460714818,-361.734003403963,-434.175981398859,-380.599220555812,-459.243274367093,-420.812315075157,-399.963617006142,-365.338047981667,-416.699531374724,-345.755991988232,-424.164986465443,-414.205040806409,-374.534655043165,-372.149316012836,-391.411342173736,-374.805795627635
-433.036988156603,-414.878734991789,-422.411470003746,-433.940913432541,-438.044437259565,-382.827326743923,-399.503940977738,-417.770624782377,-394.949084241984,-427.766171165525,-449.61719356326,-374.381086813436,-425.551074123507,-470.737506952676,-423.214043472206,-489.417853370486,-417.609146474498,-493.295115767781,-543.750812315241,-496.986395166264,-602.96520053526,-515.793049386406,-586.182438385697,-705.76402873632,-623.176691455393,-613.334765627167,-648.429194757633,-528.310725565092,-621.033045522241,-539.002938137694,-457.294025938532,-691.35316404287,-610.301258972374,-514.458915610592,-261.845590836952,-554.41006193322,-716.137594641575,-687.20718269322,32.5221014435623,-230.84997474091,-764.955023941238,-721.034557215437,-408.847697365518,-670.478316921569,-694.559788471236,-563.250182779142,-464.86815782841,-529.61876535446,-494.092604636462,-440.894461791137,-504.036211835524,-450.411871866217,-522.326021530041,-486.672291339175,-460.57766972836,-427.824298876795,-476.34243902045,-404.43398832809,-481.446244267548,-474.805944216843,-428.999718697871,-430.251987663345,-441.839016868167,-430.395946456054
-475.492128805588,-447.139161584291,-467.535716477303,-469.435062643363,-461.61097044494,-424.208859882401,-435.503750382352,-456.850520596678,-436.450928531922,-447.7181315912,-468.467215474861,-416.602193458223,-456.105953608342,-496.906659442181,-463.075085847116,-515.278228362547,-490.055934586619,-525.617407448241,-554.347487314714,-550.541318734817,-627.666285873146,-543.706195157003,-614.318953274188,-717.973150807548,-638.131296796689,-666.890795394471,-650.050418537099,-601.901956203728,-669.215048059208,-593.024898543894,-521.808300511233,-725.685008891472,-655.5958294191,-582.081633998091,-343.654247295881,-625.7200563376,-733.36795135862,-703.079322110172,-57.6613248279619,-286.770989131508,-809.695602967591,-771.022318673368,-461.086316887214,-713.228811782401,-694.04771560531,-585.49412946625,-484.257336433974,-551.05658952278,-520.832021029663,-464.111681925591,-524.081953242764,-475.371883014251,-553.311476296912,-509.150997951408,-478.991988087779,-450.843116707296,-488.366473557079,-420.518166575617,-500.301386699766,-492.06124738081,-437.885491220797,-448.804193547725,-451.683411877022,-450.058088018013
-465.692919939738,-426.511772926648,-455.478976970759,-453.209578204404,-435.870004755955,-421.578418769174,-426.202617696308,-443.48221665502,-434.612617942671,-418.642427257974,-437.454719520802,-416.009662008338,-435.312085958808,-476.716021041301,-459.456148366866,-496.293288380506,-507.638505611795,-513.880254879132,-528.489473370071,-558.697132864414,-608.29201483772,-520.681223923382,-608.530953037202,-690.173887685943,-574.792980130539,-681.154098691068,-546.406283960281,-576.249862493283,-666.921810749207,-480.449120567892,-500.381674110749,-723.633365406259,-635.870861717043,-485.416934926282,-292.988084041786,-634.698679857185,-699.243818285758,-631.573296094517,-83.7843522488616,-237.500548726159,-747.409306116784,-708.252432142858,-400.582610772857,-652.77869632161,-604.545681601214,-499.613679239381,-391.283173152555,-472.468008641731,-437.065964476682,-389.817885966321,-453.75049271237,-408.808865597319,-504.440365311685,-447.952811162387,-411.476190072723,-392.828984401463,-424.427779979911,-358.187703858495,-447.780309311185,-427.333427905068,-368.539995378265,-396.915636370913,-401.311725789889,-390.947668813654
-411.332010910275,-364.217769455624,-402.448003354077,-394.042547034457,-372.737267147121,-379.035507965273,-377.725471952142,-383.751757267199,-391.744828176841,-363.753237223076,-369.27186380099,-379.106873661475,-381.17200067317,-411.554819249,-423.554826517217,-441.021993730488,-480.783402707706,-462.652770361203,-470.818870862235,-528.154077191235,-554.684254268942,-469.823896424221,-569.361841568409,-620.971013486203,-458.427732953329,-644.735464612775,-393.249376162768,-447.748825621595,-610.129252079037,-254.874176074983,-413.725536198693,-677.566471328143,-562.342978889221,-285.499254074292,-144.652692834672,-586.06623753069,-626.077973948191,-518.30844170172,-34.2202248406739,-148.287398004697,-608.389993800889,-591.557868021966,-273.582635808363,-538.805591346979,-487.386532924083,-356.912511979439,-248.319087697447,-340.937002591509,-296.439017623508,-266.322816688246,-338.264227113381,-288.530815174994,-397.227023888959,-338.443018333329,-291.576210136132,-285.634164361643,-322.546298054312,-253.479551177584,-357.388391630308,-322.129597344312,-257.802962627047,-301.937353585782,-320.539199142363,-284.48566660451
-363.649583760268,-311.397910934368,-362.822708840329,-344.241870432988,-321.819486906269,-345.613474204614,-334.894063599927,-334.432469316064,-357.274005655936,-328.912700480672,-316.121803029111,-351.114752700168,-344.096780421342,-353.070996033961,-397.268278301659,-397.797051257418,-461.922345150316,-423.512715088248,-424.874050537018,-506.035883608416,-508.058276534434,-447.592392881975,-528.296685805512,-546.284959233436,-379.860375913686,-579.349315653398,-318.409312549526,-300.229613770295,-534.721028685422,-74.6556967042056,-323.746685545512,-616.382906056382,-498.789829159227,-144.318382002584,-24.1336311846581,-530.357571554315,-565.656024904485,-455.083440735254,20.4731492143399,-107.008379513623,-487.736198463727,-512.981433379881,-179.280959493244,-481.042396722395,-431.476552646291,-258.583649762865,-156.300617267175,-243.536904662931,-201.648990736605,-177.885328072268,-258.360562754663,-201.421222574039,-309.269804817187,-252.78512631907,-205.346837708513,-203.309077509151,-247.184486957026,-175.246394264004,-294.506666631294,-250.960077800644,-174.390151334689,-224.523762445866,-257.937799535604,-205.136074812328
-350.280216537972,-292.030926257182,-354.057543324046,-329.900431417859,-307.461561986535,-344.052273575559,-321.627933952399,-324.591816869927,-354.739942670183,-322.03045297144,-300.722115283997,-351.547069298462,-339.720078934738,-331.033506244276,-400.581394332185,-386.196594086528,-470.526962764338,-421.702964459891,-410.567083299776,-515.942080435848,-489.683148494399,-471.439320734508,-509.210821388005,-491.27079603778,-388.703165533269,-506.525115930018,-367.673807748398,-210.439807555221,-446.083389061815,-37.7997166527427,-257.227845571714,-540.826137201922,-485.978630935149,-119.257579033454,2.97849855495222,-493.170476566784,-520.147378710926,-469.035576772086,23.3186807929451,-118.292897847376,-427.684762902317,-478.493671394481,-153.687613134678,-493.901473078567,-448.123795846451,-233.539104900814,-139.362899347144,-207.02190207531,-181.177184777468,-146.737786773526,-232.060998262707,-175.569095761399,-271.819149813994,-215.319788861371,-181.180359271179,-174.420135445031,-217.395997701416,-144.954502745987,-271.447827711829,-230.062785116515,-143.539891934895,-191.390265160647,-228.399754052434,-178.724390824607
-345.601689844156,-287.101952187518,-346.456348417223,-329.151287748565,-305.65672204222,-344.610214106559,-316.299849670769,-323.366495096508,-352.992235062331,-316.51710591353,-297.861341195474,-352.06070168037,-339.818018835526,-320.909102200882,-407.520625489075,-379.75497414542,-470.708514557177,-426.863572650921,-402.889910282419,-527.599206330801,-478.020183392603,-497.526049297211,-503.679896518316,-442.802436897606,-438.99598396224,-430.030019488195,-452.512431106452,-185.968583400396,-313.865713320327,-102.258773616975,-192.837653973845,-398.234302446889,-499.754015677348,-134.905212441583,-12.9819895368693,-436.282878416752,-432.650020246494,-504.714032566903,-5.80381307251457,-121.750146415645,-381.544680330246,-434.75684171142,-159.750330708263,-489.358813659352,-478.828496696508,-233.875595116982,-148.616033981463,-195.536803540208,-185.291211029125,-140.501952914111,-219.976032732662,-171.723356200513,-251.79034189245,-201.165375809539,-175.214155011086,-169.129257924983,-205.522319060314,-136.198071146687,-253.753995434415,-223.548202327837,-139.06854528207,-181.009874617831,-214.23546921764,-173.661649635028
-309.123554718647,-260.932990780721,-304.186371080701,-302.724193364506,-273.249765096071,-311.225310816379,-281.656173702675,-288.609188861635,-314.270775488795,-281.555988654402,-269.428619816114,-316.241609121894,-309.405923464182,-286.528338565555,-374.103655366741,-345.15305898389,-422.512471538585,-396.311048175183,-367.538107807442,-496.090742510056,-435.275168970171,-472.094113266487,-480.27100845015,-372.383345866639,-452.950998711186,-339.290276851158,-459.438567059962,-184.681308178322,-141.049286531073,-152.323741981192,-108.73770245876,-166.808043904405,-486.41455894041,-113.279756337427,3.44297968620058,-313.491877452361,-279.916550083423,-498.647147598152,-4.77772507439007,-82.9770243800394,-289.65116216232,-355.599726558657,-156.434124177538,-403.465301996587,-470.304928068962,-212.221709653004,-133.468222849015,-169.9629574145,-161.751447441853,-123.720384784636,-186.73695723242,-148.439869667905,-210.298209529497,-173.87421504779,-145.099627688467,-144.665704141967,-176.066395521176,-114.841270258401,-211.718784534832,-193.026534503717,-119.959487477794,-156.629086204278,-186.781054029209,-150.953700916252
-229.621128607442,-190.048967105401,-215.957869085303,-228.402458388082,-191.147552287749,-236.417892598144,-203.083739611305,-212.257474290429,-233.735914119873,-203.064098934685,-197.493623108914,-238.237049892227,-232.550254478755,-215.490269053011,-287.662108363774,-269.54116813638,-327.690852182844,-319.959105573617,-294.437565751234,-415.358248503381,-352.571971636855,-389.324371323109,-420.615166742401,-278.422779981101,-404.957545717826,-239.591044248466,-369.291053780897,-164.568708271757,14.8696735888825,-119.479748059283,-21.0317043573739,81.439363785804,-424.390171990905,-47.9811593576811,57.8686739627515,-138.322446326928,-115.393377023118,-436.466393920273,51.9962435458912,-18.763000486963,-151.448458100306,-248.888266155106,-126.628155381175,-248.966978828636,-413.167412642562,-150.775940798543,-77.1922611896426,-110.749025636374,-94.4639842136946,-72.9979966785751,-119.612771570658,-89.731456729801,-133.715457923013,-106.011051886507,-80.4139738657816,-79.3873671506423,-109.978012392838,-57.4912523693841,-132.22019554371,-120.694539279354,-59.3042710950667,-96.8591728654054,-121.587152746697,-92.4899281934639
-133.24635768943,-92.7750464667195,-111.450223122704,-128.877384725983,-91.6089322606501,-144.606521342715,-108.048625826643,-122.155839420426,-140.113707200457,-104.815105161586,-108.543261777782,-147.450048918664,-134.417899653614,-128.002871490494,-188.506959614025,-180.932536589442,-227.320126745752,-237.215383982431,-211.968722832063,-332.040657286836,-270.891908332986,-308.099026048669,-358.00918170785,-205.328980294182,-349.50853285415,-177.018431336765,-273.332554624488,-136.400808240491,83.5242369011806,-48.1567108766648,17.4971702669219,226.891941897228,-344.488658781484,11.1921597399066,87.9250578842797,14.1239454806304,-8.65871106655973,-349.722556964159,116.345237285067,36.3725181543406,-20.9139247308083,-136.407749973344,-70.1179734751873,-76.760833123944,-332.159399768649,-54.8907095572619,0.0469211725040166,-23.0764587022211,-3.0212994684749,7.14404461415322,-25.4222302750579,-6.02294974314196,-35.4570981571072,-6.94315310017212,5.75203933871287,10.4375871258304,-19.2156161253931,25.6283965363691,-27.0699496170442,-24.8378386555359,32.4989723400727,-9.87608102689435,-26.2956226968671,-13.1566718014258
-62.1508849129881,-22.6143244304223,-44.0552152454712,-59.2177367199942,-33.498428490891,-79.4467350592199,-46.0848420616365,-63.6728057361878,-77.3583221153731,-41.9787578029603,-58.6429966815753,-86.3286408734435,-76.3223982324722,-71.3637020014423,-136.01667540671,-138.988253292536,-172.911416253838,-210.735234760199,-173.915935228942,-308.352421257035,-250.593225927115,-304.969404886903,-357.817689539471,-210.829843039189,-379.872088200536,-200.772625016766,-281.337087094057,-169.165104761715,30.168537916746,-42.9818579320996,-37.6773861341706,202.829848095956,-292.489570868461,10.728873238698,38.5021278951992,68.2993500562419,17.1494050031826,-277.461040311851,118.559476008403,50.9255320392781,50.8193505472346,-57.895916884137,-8.25095149714344,60.4027658019786,-259.693952605351,43.4222880564776,59.9592512480421,59.0153285406836,72.6467603112841,74.7376640157106,63.5719810579237,63.7219114297848,51.1772930799164,75.1806070030628,77.9511071963378,79.6646773886156,58.1187276118865,87.255002998101,60.9606600751159,49.2806774633169,107.231960171736,66.5566274933395,54.2544495700646,41.1805024269411
-42.6655759506094,-15.7572497596222,-40.1871738930977,-51.3228618082293,-42.8583558885838,-68.1836468453889,-42.6221626204643,-67.7087743450243,-71.198343514321,-50.5483345553284,-75.6515142716091,-79.395559907161,-92.3792489412811,-80.7509997767236,-152.388423051676,-171.848685485963,-190.673659253065,-260.588109316862,-212.17802514354,-365.094086216683,-313.610020363825,-399.068115398839,-446.075967120852,-310.547503260681,-535.507358553236,-308.766365121232,-407.043742407103,-310.76516891528,-121.376689888787,-155.728243714804,-174.951006100444,47.7492788766484,-285.136114185183,-56.1051008856324,-82.8860152648307,10.8579093570178,-19.4077558851258,-234.029697413926,47.1122946901025,2.23238123235157,54.3090241063149,-45.2542385425709,18.4860600593865,134.127745537409,-213.792215245436,101.186082850856,77.3669713352423,97.598502547577,100.187404790453,86.4085478262526,106.660928657981,78.5119178754769,93.312038871787,102.5158866263,98.2216322449868,92.8392439577996,88.0179292369547,89.7628204134136,93.4944927456801,69.5966237547629,116.65496623254,88.0248392849104,78.7717409507086,27.7507868344129
-61.1345173178058,-51.6299213063127,-71.8503327079824,-82.5378691658601,-88.5612204495305,-89.8974048795603,-74.5881025252231,-113.112075311757,-101.346727738237,-103.667617120357,-126.969493663824,-108.389229585866,-143.934509705073,-134.580868962195,-200.591109841056,-237.486697271284,-248.458565233514,-334.066429936602,-291.384180503538,-450.738269555588,-411.53502002312,-522.150698552139,-565.227923648506,-452.912650013177,-734.197090228519,-444.497393627714,-545.536131831803,-507.889701568454,-303.417933928057,-330.615376983763,-331.709113887296,-134.421645571359,-297.734403507717,-138.47772376347,-222.735649650424,-105.942393926017,-80.7671605543408,-209.398189786234,-43.3982916553938,-104.103717421104,11.8950155025188,-74.934405811647,-16.5538909829224,157.16394999682,-192.810867796902,99.5483824188371,53.4071851016962,84.1806153899247,76.5357483600339,44.214937237101,92.8558593463525,37.5664105075647,82.42944518286,78.6489393702759,62.5765161032475,55.1714770758164,66.4566661182338,41.6363119308938,73.9328133220498,38.2161857785433,56.0275039441652,46.868265902298,41.5693948149393,-50.4413378950888
-69.2947324146378,-72.6830431057453,-84.2088084000269,-100.24857113394,-112.652540040634,-94.0269079387442,-88.8051780463577,-136.947527017878,-116.927125599492,-133.826530788518,-151.735627096072,-120.194497557505,-161.213807049764,-167.775046221183,-215.10508993843,-263.081621487158,-266.206458319625,-353.470371716924,-328.036829809731,-467.553430376658,-456.878369104596,-558.741614480385,-602.741283164695,-545.533076757656,-808.21365114132,-528.098879453401,-562.258200604297,-627.071133567296,-439.867084688566,-446.807658125501,-439.678843430254,-256.404539785203,-282.468969458844,-167.087042631026,-324.829728745275,-212.200254010413,-116.683597275474,-184.853517721139,-93.8549643511076,-220.019302771418,-41.76049899342,-80.0629353520895,-93.8624472783457,162.719922975289,-178.115429325729,50.7705300348503,7.25636280848931,39.4211685523149,26.2432001591077,-10.559098077692,47.144342104177,-20.1511464737652,39.5170519304701,30.0208249878798,5.75427956120129,4.7974043880235,18.877577620422,-18.0302872931361,36.6829539440647,-20.3533356055851,-29.9428814858167,-9.69835149222305,-31.7641793179863,-136.03342357497
-28.7404484897713,-45.0664330868957,-46.9297576752822,-69.3236577679812,-80.3080354056913,-50.5085960936442,-50.0754213913532,-101.04448910454,-82.3469640344808,-99.6462299192967,-117.511840059804,-76.3292640946609,-112.073642859341,-136.622376296605,-156.766783867958,-210.135419308967,-189.797227702958,-279.700572610917,-271.308282186684,-354.758410914167,-398.365094435615,-436.604537765561,-485.934478196804,-523.502854995699,-643.181995740024,-502.85252582859,-410.722831406899,-567.172428215835,-484.469413205205,-421.655105027928,-462.652832046206,-293.7552778395,-217.666862537493,-123.115968137268,-357.183872885906,-265.540293178729,-97.0195197167795,-144.590493996137,-99.1696523307744,-287.049457654175,-73.6668006608482,-27.4936227939159,-164.343146510648,165.990435875979,-142.722686854604,-19.7818497445286,-39.9067264593476,-13.4559174262399,-21.7765767944171,-47.8675371873923,1.68265060102396,-59.1615897125723,-1.86226960285797,-17.2688323843749,-34.2656802699584,-24.3345110882408,-20.3374895637666,-54.6011214805212,9.46652707085755,-77.076872258213,-90.0865610501911,-25.3643589931578,-103.118352333932,-157.102981337106
50.3718321076358,16.1887076923023,23.5010090952194,3.90143255218778,-4.58759575615037,28.6172798635339,26.6942230283422,-24.0449549445524,-2.87873416894526,-16.7833781014026,-38.2578672852193,11.7151152793396,-17.3969528297784,-55.3759818131008,-43.7628577792432,-100.680706846628,-50.4504228095782,-137.203085951859,-148.177106667073,-156.319244405905,-262.28651432471,-202.580498947755,-262.758656605122,-404.959807810839,-303.18542927492,-382.633112281059,-178.828641061664,-360.997549274122,-446.665168297542,-289.154139189751,-411.533217517637,-268.102507415632,-133.77865364774,-62.8040526154147,-326.837066119876,-263.524191261644,-43.2163364918432,-82.8505760923651,-100.216387677133,-294.458823189037,-74.1432811654819,45.1913942065457,-201.946239666159,160.391130958726,-76.4641309120773,-82.0494247296876,-71.1650800086239,-56.3558995034664,-51.5122815787049,-61.6614440855172,-21.7604843267605,-68.5110023244784,-12.8187744635418,-40.4393296546542,-41.8759365151244,-20.0801905617258,-28.2603202917144,-50.8847305708564,2.93776357733783,-105.576998334226,-104.204365921468,12.6774367398902,-135.801716489613,-82.0649939217319
130.831516164818,87.2617386719238,92.7071333981188,87.928197674114,80.8381477271489,108.90822221711,104.63996434705,60.1694231013986,87.5297703890622,75.5064659104124,55.2888585545047,101.187321815375,82.53324215899,38.7573916821194,68.3991832719775,14.9432395136003,70.3291127882588,6.6275663824269,-18.4282972328763,21.3408120926294,-114.908311524176,9.10287061013775,-56.1281344051777,-260.329748836701,17.0800664142362,-233.539775698961,-10.1094674679637,-142.130602518697,-364.884639315373,-157.372086801063,-327.518775648597,-203.424807251564,-57.6659256551732,-42.8020860589312,-268.577177283451,-223.947716315537,12.4537161205737,-1.35804693010464,-107.333892514561,-279.223745557798,-55.2411388379831,96.2850955845456,-215.27190773508,151.6757874169,7.18470596388364,-98.6311329222745,-61.5584949311404,-58.1511917393427,-43.3335788955922,-35.4846154045197,-4.1489565750174,-37.8123060256846,23.220035013859,-17.2327359952091,-6.07911109608027,26.6130114297155,5.39114574594627,2.99430815862551,30.5685431798504,-76.6272926280482,-62.2743395430493,88.1555780883792,-98.3882740360484,61.1544270120288
197.583965936128,167.175652883186,150.931759386191,163.971481277246,164.497977013925,166.847288911449,172.403849920692,142.695702984532,159.43692407014,159.499594347633,150.193250417189,161.444380420752,164.400607950085,132.877804330178,141.451034174798,112.964101259499,129.429428110839,105.925323239725,93.3442782783169,125.28251590491,10.7054146314605,109.751564393884,75.5362896796617,-119.062884264591,192.115584825775,-87.3344421931608,42.5744585729261,8.901856124605,-241.708975146843,-76.6979740455743,-229.254909633593,-97.6582447601399,40.8513158407516,-40.0082192493737,-199.156842020694,-152.034867817194,82.1261847072094,103.70396189761,-60.2507707650379,-254.122349347511,-15.7502066206539,152.687094040124,-197.819852651253,177.322389365596,104.883238379871,-30.5386305611276,23.5010024216578,22.4516460716663,39.1844517174715,61.2114361424525,77.2260220416076,57.0980341932297,110.32470603168,71.0236831677556,94.1839405552882,128.655572492605,90.2519388633078,113.868334048584,108.429394432432,33.4815433270787,55.7043870826925,193.615554147684,19.7979148668458,218.376268397113
259.636664133589,256.096149992303,209.360657085162,238.722886594646,255.252972675141,206.435921189404,239.714533154904,230.145288795219,211.281428015475,239.514842113808,249.90988255286,196.005748277759,231.338497186249,230.805942210845,187.298416872625,206.098782310202,157.573386770139,178.517635626011,203.804710598649,194.811268480343,135.52343717416,138.963532360654,183.644005899017,47.1722855800245,270.690950434232,79.5812466117937,60.9907538496838,128.784610531721,-54.109308357569,0.191617040583717,-97.5214236523461,61.56255935735,195.547251229689,5.96072305464534,-106.390584159496,-39.6896548944859,194.5647936656,239.682003931889,86.1119503652536,-190.137691914327,67.2064142683234,265.726337828991,-115.829612047988,274.428886572738,233.994375630325,130.853893730058,190.632770696772,192.968073128236,206.339215330141,227.594603054747,225.091732130393,218.932262529974,237.946813577777,221.75823055539,254.746051453194,277.593663732863,223.338205187036,268.324708716206,226.935871084226,205.516111956467,235.758305480352,321.6511022637,180.454883628093,353.606384552736
311.280637003817,329.660736822755,261.999262657963,306.804851738539,340.671205017927,237.461877446576,297.969828962209,312.085786736606,252.303662402141,307.707299056055,339.357289619568,219.877087686935,288.348243749682,316.629173120098,232.185467492065,296.159338044265,195.751818384781,252.648014035068,313.553825409793,270.887079675192,264.862196327293,178.280454708134,307.573741987071,227.558696965361,346.382974662425,251.987890815702,128.037840073473,254.920098776931,152.495328741057,101.157483234698,49.9816302762673,241.503853265794,365.691733250524,87.9112484698018,-13.0625811766037,92.2149026751147,327.938574176685,386.987234496357,251.862574857211,-98.3520426481242,197.062236499147,414.282772290474,23.9299488859973,424.589749586737,383.503874139801,321.103816230536,382.855457994656,389.506888047246,394.302970642567,401.031359442045,386.759829485674,389.775556785651,366.907790737602,382.96072353271,413.468064366744,424.175976188166,359.298953744699,414.187767568148,338.611092957138,365.529380422245,398.876271634888,435.587532214715,308.633741540446,448.700737642265
324.235602034309,352.733004633615,280.666820513627,330.010732675404,375.271479891757,246.673084029298,313.75852989943,351.459056378948,268.751489122021,332.74012835179,377.438359402672,223.279427599687,312.182108066774,351.662119708719,258.605422428402,342.340771112169,221.401586754367,295.320651783926,370.757266070836,313.542431800822,332.652180141312,214.032582111626,371.265097063257,326.232642986498,386.842808114875,325.161401269182,195.839842197947,320.707632650263,255.224844939574,150.997310395253,110.815683883994,352.47202698361,464.309919488108,128.297439858541,-4.04971430389119,172.436721272469,414.651354308138,488.284609784777,278.19791098134,-59.3113640809585,325.589772608604,515.471583588282,148.515758121115,551.819829420959,489.377289812452,425.557889529126,513.264323685512,511.969149391896,506.952127919045,497.731558734421,477.07588285651,485.207684085499,435.15644141081,472.522699394699,491.770631360641,502.724724584097,427.260384163127,484.113345186896,384.501092280124,438.567751998523,462.760775180625,482.375419531146,352.552941713152,479.188283511922
282.916397485947,311.801972582493,246.296853587817,283.361649308264,330.728220450773,212.047049396336,267.175800813603,318.220810961665,233.635711073515,292.127591461761,340.609192399072,182.809541411175,270.279209761615,311.092610612182,220.757971920867,301.197640417324,180.808067417053,247.941003062119,324.032545494906,256.417749733143,273.64749683181,165.040020983824,277.254569851831,265.77794883575,283.340569548059,214.650025598158,149.515670117485,222.559226058152,179.962323668208,60.2944554276697,-6.98495541322178,329.990951209061,451.684594647139,72.4211848203567,-137.415575494617,136.730114301203,418.889469584533,499.615226787161,99.0838890354776,-127.709664629082,387.716278806952,527.689632365646,197.770917601669,598.904601241456,499.148700038998,395.587867840522,536.49004748146,511.701305346435,506.71511192255,487.563746306459,455.891728431284,473.837958984731,408.028593492816,453.913161309894,466.70534927436,485.499331021676,395.727753164642,453.958760883427,340.599809216861,409.741729856311,418.200899615745,442.711828291311,316.882836430837,428.723666473066
195.803282491141,214.558320768759,159.957725622469,180.723075396506,223.739988722941,130.583055006306,169.545200567474,218.223040795085,143.455056676217,193.771666949926,240.721195343343,97.886091859122,164.133599922983,204.695697673444,111.259766764327,180.445592196591,73.5323729462366,114.505781037058,189.186130644729,108.715413118419,117.750521529561,19.4886390157803,63.3810105212838,85.7480997667651,40.6893100678699,-22.0646782612296,-34.5458743612871,-34.3063872621217,-16.9082001067774,-157.655623813905,-262.548692303219,201.052678328468,360.299536724718,-73.759843889028,-369.302501250703,6.50795308448925,370.48594202441,431.506101175779,-202.30271424449,-267.00586666278,365.150519586913,477.117005180262,177.632167342241,571.999334224594,426.000041070263,283.093155006967,449.398010726911,402.418594667632,410.568224483057,389.293013231961,336.870815608263,373.387112402971,294.188114314839,343.991408961499,359.520734422284,383.806237085454,281.687857981042,343.256528693174,221.545811218628,304.670423202336,300.110013668594,329.725151253867,222.579908550206,305.677432054375
66.3755304121918,64.4461324441479,28.6486403243704,35.9249334621935,73.775436797955,14.8387785165466,36.0945604658604,72.8649776384424,18.2491488989657,55.3838493580417,93.7535875724372,-13.6586699818743,22.2877498512562,53.9262313164862,-29.2107332526417,25.2536607745261,-49.9137573117714,-42.42221338841,22.3988596859193,-56.280658882282,-50.7036128490209,-149.407302378365,-135.293239092515,-114.166007545823,-205.336951094971,-245.403625609093,-267.658346900546,-316.224195448948,-225.901669690378,-410.231118182894,-516.102521079837,31.0233980644255,230.413001455377,-283.050770292459,-606.087234714239,-135.831482989909,302.320664585974,308.961814209661,-520.415649899567,-414.319883092127,280.898778987936,379.157033357202,109.033377284583,482.76312569072,301.208264200729,98.7819097036684,234.487134604156,180.611451885158,208.158538375126,194.016109054339,117.614369507315,173.565518013088,90.3306756382962,139.458769224556,161.793984536651,187.833730449335,85.9194642616979,150.331949510133,32.5342960829453,121.487358951868,109.629102447778,134.167498254299,58.8163133941187,113.105050768043
-99.3119878956675,-122.744748643357,-128.120955615068,-139.314528434463,-107.802017121964,-112.930673970786,-117.354077626805,-95.3949805628284,-115.126313578237,-102.095873336604,-80.3597288251461,-129.96943350822,-125.339615479869,-116.381386347654,-156.712888823673,-122.717367608401,-149.135993455857,-171.407675774429,-133.543637670361,-181.246559101885,-181.244026183429,-273.340168466767,-249.833809435165,-272.69920075943,-350.148035268279,-377.34474124541,-445.611225532013,-499.718825073064,-392.317767743163,-613.392846871194,-660.664723820575,-144.465514562,80.9125563971663,-504.675843047534,-779.047548763479,-237.192542480788,204.945062325735,143.710511461123,-798.49767605063,-540.219568983402,151.738925992968,220.069754544777,-10.7303064169906,321.131803447867,134.001265767519,-208.038581233258,-108.522374989496,-159.506319113064,-112.341664363332,-113.169451676707,-203.669096375048,-136.279772407794,-205.962492991145,-162.847288717543,-138.706205319535,-110.530002870134,-192.900604599935,-131.101104228384,-220.100414494847,-143.605538206315,-155.418894005626,-146.904527009497,-176.56950435391,-143.731168473857
-252.670391714657,-289.165100099459,-262.813256614619,-294.899563399095,-275.332719544255,-218.794828623628,-250.806562362805,-241.746797971307,-220.544361552708,-234.379574146153,-230.839605772321,-220.263131401324,-243.05820621036,-255.949321379729,-243.134165554963,-227.999416060343,-206.604581210308,-251.185435008209,-242.408240938491,-242.220827557281,-254.777795528865,-319.770128474386,-298.675729532343,-362.795824695087,-383.067721887131,-422.89377498253,-494.63882826152,-565.219174686425,-505.798833663135,-703.199540430497,-673.649365492963,-297.133623162546,-52.8185547223597,-630.497506715117,-842.769573196196,-292.48299427423,70.0978218926667,-26.6504335153861,-959.968108747045,-618.651935717941,-6.41763576447244,29.5121486419744,-165.896290016004,114.096734124289,-44.7838590800889,-562.471107477937,-476.887278599932,-519.610782797221,-459.251210589535,-449.357054496282,-535.784460579157,-464.713521873115,-507.734888891371,-473.664786604614,-457.938133271171,-423.662325806968,-472.638337943187,-423.413183610944,-465.258017424676,-412.040161754693,-419.35955307618,-429.962378971993,-411.44407186333,-397.854738567036
-329.347428854151,-372.405632767318,-326.611575998161,-366.934283229699,-363.45145782881,-272.347369245194,-318.455960095569,-313.635790055967,-262.900046399599,-291.665642037157,-301.428153583577,-258.482309325121,-293.026394370018,-309.902343513507,-267.804342268266,-260.580995484033,-209.489431005779,-266.801130914834,-269.705265840936,-223.713670528448,-252.000564930415,-272.200791691329,-286.199123858897,-357.932284792168,-314.679768220073,-392.687939981471,-380.852622067528,-534.138073976453,-533.322988270133,-622.518387608647,-581.167516255785,-382.744860918584,-128.912516121744,-563.5053685015,-761.274709874394,-313.646207404904,-72.6156552824456,-142.072858935467,-920.685520379776,-616.566041175019,-149.685799266336,-116.268594744573,-299.698479471175,-69.4949554630356,-170.953214203205,-788.598904731708,-728.042389616452,-750.111064117147,-689.747474174032,-674.325412572732,-739.364441847145,-673.453148911454,-682.767025293918,-661.090953467786,-658.868075232171,-617.625670481772,-633.610734172935,-605.032387024185,-602.59218716232,-567.921231068023,-576.883572027013,-598.93315446017,-545.758465922522,-548.405657167536
-306.719179629499,-353.480110098522,-304.305943362974,-335.66678613907,-343.666210006415,-256.554985107785,-301.517346723479,-292.857954980793,-229.793112033293,-259.771050070391,-276.216603166162,-235.121115726051,-255.997102121169,-266.192791157696,-218.245486590762,-212.503308158983,-147.293747912457,-204.760016545215,-208.541955015707,-119.298179840369,-164.97783721208,-138.143001372694,-182.695665249761,-251.051130655435,-154.49198825233,-271.597968256019,-150.164275799833,-396.997543167972,-427.873393994434,-378.413677358222,-413.423480750546,-369.017040461314,-136.618263592373,-337.912825328134,-538.089879067236,-298.238874462774,-171.919598225821,-168.827176818791,-702.826649449496,-520.376528842224,-210.890060915415,-165.254727283124,-352.02150076164,-171.387252282204,-199.111564827866,-829.105640075455,-806.856263049846,-799.502455959518,-748.430380244566,-727.053440327213,-761.411645899594,-712.360401047569,-684.482988223025,-675.474894475057,-684.281068548887,-646.856805735798,-633.792275390155,-628.567547473221,-595.1635215191,-570.509408123947,-591.341271643776,-616.24793110908,-541.652496413876,-554.835681160811
