-17.9791166039849,-15.0067626492938,-13.3393445771501,-22.0389171274653,-26.171214088865,-9.56952980534678,-20.4439954932408,-26.5336962784615,-15.7317270284867,-23.1263636962547,-33.4933543187137,-13.8468196425851,-21.5314420620302,-28.3461072264439,-17.1816557868726,-28.4186036643632,-13.6293303288272,-29.0710716056368,-42.9903876861412,-26.3887034026229,-43.4978627515762,-13.1218552633922,-42.3379197448676,-56.764710890807,-21.3139527482724,-68.6541267095712,0.652467941273644,-35.5957510183732,-68.1466516441361,-5.07475065435056,-52.3424281777301,-47.1951810854602,-113.094443154098,3.11734683052963,-7.17714735401008,-28.3461072264439,-61.2594900418032,-181.893562739508,19.6465346761286,-7.24964379192938,-63.1443974277049,-90.5480509611979,-49.5875635367969,-72.6414307951324,-78.9486208941109,-25.8812283371879,2.53737532717528,-22.4738957549811,-12.831869511715,-9.78701911910466,-26.0987176509458,-15.5142377147289,-12.1069051325221,-20.2990026174023,-17.6166344143884,-8.1196010469609,-9.06205473991172,-6.01720434730138,4.05980052348045,0.434978627515762,4.56727558891551,6.59717585065573,1.73991451006305,5.65472215770491
-78.4958329683408,-63.5946204437974,-57.4226742399357,-98.2669689024623,-116.787177146443,-39.6799820234225,-90.7715985705405,-118.434650428942,-68.4119922051008,-103.064395874121,-150.950593995541,-60.1931140381179,-95.1340469146835,-127.324484782712,-77.1767784726762,-128.393443105988,-61.2635289055264,-131.416892164822,-194.708864787957,-121.443980874659,-198.276765403251,-64.0028183892104,-198.210095141859,-257.385345960844,-114.473564137754,-312.857899097617,-6.83606649819006,-183.32781769103,-302.547829755829,-24.9495333408896,-226.687192690553,-208.860798511267,-537.717999339341,19.7214973741105,-17.7437019324439,-122.177237690442,-284.440189089656,-873.157810576753,102.35691002451,-16.8552564318996,-282.147083758342,-432.475797239378,-221.807520300253,-328.660219191691,-386.208835174222,-116.643640814736,18.926949645262,-100.475925442803,-53.8547736246411,-37.0871419597089,-118.328090588261,-66.0025780523832,-52.7347201972216,-90.1561071202924,-75.470927365375,-29.4652669974612,-37.6345066044332,-19.7794283707115,23.3959578300862,8.08116801180351,29.5737302104753,40.800482279043,13.5480946261169,35.1686179992464
-124.457992996822,-93.1184730742517,-86.780968409738,-162.649769609528,-193.860893050382,-54.3239774374153,-149.857575084109,-197.395420789191,-107.628890691385,-171.622911244837,-257.667158686468,-95.0038157674119,-156.114285113643,-215.409140339056,-131.941827093293,-221.176207887944,-106.262849744484,-229.524468907963,-339.347211155251,-222.319264415959,-351.136502584088,-135.058007825064,-375.660231869511,-449.064484529842,-275.591235061834,-556.699816793252,-56.1240462276706,-424.270855187808,-496.607390032793,-68.0692571327679,-350.475085823898,-328.994414276688,-1024.66553893395,50.8891624866889,26.6591278857484,-192.36300262958,-511.632299056862,-1690.99322962537,220.167252861702,25.9751034278007,-472.565841140718,-835.871173471638,-375.659360894193,-572.029931949436,-761.356355024317,-201.637225545089,62.4389482332937,-168.818442909447,-75.571648484256,-35.4785884449893,-205.117379515342,-96.0690252534617,-82.664722538871,-148.447170328862,-114.170091006665,-22.1162120229634,-51.7884590960767,-5.30305045092653,61.1911888504343,38.164479732097,85.944233769638,113.216420989522,45.8743565584051,98.9912945415445
-61.3996034780607,-23.2064987419831,-28.1554176326867,-96.437889741129,-116.845799823409,-2.21086548134835,-90.0796568683036,-122.321623681999,-51.653910810565,-106.856530658234,-177.020614282204,-46.9182380097751,-94.386545766159,-143.073838488364,-95.2703911990772,-162.377313703547,-84.6901520847878,-183.576689248707,-261.821013592522,-208.173572450131,-290.215995114548,-182.236170071015,-383.207002628615,-351.430652672899,-423.262975351502,-483.445553849848,-198.345956897617,-617.647783863171,-297.304834834726,-151.237116021974,-166.529183545191,-139.520954181603,-976.251787435903,48.4737126414023,165.284888081911,-124.664235128133,-421.796507111985,-1654.99412655376,245.539365168522,133.83742664652,-330.103991399355,-845.831566684465,-276.878871994458,-467.480225531877,-741.494991231176,-154.405760417835,126.124573706675,-111.346868174727,-7.877124069359,49.3225181201622,-151.7170851209,-21.0176048623192,-36.8333638517481,-88.5834083227708,-42.1398177912178,58.7632629012141,-2.37637580207847,70.7843032892388,103.082933128753,92.5204217438051,153.122166155533,193.185708063514,93.968312570442,173.986004191938
75.1935572924318,111.591505803063,90.926093527607,63.3671538385497,69.6452819958346,90.9632321915276,55.1099150673388,62.6565238278169,67.7495949417046,54.2034832501962,39.611263903654,57.6337338734671,49.645102103704,44.4862985546332,5.09387015926712,-1.1070331746953,-21.3071690840987,-45.7576471699297,-31.5403513517939,-120.045401551073,-92.1778967301907,-223.261776913606,-279.048402440495,-74.6633191608612,-527.109672669156,-249.770914935515,-488.070196202323,-657.544200253615,112.463928443097,-281.818559587163,116.201125601493,196.967073397308,-441.782716340875,-80.0207516326523,297.498650220647,-72.8370888700416,-141.707895648275,-757.062951031457,120.553359288838,179.338567541467,-67.9735613730008,-523.316793558263,-78.45618785858,-203.103051759812,-284.106852182236,-26.8930690219489,190.343772712828,27.790172089005,111.333373389116,171.549739482702,-1.02043877931895,114.602610366704,60.8109354731961,48.8315044858242,95.5281642597519,171.553366837159,86.5156835698375,170.507281452053,144.21890836233,152.98644306785,204.256685993944,249.851879324054,146.139635690759,235.060781147133
191.767463350915,229.890022973003,197.592430820622,197.625417287512,221.679381126193,175.521000639225,183.547332479358,214.612136759034,174.276372842806,192.995234126157,213.663201026942,154.271281771048,170.494679448771,199.137820527413,90.1839405021319,120.22692044328,26.0136226234608,49.5262376816438,141.648699330193,-70.6563440351859,30.3681830679723,-291.172614127703,-236.15706876819,81.1102436926226,-625.038137441685,-199.227850628359,-904.209086656921,-537.79903753742,264.789615041526,-454.216632055051,81.1360598529225,243.599372886768,44.6417469842191,-352.450193680173,255.840214962794,-270.020769788235,-81.1195366699983,209.518669228318,-84.2940214594366,52.4925466516871,-109.205157472605,-254.992836914116,-86.0298045122571,-119.408825677555,205.577273793665,47.1975712064451,251.783426570497,122.404040914108,200.84889487829,258.571510598202,109.292348217931,213.004412633131,145.450247879859,151.09193731647,199.761025622203,261.57453701062,164.849771141874,250.189943544134,201.215177429155,215.198472838148,251.35113967905,303.23621558283,210.158369825901,295.843572561098
284.121181031476,326.601391450978,284.037870758809,298.790843925874,329.781846538352,253.629653521845,288.893869718191,322.808720158125,268.714612843304,300.15331950149,331.442766695146,240.822783274439,269.458303596244,313.612043510393,159.16589410758,206.768829258241,63.6583953076917,117.289161961909,261.832135199514,-44.1140028879473,101.028291986693,-355.330274909886,-205.327406604467,139.108981892062,-701.771123899898,-223.76422849914,-1215.26105263175,-403.153274183311,155.481847229597,-675.945892342268,-258.298627314095,-14.8482960002011,411.834105149201,-601.256551210959,-37.9072627344696,-633.882005250951,-220.323774577258,1045.92233120604,-290.66385765632,-193.143063179772,-314.943431488179,22.2360109011279,-187.989079579559,-40.7979944025321,573.107800259545,88.2974066955348,311.777953759199,178.295577905072,265.46292294355,321.393946243554,181.638559938428,283.907883627006,215.352618212561,220.0912915927,278.43736997826,342.123668467941,236.036850311859,323.572169823281,272.884927326414,284.710650044584,315.973747776871,375.77607001434,287.068857594634,370.863725821792
357.145860573523,401.097575355847,343.68927667199,384.528132725711,424.399879351461,312.931462655914,374.529821668343,414.692570840651,342.840961542185,388.056573960314,435.362894447423,303.090294702017,352.140811684746,415.911538039827,212.413040036254,289.989883353253,94.4562849084563,193.09973079801,377.058376870233,5.58211066708169,201.2540862228,-373.176220636719,-80.78496137308,228.091832187826,-648.99487444921,-101.61115414782,-1127.59381538025,-404.361640093556,42.3837669414626,-828.962886424345,-626.171341444222,-227.253949780697,843.184377804492,-612.451793375472,-480.39379486652,-885.635331370899,-224.26322516726,1833.39872817115,-440.514482165418,-437.265921373947,-306.30429076586,528.586088355097,-91.1382641146127,219.230512615655,924.888093248331,170.79814129473,360.189005820311,254.585002670809,333.142217491901,386.496769777313,264.37073464336,362.662618040401,277.408810493993,291.903362448767,357.721444014508,415.956343331728,300.952722456342,392.295959731953,320.113706092458,337.785892625485,376.074961103579,435.764056271687,336.388777774679,427.918091076552
366.003331451998,413.842524842777,336.733693124416,404.697400069283,457.199948501455,307.032471830076,387.613414689392,443.048059007791,343.240772361218,407.061030862221,474.28432974599,293.748001992696,361.28981120086,449.314244979974,211.493327053757,312.646489669618,91.5275576713267,229.588291390573,410.085875581916,61.7639113447911,268.773057592081,-317.608559571038,98.0956357727929,283.716537560221,-339.92617743074,76.2826791120716,-647.590521779119,-339.520136190667,-32.5782938323198,-614.840093612555,-840.579928205026,-246.137708058711,1213.67727199556,-380.158296183765,-779.24859922232,-851.965550335988,14.5756435074513,2241.72960208355,-466.908764389246,-573.40646925695,-77.4401666804048,1067.69307109574,204.02386997513,474.137780095658,1176.17075288246,271.858584961294,391.921822763955,326.636380599558,381.335748723985,429.024979951653,319.390954308139,414.259549445131,299.944050399528,335.464349135269,397.691095825896,442.790544848154,321.755706913185,416.510152233093,307.801465473505,339.176816402366,389.618883806101,438.18402886067,321.912789031453,423.953788070384
297.726240708223,353.329320002688,263.026635480475,335.722565045098,393.562901852493,235.29368541029,313.94199109282,378.537084293812,269.027181296858,337.376717004124,409.513949574805,219.238103271265,286.419355830259,381.746914852664,164.581828808623,256.36853277905,72.4045337160035,216.287290980955,331.777573681603,120.891698960709,263.72206341173,-153.056347741901,273.896706844257,237.973245472139,228.37771003587,187.406324214843,-50.4129040687713,95.3680312932826,-94.6616640528593,45.8715954249542,-732.083619486134,-161.712864167065,1268.56353489763,-69.6109318376623,-687.670223520949,-463.692624579783,318.294635735761,2010.28715945893,-328.916344716603,-492.867931778022,213.816154861795,1253.38024997939,507.252345055308,619.995079704564,1086.81331447563,329.885832940565,391.80982356712,339.667568599567,375.39750160561,411.148802518802,308.152809659888,395.359233870984,266.478784357991,317.138492563732,365.895103718196,399.331463612134,281.631060270735,370.88086051385,240.321710464366,282.095981049491,339.759139241115,371.582067336889,256.053212901702,352.609928946549
190.266994269382,242.495840467333,165.261927426908,220.605827879008,266.357780412429,146.369241933559,201.490763228306,257.849069315994,173.742290613005,224.947905948788,281.755248182933,135.867027440707,184.994217135697,261.447083353796,124.134271975314,185.904853240263,85.9448404458049,202.769387395128,227.096721536676,206.365946889521,251.585815287217,122.439561192914,446.950180775063,175.273959242935,859.241733994273,308.645801537427,461.548615404545,729.395207694569,-29.350273870746,760.516862819863,-193.283233207451,38.7522883374411,966.895226085748,214.361133148297,-298.716531687526,255.237485258145,482.081320038343,1357.43607360888,-71.9802826478004,-172.833359942814,530.336672108743,981.492677854077,702.693821012529,703.176223699738,645.721089413798,315.108830218589,310.41953397933,279.752349886971,295.154061670763,306.499473124548,246.480696316467,294.600552335235,194.598267987451,241.2144878087,267.595986097056,281.764497211277,201.475640090989,256.681530343034,143.447732853596,180.982580003843,228.150082714349,240.631797968806,163.533450421597,225.885408497919
77.1685343055848,101.082980899798,72.0753212477553,100.085776949245,117.714846776206,71.5695345136416,92.1685146529547,123.939917992465,91.28354767453,115.777220523562,140.991319214875,78.0870511893049,102.76325739325,142.343344252683,117.011611844492,150.110849721312,141.174624562359,214.993579035724,169.482334084386,314.02513621495,280.936303566042,448.001110499963,601.025358065192,205.536858577678,1304.69975512748,522.583521474943,872.574071932313,1149.01526653876,261.236469236235,1121.938489274,567.276405526339,427.26971994582,530.778579507725,468.378605383437,92.1720352668625,1044.71126554905,473.599706804513,680.965472145564,178.018883573453,215.606710899336,800.262299643304,520.91003440039,745.752438263585,631.084131803027,161.785450617465,225.786861977535,118.683866878102,161.396998023308,134.291611955597,105.570915196644,151.033533502118,115.355277310013,102.416634623369,122.966128818693,110.654532449166,88.616861713936,99.2271978583515,82.0409436579121,39.941671751889,54.5276399821197,64.4127048387261,52.6166089072519,53.735065392219,53.8331705015577
-24.6886144438646,-45.4405231226073,-7.37647026889067,-10.4581073940555,-27.6385259597034,12.9225964768352,2.63852198337678,0.872560717652907,28.8905376156948,26.1302282193469,12.1706014530066,44.9851589860571,50.0363004091993,46.8156731939634,138.326829615339,146.896904435578,210.347365136393,246.79322656073,167.100167130271,417.284963151084,338.858716025056,748.508610446552,706.142695891027,338.128036923837,1485.87068277678,784.889320196095,1247.19388510394,1275.90610386444,705.755235765223,1167.73694672736,1174.63750490669,873.885274729454,244.653722701453,693.064358925569,371.818543703287,1545.72933430665,423.508359226836,210.568410291077,333.359855076629,464.599264910929,898.873070093833,220.043698000948,632.921589177769,350.403551705437,-79.995634403392,95.3231588614834,-125.058408955822,21.4683727114356,-70.4085846026089,-146.156887588822,36.966338435107,-105.438900176453,4.78778598827159,-10.2615692887243,-75.4445618752376,-143.377929900038,-10.8286338180682,-119.426709301758,-51.5358229295654,-72.2961330605172,-115.231526507603,-159.248493351324,-54.7895342506912,-133.096218818047
-98.3925333093311,-156.694301024906,-64.4651645689274,-93.7046240204017,-142.570637535835,-28.208030546349,-56.512354370005,-89.6092829793752,-9.29880895685377,-36.2083515647693,-82.7574901744064,28.2795560995572,20.7750679839247,-15.8181776075643,171.404567736576,156.58120623603,265.594120086155,283.154886661318,192.30138108414,490.994514205061,397.413607415394,953.902107235015,758.70212168916,493.480470458422,1473.91778724955,1009.02180310026,1567.66432365684,1268.92984227395,1077.56267565314,1130.73028191917,1457.76440397353,1102.82304071689,175.222203895713,848.09204961505,594.723486412027,1627.64959107119,419.171573795075,-39.1919578293898,393.3813781921,550.596449563866,809.593759688091,171.596181409391,439.169363585774,60.4992191734666,-86.7304517264572,-12.5327676269417,-315.859673919664,-83.2398334929846,-236.855002510073,-351.947518109663,-53.0514539667848,-288.27958811147,-73.0938951620792,-111.817261528913,-221.318175390816,-329.435158382848,-100.484993532931,-282.167037780509,-118.004951630444,-171.919744090241,-254.265124313802,-333.757039825149,-133.954596497973,-281.929014036964
-137.582080354965,-213.801932020898,-99.5776907174071,-138.690651145198,-206.396850373542,-53.5863608403001,-87.3966350770713,-138.85722564316,-30.8325095322653,-71.3994242696012,-133.884197213609,16.505743758886,-2.84823605486513,-50.388626201052,183.737137651866,152.002946937532,279.395872015131,291.156474331417,202.970530116149,499.760001723223,418.644670312824,985.481769643894,747.266164414983,572.320194661712,1294.87600572523,1126.21837688806,1658.14527750345,1168.56066249409,1140.48248763093,1039.95489337055,1462.29897860451,953.23848534431,176.252194283546,860.005333562455,733.504622866544,1388.35559886261,415.015659218759,-134.27032254976,361.756224376915,550.40953359192,593.277676490555,227.682119208857,255.117823160677,-38.6064625087619,-20.3580202453703,-64.7874879620017,-402.339413748068,-126.220523435541,-310.597032421871,-445.777563099144,-90.0383813511491,-370.632804084435,-115.622366879846,-154.484199551235,-280.996226608748,-405.921036899443,-151.877798549355,-356.221741200268,-159.181689156058,-228.508497672533,-324.254927285766,-423.969724116457,-178.87659294471,-361.104357726727
-160.705654919205,-237.509498153118,-126.669032508217,-161.669925332444,-229.663739521926,-79.625977925219,-110.057730292013,-165.967786643171,-57.7479824096363,-98.7194426446758,-159.197063194811,-9.7048293173152,-38.1866514817095,-79.6603506146371,146.974206600897,110.520191753001,229.608341915695,240.460435908361,169.68338757677,418.165008858053,369.536906487371,816.973036928749,652.186965621253,532.458307425382,931.891012391132,1104.43447579268,1408.52971725081,958.727163034421,896.780804442095,832.699945797975,1290.48291418836,528.11103477517,148.809862716941,700.374349519779,745.074899882248,994.170376659017,383.138892059121,-124.984868851988,260.225441300509,500.630431564284,331.393902848842,254.723271221621,106.041883142205,6.98189275684705,9.01040138797477,-87.5323285632638,-411.798795918641,-135.767386957528,-315.076395123434,-440.48254692036,-98.1735718703718,-361.60815383483,-136.989983222729,-161.6024405628,-279.318142105777,-388.776635956916,-178.219838529187,-344.989641305829,-186.938300757211,-249.105487607714,-343.139628439081,-428.448989924063,-208.693808731819,-383.933763852428
-183.845917731058,-247.171097667249,-151.962965089067,-178.162115460995,-234.662349892414,-114.980006430655,-133.562187063597,-187.182107092441,-95.1410702462925,-128.802142087912,-174.242738267522,-52.2549004598245,-78.0903406398993,-112.958748395268,77.407685056936,47.0156542514771,135.937477718011,152.677371210434,105.845242943125,285.570163628761,275.370800766823,549.401231543083,510.987993959165,425.958884381606,519.844372954162,979.884176883806,1009.96194839447,740.489805268443,596.550338604818,601.223601099566,1080.08897608444,111.761127755868,111.652880559172,474.411748111116,709.881367907082,628.543638744361,380.180956165491,-81.8425677712309,191.06906762711,449.346807548161,147.219081007892,230.685151286443,-2.19637599267176,41.6908352734235,-30.5329793007181,-105.895443833009,-381.59437598404,-138.383047545516,-294.716424619616,-379.810145084116,-106.826441188204,-310.568264945061,-154.859969386787,-163.977698913097,-256.459256076243,-330.441795566043,-195.394191437033,-284.192228864885,-210.42772046826,-251.824926124452,-332.100611949023,-371.572144007555,-231.323514271977,-372.925697977234
-181.529618625398,-224.970459155821,-153.194365723995,-166.370176739226,-208.469854770216,-131.845294743666,-129.968400810401,-176.338035094253,-108.133434235871,-131.098228382784,-156.420547965795,-73.6773497575871,-87.0755125866485,-116.518190494223,29.6164461260294,15.6235376501055,64.9723810653093,95.835229793926,67.7042631702868,188.181792510744,212.608960037196,337.39531602377,409.440593989062,353.079721033084,290.6918526016,839.543397121786,737.289677056992,646.276342139013,447.992840336183,486.643076809535,966.249538039717,-78.8399900802547,90.7297552103062,339.422311465838,722.068846329177,389.764353158161,445.201210461196,-53.4103193292831,250.199794765473,456.174378734822,124.330587342918,195.790813483198,-29.0006409436632,42.9403022413492,-75.1904849730547,-101.441203869535,-306.578751853296,-115.118398123686,-242.138334187567,-276.878011319366,-98.2218685387412,-233.631702813631,-155.97114493203,-145.386284565445,-202.871885183033,-240.660639631897,-188.7450828543,-193.479224961614,-216.072906423676,-231.687300345126,-281.744474204916,-267.545554230716,-225.476464572451,-320.666075548786
-119.749817191733,-148.196429299144,-104.023465724094,-98.0453918073038,-120.668314121118,-94.1661929328596,-69.7269975239502,-99.0998517608705,-62.0793536102242,-71.7589839211964,-75.3511313219219,-39.3671452246786,-38.3872578634082,-52.3338874311504,37.8845389988115,50.150922291674,57.8867069173729,104.996345425708,100.037389736801,158.074345079827,218.963579932599,222.493417228072,370.424793345904,359.341514636537,246.375185869803,736.039078629118,576.219991724849,658.383794707277,443.197343064416,450.727067087259,921.938604003782,-37.9254387513737,98.7180452220416,301.855780882099,755.190401613038,192.793349250656,550.053456887166,41.9902350665485,400.234805182239,483.33771853223,199.861418827083,222.032773369232,26.2820879437821,102.472541507271,12.2485853316771,-60.774245089845,-180.484089879328,-49.615116209461,-135.351534447312,-130.551569314392,-47.9285629336324,-115.470058231261,-118.028697763708,-79.2798418155778,-97.6332168882783,-103.134339953749,-137.499547927909,-73.3988805805979,-182.016288447321,-168.495123144454,-182.759532657247,-128.898511346488,-172.129762528378,-215.477030137353
-25.1702077440464,-42.2704984744028,-27.2908932886315,2.21229519969889,3.52175015667805,-21.2808630206101,19.564950901653,12.8096548362254,15.9276634184055,21.7809518506403,40.5354406667637,23.5449010151684,40.5586144317782,49.6897136732483,75.4324520262788,109.932218059203,79.8348455026301,133.109221321242,165.723835383,142.093761900585,238.936236729266,133.083577151848,314.480670230375,373.208740561848,151.346508386211,606.574013747342,319.438078067835,594.121885628951,411.582947705717,310.225626539561,693.130168108423,108.037434407094,136.31287265744,210.202106361402,629.548865143929,-93.1723524889468,625.170261761357,256.780330773461,465.276201138502,414.438805176867,214.661379467934,344.620198904514,72.7287578124204,229.734308827436,251.515415211366,-15.5754111714816,-46.4898805122699,23.4020710229887,-11.4020229188448,22.2843284113873,17.2219826723549,22.7086587754691,-58.5668348508443,9.0629088388929,21.7494191284287,49.5077645835893,-63.4493637039049,51.8959583647935,-120.187512549782,-81.2595234849648,-68.4146133369023,5.39935712877763,-94.8613201763332,-91.4055876208057
36.683875037317,34.5433729532757,19.2526619106189,70.7761942721379,90.0181928144734,22.2282376396464,74.8151774747382,81.7482290115003,60.1805392044189,80.4320779320048,116.73128396937,53.5891029655939,86.4389046094934,108.882318885264,87.9594877910347,122.720102489615,79.7314672329908,115.923677965336,176.171474950892,94.049173039134,192.099686870826,46.5349462014374,173.627663663588,278.514316681991,-73.6104520245597,321.960206666032,-26.3818948290956,297.758794376626,157.926472063364,-20.5938326656748,70.441366142672,202.050279636749,166.173079544097,1.84272220018639,165.519095417519,-414.67483454237,603.813302068926,424.788189330281,287.892355548762,208.7343220165,80.488016442125,505.902699207608,27.7708430903134,341.183867869695,475.046659701695,4.50231909128642,38.9408399385795,61.1068926052389,68.2403705654592,125.410417656927,53.3972602757712,122.912602711036,-20.3146027811636,69.3353603933791,92.9663878118816,148.921401417962,-14.517038275338,136.039651131322,-73.5325936455112,-22.2360931601702,6.20089121994227,91.2903220293347,-42.3003794988019,-6.4851756886691
39.4336422071543,50.5937252760745,13.1690115962617,74.3925606397633,100.683863818395,3.97223501914033,67.8775079115843,75.9497879893484,42.0892123033056,70.3415558164493,116.553526834447,27.6209058076341,66.0871764763887,85.4506248224508,50.6925359368708,67.3796761253264,46.8852874580824,44.9598405276897,97.5903813665385,22.3707937913871,63.1507728647526,2.49553586422165,-26.6039721775954,49.9565707973144,-262.640199844831,-135.115198549676,-221.877447426302,-160.367790278069,-350.888795342436,-401.552892613441,-741.44402797645,89.5134199846189,153.339133211272,-199.039287592847,-488.87334528711,-580.883424250213,468.797192741292,391.727516091712,-57.6465506672353,-46.5359669048489,-118.909963594518,604.50397304936,-102.68229106687,406.365580787465,537.43528808744,11.3178103298318,61.4504416471784,62.7116686771354,89.9347552999543,161.073888683387,56.5261986758193,155.593999512658,-16.5229492633282,80.9798309432618,103.612654718645,169.937844424239,-8.92550550766876,156.009870797401,-68.8733458631902,-14.2842457547036,18.1666718233318,115.50608600804,-37.8943117804963,16.4987019373696
4.08125712285979,17.3436403935772,-24.352899845692,31.3035511502995,59.1088300056086,-51.5096077357915,14.7864615507207,26.6580765267877,-18.3071323162084,13.8749335397397,62.0229427230853,-31.4899715151348,-1.70342474250293,7.79929371221769,-23.5133335775907,-24.1185940439288,-10.5485353928472,-52.8624084695264,-28.4276709066043,-57.0412495941041,-102.275304444985,-16.6439307134239,-219.57112812935,-217.495693054724,-328.883890535925,-591.992478121036,-184.604914896889,-522.347384853823,-886.371959080708,-599.376535014683,-1241.84301795738,-267.307821448335,97.2429833609598,-279.665417001528,-887.773802531491,-538.419458264685,262.363953978807,229.657068598368,-281.717621610136,-237.624568636014,-219.262594451292,540.822877210883,-252.485373807165,431.115549741965,428.448240037253,23.4759015197841,46.3474247052846,50.4988156894047,75.2458375378211,149.221334997061,43.8166611681077,134.192988047466,-33.5731978043036,56.5107664613315,77.2374284133756,134.794324824875,-30.2004084473721,117.555984942118,-96.7420465116683,-41.0699169503348,-12.9320780141606,84.5480255405845,-68.5076502205736,-8.73915743206874
-52.0291795360261,-45.3303053821157,-78.2954403540136,-34.4273820770925,-7.53639238658326,-111.703833308334,-64.707154083072,-38.8617917770211,-96.4696767527386,-62.4445527046001,-22.7670957349762,-101.593693599661,-89.6987518843103,-86.6619291584879,-111.865638281477,-124.515890701731,-85.149206348032,-158.724326306284,-160.228141483107,-143.668687731344,-256.690741956828,-65.6447314238904,-368.483381002604,-422.918399396299,-356.475800646655,-866.20207047319,-101.716616109787,-618.483742905294,-1157.63574045306,-532.67251933691,-1198.13342158495,-673.776713955176,-3.79400392203289,-253.481020463684,-789.716689797133,-425.691186708981,53.3182088573336,7.18388658075536,-190.607258529063,-304.884360639491,-166.020005302633,256.918662045394,-346.450093528053,368.082081971942,164.747742578715,33.2785077534428,13.2774303186021,29.8928665867528,32.444400220032,100.70307450066,12.87971482851,69.8849948229675,-68.371557080736,11.0160627591934,14.2701924933856,39.8080160056561,-67.4573518154097,12.162912626886,-138.150087231032,-89.0607463604934,-71.4062239748363,-17.8918489928437,-115.889437355705,-74.3183506113561
-135.35364403255,-139.248804597611,-156.921466455271,-127.409119267587,-108.459496687259,-178.00998402349,-165.270650780424,-134.625480669573,-188.152359765055,-165.785080874579,-139.694734505756,-184.72469897163,-197.091564705999,-197.169208140541,-207.075712868878,-235.258117931887,-169.092349470109,-270.327115408337,-298.09984873029,-240.622408486304,-390.726479707066,-148.614463231555,-484.034277309634,-565.200852803744,-405.319036038471,-965.292294946447,-121.215415598564,-537.255094112525,-1138.23864573644,-351.125238458921,-900.384367079373,-888.595051954929,-178.373153985644,-169.113004497352,-422.071337492755,-379.909759078227,-140.451704004974,-327.859308990333,71.2187652323502,-282.238518148909,-90.5169469013856,-168.900696210018,-368.280987048067,183.557199959657,-222.553489717073,11.1919999057549,-67.405026028984,-33.1078671221238,-59.4195186989586,-13.7062674037138,-60.0611635481976,-58.1007620908368,-129.613182810543,-71.7531241115274,-113.424298352547,-161.885688332221,-135.727177873013,-199.736166267283,-194.889337247651,-168.309952245005,-181.422230049472,-237.726200678309,-184.286458046565,-195.953816410644
-243.226612081586,-265.168063196012,-261.307176250803,-251.064179293667,-247.153524630994,-264.979239686249,-279.039014589662,-267.086982127755,-290.418167279218,-296.941098407579,-283.305387486629,-280.042454449418,-318.751996695827,-329.496383214478,-305.728457077341,-354.216454216881,-249.722559325307,-382.421477433776,-441.21476111443,-340.469971005328,-513.660877812376,-232.954550941042,-586.17939345732,-684.219968987652,-458.778841684292,-998.570105384286,-198.561484923239,-461.361713165509,-1026.71681325204,-255.806692164938,-753.084865671831,-908.639143923798,-458.608213882638,-73.0574736627465,-193.737724092634,-444.358262825979,-387.462305734187,-715.007258313991,186.262481035972,-295.41226725406,-182.868723826906,-551.020881705327,-382.356424901971,-87.0273889267373,-615.352647091561,-69.0445596787277,-234.214708780442,-183.242507695905,-215.014759699892,-219.935332448516,-190.516631999435,-261.665383965841,-216.682504238601,-218.261876169736,-302.271360697442,-458.905611559316,-241.852350014242,-505.602800427051,-273.457346850857,-283.290112308315,-352.719231096638,-558.480210746896,-280.833189752726,-369.622964548862
-346.512945276766,-390.381603595325,-361.185278203182,-373.947373590496,-387.026325403471,-357.016612252531,-382.888004661388,-397.881133329964,-380.690989327273,-415.205776617077,-420.105380370367,-360.383685441007,-418.6885221463,-456.358070721005,-381.634874627344,-453.101079346001,-305.022963685875,-471.713365870172,-557.056227432773,-418.118175244657,-612.454973401056,-297.838089075693,-665.693311522759,-766.693114298939,-509.481886474795,-1001.11258347515,-272.895524546757,-464.04084900449,-924.734232456968,-311.65466197431,-805.483199405324,-889.294750415963,-832.926332056222,-35.0814887277104,-283.194230751663,-582.491725868108,-734.993948705184,-1014.03158581569,38.0783726559048,-418.525531458019,-474.593409110722,-828.994613711717,-447.007937567141,-414.486927986903,-912.864280232863,-196.195016289549,-443.929151894284,-394.422288745211,-393.138735160742,-465.360404660415,-348.842340731563,-481.176282682423,-310.789495905264,-399.792296933595,-477.52555481016,-717.634324420647,-349.996372877754,-762.517793312831,-352.315576090439,-398.440073620355,-515.975869811397,-828.049927254928,-378.981311839865,-530.385036548858
-425.8966772268,-484.784419286283,-426.179024552709,-465.217693687638,-499.751430352032,-423.703916241639,-461.879741424203,-498.970394038309,-444.923465328601,-495.967469024154,-527.768725065603,-410.165885287227,-480.736125455728,-554.205539123217,-421.152859684353,-518.861301227464,-335.040416417433,-530.969843213156,-635.253266110899,-467.812222046164,-678.77290790837,-357.629193965951,-723.684509603366,-804.881661394154,-579.523474146601,-979.174685116137,-376.881068427172,-540.769369764797,-816.717160692545,-459.860303287135,-852.515212272436,-899.019770521493,-1214.07007224828,-94.6936851834806,-543.068895923505,-697.660434518265,-1090.10221789515,-1248.72507347992,-217.388277907488,-568.840156069566,-779.408431688085,-1123.5741990783,-550.972562347049,-768.269944729938,-1128.31559885738,-327.197675837617,-603.708120128338,-558.36759118067,-526.665793097194,-656.106195130184,-466.583175358851,-622.353522457317,-386.517813025789,-536.962954564145,-566.599168600315,-812.795484379645,-419.975028199011,-825.31541350265,-404.738556860118,-469.976900657483,-594.159365101706,-894.269147121841,-442.647589937219,-612.475509543564
-482.724317679592,-548.836007157525,-463.79809753153,-524.894856043854,-582.380408019269,-461.01052585008,-521.086936500148,-576.032311084241,-496.52098857278,-559.767740268356,-610.240417809837,-452.067207660203,-531.934948185731,-630.363453347098,-457.691862766195,-575.97666416473,-374.695648727902,-583.821100904962,-701.490190854598,-523.027523288911,-733.460080284568,-451.548394320555,-789.619439365404,-834.523432939811,-692.008980065458,-958.483112578337,-555.752332051704,-681.137468919876,-717.722964906314,-631.933094126064,-771.794502483277,-889.528430473093,-1440.54046041893,-223.101412918279,-742.908977037453,-698.747646230251,-1259.86716153861,-1437.21703915988,-413.899347213134,-622.250357858265,-866.748193956684,-1409.94892016582,-614.842271928597,-1006.95349525484,-1222.2354662984,-406.861397890954,-672.259207926406,-583.80827975681,-578.005784582845,-745.818518459651,-488.836166406418,-648.13680823197,-421.90957302693,-568.402853994973,-571.734853778355,-760.305278267883,-445.412759886738,-725.572380025446,-428.480653752985,-491.585898913636,-593.450938732718,-785.8453330045,-468.226704195324,-620.759552918034
-499.995141706079,-569.122631972764,-483.263675619869,-545.916733986126,-609.607661656735,-474.098588544569,-549.09065497138,-609.713021827991,-530.866059396463,-600.10239754732,-648.795556084325,-490.012381317296,-572.443399563829,-670.202731164881,-506.233586462595,-622.746692871296,-431.174320551659,-625.555811713501,-740.427916148641,-590.82559579437,-766.166960229667,-584.795965250297,-846.343562874999,-836.804473408188,-859.565863318606,-890.474758497843,-802.054289075543,-841.638135630856,-606.444897481326,-804.137212090578,-594.201068470831,-795.333322346401,-1371.6371285542,-380.700357782971,-799.08078465437,-576.325723740464,-1129.70336596724,-1398.9254562946,-527.34747561079,-560.32413937888,-672.266787419035,-1423.74305083647,-536.280361941392,-971.634583517988,-1077.70995932791,-378.688423486952,-655.140961461894,-477.901626237772,-533.316523469279,-729.561440694294,-411.870561514706,-580.121566918942,-394.517758616892,-490.405120407791,-516.935284867305,-641.562241249789,-424.165471076976,-592.432408755255,-418.884610839312,-470.093662808926,-550.761631753325,-640.989874200955,-459.599903065998,-586.440203809709
-458.984062726615,-525.751891388756,-464.874381912383,-512.747508103693,-561.662187886329,-453.348513445257,-522.620349295568,-572.889762289998,-517.77418469509,-579.718960627638,-614.795617593187,-489.690972245348,-563.16148554697,-640.652663951146,-526.396074527961,-619.031306119618,-467.730596043421,-624.204673531674,-712.327020902229,-631.26257115574,-742.115688119607,-712.250367261336,-847.334434971689,-766.695532795316,-1070.20510341649,-743.515705352732,-1052.47601495803,-987.663511004826,-477.38078934807,-967.231605821803,-475.719626472114,-656.314674814532,-1065.82898252936,-558.918536424541,-769.700997972117,-462.139667171283,-829.214975289188,-1110.17485056596,-595.257694896366,-500.388481733431,-391.386008184531,-1108.32689816944,-348.601479862189,-753.748910539856,-794.964838368423,-257.374743732522,-572.151526370303,-337.239655274925,-419.309167480353,-623.191235439655,-292.552939233946,-460.092588356631,-309.943229657444,-362.73923976818,-415.722435287703,-505.85463317489,-358.149505638272,-480.525177142341,-365.713199815728,-408.05928216859,-476.201945252464,-526.464012166488,-410.255162202179,-516.752856381469
-385.501390341038,-444.973495338358,-403.064362371897,-445.246072593297,-476.118953761055,-398.876085198054,-454.957603147287,-493.401498864012,-458.959856097707,-507.569554704944,-531.220881674566,-444.149591610628,-501.407268599551,-558.01297488643,-497.4265620804,-566.022385547579,-469.622050041526,-590.247748926642,-641.598080678397,-633.747044299173,-686.287920471303,-799.484771277928,-819.227743142234,-683.933730543952,-1240.66755599527,-665.902289078938,-1196.85903927928,-1147.84727845208,-498.700423202884,-1104.5387272617,-591.246073911176,-623.51528948864,-744.362506091417,-747.187070246494,-762.98219036427,-528.380348535789,-644.04789125018,-854.26684282233,-641.310036499931,-572.220856670042,-307.124701784612,-747.690605726083,-241.539308313361,-629.380668920262,-621.34717977132,-151.365268749107,-462.990420748609,-254.527337560583,-313.745420140168,-475.051823803429,-207.778133714514,-342.52226288886,-221.810014393586,-265.220484697459,-310.796382219069,-384.28921894097,-281.076246487743,-380.217907915781,-287.816766100709,-327.298652651862,-383.105690148681,-424.407914664418,-333.667344291404,-422.316074964136
-308.790440471974,-360.152331409579,-320.115801508975,-369.027912267531,-386.733091207451,-327.153287034858,-372.820494095649,-405.230102011173,-383.235914936923,-419.335755455891,-435.017774064174,-377.074762364456,-419.949826921912,-461.050676997057,-442.829513352598,-496.735474194872,-448.649013548397,-545.957466957328,-564.759556767342,-610.806740012891,-633.316283407628,-827.204890203535,-794.676122023701,-661.572835837339,-1213.81660616063,-761.665053505348,-1132.40582070974,-1282.93957024243,-754.333408939661,-1199.54078461994,-836.403504630855,-711.443490476073,-493.230083465066,-893.861791368766,-846.82358877847,-691.501939074708,-658.488551254117,-712.566088269661,-677.638310369779,-696.823336231462,-410.978033663966,-491.381034176005,-250.059451101359,-650.535156039898,-547.805185289668,-126.733727602558,-356.011387303773,-223.925435348884,-254.250139313753,-334.891704347189,-170.829615496333,-255.508838984793,-166.775342534635,-212.513661007285,-235.506599495682,-286.029958518786,-219.87520679689,-284.376109748383,-216.319166359346,-252.039280222162,-290.670869866631,-314.352921545798,-254.004276311723,-322.422616777115
-223.599539010727,-266.027386259018,-233.005980022939,-276.08831935652,-279.03188001049,-248.587152678186,-276.441226309778,-297.009016101711,-297.708053118938,-317.24091013253,-319.371483480648,-296.69312810794,-325.550654446651,-349.138272472167,-372.594738568282,-402.748909419195,-398.713431192329,-461.341559917738,-450.255709174927,-532.074733907669,-538.419251491384,-755.156329866109,-696.049096493059,-624.736128712896,-903.386684355312,-834.661666780901,-864.19098929189,-1199.52134447601,-948.292283002635,-1217.98581017576,-846.12504593126,-696.444970331748,-200.419652031231,-934.817975534385,-929.857927472211,-634.725130835185,-602.685182960497,-419.789746260114,-717.399529336567,-647.16008402142,-370.378301860304,-201.420995342744,-148.012868904003,-565.307912177487,-401.304683041724,-133.040304070383,-252.514837974957,-181.137386640607,-198.379262972116,-217.118861873152,-131.683315055972,-174.925071025314,-125.093423969064,-156.461457580094,-165.377287423687,-191.856691556158,-163.565094366604,-190.157821556033,-161.698838915856,-186.031734296985,-207.792159344201,-209.730414106098,-184.238209762412,-228.495262836788
-127.156297732203,-155.874662227197,-145.58713205506,-159.138294480779,-146.019346111626,-164.742364761239,-163.276104289111,-160.923140598518,-196.065049817631,-191.469986431419,-171.18739889389,-204.190022044725,-206.234924313073,-208.498304314931,-275.373657514833,-262.043455795242,-309.953507041712,-307.518784156554,-267.719195914426,-375.911434971605,-351.790876192951,-587.297403792148,-447.811319712626,-447.376097878109,-459.631014044187,-639.205338556009,-582.203743506099,-771.908252528755,-731.500390660712,-1125.93010016697,-478.996710605367,-431.014398336491,179.569366793531,-871.907218088541,-819.758201221582,-269.930553662692,-217.633250179144,116.454508114243,-781.362005124692,-415.095431022768,16.1380739068796,195.55832587427,175.326212449518,-197.081414661318,-181.061331691384,-100.912744122088,-148.692748923918,-100.453285742389,-109.592892920486,-104.22282634997,-58.2466530366931,-71.3300160439708,-69.8440990631641,-69.3300312500001,-69.4943581091503,-90.2205002275975,-96.0573887466693,-95.5824727298809,-119.434719009946,-125.951527163423,-139.496112823867,-132.338919136337,-131.881524593514,-150.841550824427
-29.7597604710207,-43.0873184813363,-58.9773419744313,-35.1891571788259,-11.77673609939,-80.6210840820829,-46.7687692851923,-24.063207294324,-88.8481815465203,-56.1769055414064,-15.126122935833,-109.46265158987,-78.0689595932112,-57.1508687273424,-157.25678279749,-99.6198573800632,-202.559641609153,-126.521140453865,-63.9714287385243,-198.365016052082,-116.324809590925,-427.089115293774,-133.421871283448,-144.997940958032,-179.264757874191,-224.873118653452,-566.478634859525,-184.51756712404,-185.266367600129,-943.602123859796,4.11248710473225,-57.0938740833379,507.060779313689,-797.853689861037,-509.908002222412,114.60315103848,335.200057593152,615.326198389132,-860.769191135094,-254.837703319145,530.99247734673,562.675551749167,510.232445401559,294.961843421177,-9.89935987004187,-23.110622937584,-31.1326730694014,2.99803478430438,1.73539474309155,25.3088508030756,36.4494129644597,51.8719641755788,-0.236601906384973,33.6324995235003,45.2318284024248,20.359698982386,-19.0396951600882,-0.199212736661341,-76.9459549777242,-64.075644014051,-74.1767109399797,-64.4404899900613,-85.7891706934028,-83.8748161554375
49.0555374283835,47.5401160272689,11.7392452286721,59.9286034104853,85.9828599969171,-15.5458288538311,42.950676487391,71.7552006497008,-7.53345304890007,46.877007486036,94.2727639908786,-33.662287641884,12.8344028316287,53.8888047935131,-59.6898951738087,20.3614228747886,-122.31001095915,0.524838246613531,74.8324689102502,-82.4266354788455,62.1819393435885,-367.452489943286,76.7450387013912,123.589459709356,-182.101685936847,136.898518691408,-856.309114189513,171.848506935204,291.810867252932,-704.089342094082,294.858095044325,252.144582767508,631.943018811642,-792.641403024208,-225.697084501246,270.143214931653,662.093676432708,770.447957570254,-865.878898426363,-278.640916351942,789.120552748565,700.430950820199,635.493258840544,582.934335409595,-9.53173930236773,58.4657483258605,98.6146204408772,99.1039741813803,107.949205794335,151.710907773492,116.869268525565,160.543923796026,63.5122293379124,119.115971246343,143.655837042437,127.886032639329,49.8845815184049,86.5865048570481,-24.7193343789849,2.59519909165706,3.36292148760609,22.1712552480796,-28.3248012907199,-9.54917060262365
84.0788973003664,92.5229497493615,45.9507339688815,95.2945722227032,118.672356319733,16.3429374657961,75.8191012963557,101.779804709512,26.2580218050084,82.615545354009,121.276872563654,-0.382263139604925,43.7735700631905,86.7525689553163,-21.8443121352824,55.1926493598579,-93.9532544895314,38.3952958728683,107.136023070424,-50.2252434671875,115.673506271994,-361.73914443861,105.429528694928,223.720235619062,-280.431445907784,226.517318174908,-1046.45535354593,38.6589099800356,414.48321777101,-389.594067743374,260.066903421954,553.029353781075,592.003533612308,-764.116734006207,-112.848723860845,248.544758393267,677.621380818812,552.843758791005,-706.973835114457,-299.549764550463,659.463186489398,525.050355876982,574.603977376197,527.89061609317,-221.973806387679,106.650646720895,192.698567298662,154.677286117338,180.390356825191,224.707243956744,156.793472752727,217.987043435443,103.124164363172,161.194888571492,193.678578944998,196.687671761869,95.8089845802184,147.829559539911,30.0652991578845,60.7730954768957,80.0032246412619,108.621018940751,31.1260434348103,65.1267252617696
84.9152029529673,99.9726982620196,54.9622192840669,87.6847693263148,106.437822112926,31.3016095140176,65.8478886742559,88.3712205780498,31.6043210497623,73.0322500402354,96.1252762577874,3.22636630335751,45.3420878600755,68.7927729388293,-20.1280443543305,37.6297557162958,-77.5508577266902,29.8630385781058,72.8348925463711,-41.155768975761,78.805485912575,-269.8167339036,25.3668671015108,165.177126866861,-218.080376167368,29.7167189132701,-660.817820954537,-423.350178421557,148.477787731646,29.1717823127513,-105.658848305343,897.296336866572,525.122033755534,-487.397689338194,-96.1550310530438,192.076861533386,602.893497386031,134.801135254028,-425.285822665403,-167.074664829317,320.065667831537,143.40125747024,423.698501421912,270.666538157218,-502.322901128955,126.524689608367,211.354677097928,166.704707985004,201.672205743814,231.916463695273,164.037122933153,222.875251681983,124.353188524318,168.686844765778,199.83411625172,209.883612239726,124.411326010529,180.769936965711,73.5456060322192,100.41000400422,133.256656135873,158.574685314182,74.2200523586167,115.828827112643
76.6461986298067,90.6384053440233,59.0083043668159,70.1062312482308,84.9894064760642,39.8515076694191,46.7921488225489,65.160138830885,30.6989715706364,57.0030397193285,64.78548684197,10.5471016294025,43.5061781298222,45.4122317516704,-2.83893440572402,24.1414995307923,-19.3003627939705,26.8081148726094,23.3317230713537,12.5578433606885,27.2585787978972,-25.4369505836232,-43.109297062025,39.0036475268225,69.5869918746447,-271.722887193065,236.30010201835,-697.448152366211,-291.825732531462,529.936721527982,-551.621981958851,1057.06558504754,368.730026928652,87.1260945380369,-5.25717133430323,182.834817691424,460.785298386535,-445.522108998548,-94.5596781045277,48.9258935569115,-29.5874287584401,-355.96615092466,176.372997904305,-30.9231976812834,-729.876387470382,127.572440680778,168.530117251074,149.310069270507,170.024718537323,194.491347140704,148.492591328262,191.209108839816,127.707826671246,156.638899837377,176.815616783595,180.165800616731,131.966492128249,178.340238914294,89.6215588666437,114.028277512592,145.451490577583,156.595426150196,89.7769800619,122.67909193045
45.6150930288469,51.5540420086392,42.7071639040581,30.0730173178875,36.1984075193086,24.4347883549592,8.7204170719101,17.9066326350953,10.8432396048617,18.7137728029797,10.572471464501,16.1793201549614,17.2792959904988,-0.451737652101641,26.0826985513737,4.50598632100196,65.6026786380732,20.6339236580353,-54.4968075839952,92.6946106847625,-31.494666784665,278.411137664063,-73.3324285224352,-108.452770733707,387.046443791609,-479.934238186476,1046.05540042386,-497.400488423779,-510.420668456867,951.528305087292,-599.42018228457,819.252405895187,-97.3505003851528,685.75905605871,269.761807783216,259.878728240878,63.6166750572013,-1303.04548535852,303.305210219852,239.257576069113,-318.721679515414,-1032.55188728881,-185.612480899014,-362.707121631536,-988.235320432675,81.8222242448762,87.669855703399,89.6442305875655,88.2489989180148,113.143695276964,91.2471410900845,114.212141983635,88.551335695029,104.094975379769,109.159992357992,107.338637405947,92.2121590408745,116.271266422391,64.5224585300615,84.2787996765992,97.5929069870082,97.3852725765613,66.3117548121397,71.7943906580486
-30.821066523028,-43.2702564236543,-16.530998548973,-60.3056202334334,-77.7779874438725,-23.6432220622704,-74.2367029655502,-86.3928170619709,-44.9796598721452,-73.2125715527151,-106.662206826706,-9.88290898133152,-54.5187024000565,-107.438450790545,22.5192804893256,-61.6992432432165,113.216277379283,-27.6581033807734,-182.473041678103,113.113357590575,-137.256598590173,460.993102571494,-136.965858463321,-280.704717237405,395.513175366178,-574.879335787715,1272.87797353993,-183.920065379096,-374.109254847995,979.065256891812,-169.431339473,319.820931105481,-824.086263266858,990.437044395032,588.927858895997,295.552754735252,-554.478891775972,-2284.56278149059,690.862480639891,309.591895452687,-596.169791595537,-1772.96526620593,-667.914074422679,-774.561809362272,-1275.45266148407,-39.9686876040929,-43.7176421268265,-34.2644513144862,-46.2129877095699,-31.0675257747409,-23.7001890840486,-28.2468087192536,-3.61618429009427,-12.701118318949,-23.3370318122571,-24.0828303626444,-3.48198932544863,-13.2444801740844,1.57777101493484,0.806864596566675,-15.4581159608581,-19.5473425921024,0.933063705341293,-34.9075697554153
-145.414419949761,-188.513611945609,-114.847381156863,-192.476496350688,-244.036096767183,-100.712235958982,-188.852921956732,-237.17567180808,-134.970324923827,-205.006071070377,-271.104887581266,-79.1894509108994,-161.037924475953,-253.958161147198,-38.0377378882734,-166.956057985402,75.902439146083,-128.064492429473,-321.238314022862,21.2861987232389,-282.049008773944,391.827569740892,-264.296226733457,-456.067965634343,-20.5074515897917,-649.295973640214,959.596296573999,-232.660181239018,-222.272791561844,499.486211510081,190.723808538586,-166.192509908634,-1428.87657538973,952.089694234808,664.657097741642,57.116247319297,-1128.89334456219,-2908.90092178625,841.750693271107,170.479048106149,-1003.55115929743,-2172.97652961041,-1263.93187365981,-1286.45535281698,-1373.04074169765,-222.736515749667,-238.576906527462,-210.030370494164,-233.256227358566,-236.866434138771,-183.825093869696,-228.624114897675,-129.977222357439,-177.934786752248,-210.385337050099,-210.310718609664,-138.296206568717,-189.287062927724,-90.3972842886452,-128.375387178941,-175.152151603308,-180.255741963067,-100.814054149726,-179.612322339163
-264.079452951743,-332.982156926556,-225.586874523879,-319.544416885988,-393.970440189881,-198.636373685204,-294.612614076585,-374.455777062858,-239.966872330411,-330.613696980547,-415.056482290975,-179.669951474932,-275.765993490136,-375.943413046426,-148.172958909545,-275.759076371017,-52.4878766328867,-254.745340078526,-421.016481957917,-147.840483349925,-411.965663758336,106.100434539754,-390.156362181339,-584.58328804605,-502.226507424642,-726.267568859002,484.538862952935,-508.404606120122,-302.715464504625,-91.018231766247,102.099476516627,-495.34627223659,-1671.23460533754,742.460072120145,504.21608791643,-442.54228003853,-1448.00113454219,-2888.56105995515,711.863223185042,-128.143192643288,-1539.46312805457,-2009.72917894722,-1798.15665423599,-1714.49241619442,-1154.55378535776,-399.219293703066,-432.414019426506,-376.433707954249,-422.0380857225,-436.336645783285,-343.070769318329,-422.186337807527,-256.240123739273,-335.683780079482,-393.235193525238,-392.40012095749,-276.582663541472,-356.515971515462,-197.131133083665,-265.852504135154,-329.030943730624,-335.814002319235,-218.022106546068,-321.096958140666
-330.550022755815,-399.609143092504,-301.054041446482,-379.59460966353,-447.381695687934,-278.806288940409,-351.907730881763,-429.061443971921,-317.228107525242,-397.355255515889,-470.052007385375,-272.259424428166,-356.181876354459,-426.281890628769,-267.773644790599,-359.158761556791,-221.196784084132,-363.505872152279,-469.259465275388,-309.340431928608,-488.353160522448,-212.593896895865,-454.906847085165,-635.794010192215,-620.997962191172,-763.947856386334,89.567687030071,-538.396083455155,-422.915016425323,-351.984656730674,-183.519144798724,-657.567718779285,-1702.90295225565,499.470230364577,368.529133086558,-942.928471425659,-1446.29464253563,-2424.67397655227,493.491322381947,-452.585689020668,-1923.62503212146,-1537.36182344983,-2033.12136153869,-1663.5671164551,-770.040233698931,-478.392724853969,-495.992619592939,-446.831742741328,-501.157172806014,-506.733629382762,-425.636515480994,-499.260599425152,-331.376156998703,-410.417468417581,-472.842349795166,-462.134959978005,-353.55554487019,-423.730194392372,-270.377478689219,-339.186048318087,-391.986608169791,-397.791850091223,-292.770536217962,-382.170693250605
-296.374525426145,-339.579060771957,-289.657250714072,-332.44369474929,-368.259702782225,-282.517042013406,-324.266999172975,-365.670790623568,-313.002349580439,-360.557140443548,-399.866629137255,-296.173489719959,-346.698437213331,-379.040525594822,-328.351451795112,-374.260861625981,-335.002618605404,-398.357363178317,-442.989859853363,-389.145537315523,-483.049630000575,-403.608983575832,-448.93663724855,-582.944087537808,-423.118075838033,-713.702884488197,-237.65696133981,-285.140161376686,-368.502759237067,-398.787922401043,-347.615730704415,-732.627249682166,-1713.26821475274,245.891865518185,269.25869978751,-1266.49721023765,-1216.54557848771,-1835.08409663303,295.048578404306,-755.970407253875,-1930.30649641001,-1108.94352263407,-1966.05450928587,-1023.19562483478,-428.696957313062,-415.87830935255,-364.49036746376,-375.984779647761,-399.918867746202,-381.962817561851,-382.913586396462,-395.255184717216,-309.731198148926,-357.876499883087,-388.125386175599,-351.197909468009,-315.940491492047,-330.49506087784,-252.89647436385,-291.670176589279,-308.532675812216,-299.628165884803,-263.137772678976,-300.335031654982
-157.498296535985,-161.067562672494,-171.211846299341,-178.538965671932,-176.136441796817,-179.09373549103,-186.21517907895,-190.331680349198,-198.421079901963,-205.438968913392,-206.905202920733,-209.983053614614,-218.287485249307,-216.398347643279,-274.95471976114,-270.098174224187,-324.96626182511,-310.942995922229,-292.948196782439,-347.046588020369,-351.161171707648,-435.940175826247,-351.899893414982,-377.729783557095,-220.653456835821,-488.983881011855,-513.959004368484,-82.1739413779865,-176.606111237931,-558.704429246174,-398.015272325242,-760.072736914438,-1572.44267738097,-27.7584640432628,23.0407573552586,-1382.39608976703,-921.088911995246,-1109.62643640322,93.1957587887183,-1001.76305692553,-1616.63677580466,-705.491679804202,-1708.50223549326,-192.468365454659,-105.813565500051,-249.262401736378,-99.4812266563982,-197.140201020793,-162.808234815527,-114.877152759243,-237.482550174557,-153.0796603655,-188.180917963381,-197.540202642231,-175.076844297892,-99.6954810118649,-172.326984774683,-107.166987208967,-134.805031676925,-131.92720229537,-105.156560190757,-62.8697470780838,-123.37651766294,-90.6984657434511
48.548566765655,85.4278282838493,26.4286848267183,47.8219880871568,83.1063876296049,9.5745271494675,42.9561828502589,60.3019997295712,2.09902758801028,35.5337240234128,69.1729858964822,-29.832760500819,2.00731111602513,43.0956932408428,-111.627240707567,-47.1579347216535,-198.403034991907,-104.174302400288,-18.3846067824158,-185.142402714076,-80.4258175775119,-343.929191154654,-138.002981342155,-16.4955807734086,-76.9815382873357,-46.420292104387,-703.087027041603,9.08631222157759,77.059746950609,-692.18729056058,-412.710154962594,-628.779239838448,-1038.15430222221,-351.423649199658,-292.316797972387,-1282.47933053974,-574.000338674431,-121.043423124595,-66.8155418709063,-1066.23176313437,-1102.56313652303,-93.349249499729,-1244.50392766434,472.832741457417,329.50640119259,-53.89182739803,193.478023231133,17.8485081696242,108.932720118684,190.530259802233,-46.2897568901803,128.977624857688,-9.30760941129735,13.1311485976992,79.9319376144163,189.680626385079,23.7353541810034,158.566548405136,45.0302866763355,84.5048420852224,143.038770726368,222.3331288266,73.682250025858,172.585965445054
259.279425682963,322.929262109288,235.220085886972,280.81200291052,341.516297529817,216.335282618801,284.031394049824,317.312505035318,219.592285213505,285.567731523139,348.856010230888,177.741313895225,243.203403714408,321.324248745476,99.296586040209,215.684511105153,-13.7693952135029,150.722403854509,292.522895220403,35.8795831080341,245.51050112722,-178.28186979755,144.069457953844,381.853065118467,114.40606985425,464.118399277728,-816.527518515637,175.981526466487,320.32332636196,-419.96969307418,-393.971525526044,-300.013368507206,-192.86556871038,-687.145342980734,-455.303203282514,-991.643304677112,-108.890958270511,931.444641197832,-92.8211073608492,-858.30125217504,-459.673537629079,645.777202031934,-592.703495078374,957.069696369681,786.680950133191,100.453044415108,430.836785255298,196.910744777879,328.511512802241,438.802558549778,129.628580123254,359.63302226158,158.330005257259,204.061660832686,296.19781070735,421.907543582267,206.343913038999,377.512082074071,225.106699406818,287.178393122157,362.635930426534,459.201374503418,257.636950958726,407.544234360773
409.314671927164,479.556873699576,383.751005411254,446.868038246426,519.59046650173,367.970067061172,446.212051544625,501.858590127162,384.964350142547,463.99862621072,541.617222994242,339.82949132566,426.867278503892,522.466094835425,277.214290727464,415.037043182854,158.557044070126,353.661880824088,521.523347502111,215.123022776031,490.192391224055,-36.9719547523507,370.43226880134,634.307515795072,282.863306688769,787.791328185511,-810.458850469267,342.759500803396,358.802982243025,143.504990609164,-392.38610654381,10.9617318594819,561.465372887312,-778.984333531996,-514.600744484723,-605.335194400943,312.803111772024,1673.83232512485,-33.6463470250435,-446.598429738496,126.712881547678,1090.52055492225,26.2342363257079,1193.40306352709,1062.74609552258,169.20271220963,549.756372923954,285.997535416934,439.245632350937,559.425335789965,231.26751487647,475.895552886876,257.4360931673,314.532791406334,414.676687958859,539.875420516024,320.216307404499,489.562179541874,347.29856492977,415.282965953577,498.695901886601,583.745516134439,380.040830560066,551.203263122265
473.409219668745,540.23073442276,449.824171189217,519.900070200799,588.964482761053,439.213637487988,501.8227042393,583.857755634182,468.562263728464,546.01552653352,617.478528330341,424.026857759739,515.484488247136,609.437935464691,373.463788294623,506.302422998709,260.372548995146,448.503508899131,617.132550140103,291.117926801645,587.400057531139,-3.29553448487497,461.993574266105,672.910434148106,273.599639599963,808.204854446981,-591.171887717873,247.988746669307,136.922653964053,453.93306848316,-434.631202955027,148.409274726419,931.745235667947,-452.616660664169,-626.026470263263,-200.814136236288,417.46140141382,1962.06887173259,-70.7192958953555,-7.3037239352208,449.831351173935,1021.33735563737,437.534038320285,1040.15562338038,1125.47953841242,169.154514851295,548.250179716499,293.411044336148,446.598129074678,557.266279894557,252.507610137547,484.718998284527,288.618057957153,341.599762050277,435.558781617704,552.773808130593,359.428835785278,501.660719946787,397.610029093138,460.663068653123,541.00413395276,598.331818181003,436.326298829595,592.668674578685
485.600205719246,553.983653456998,467.630200487966,536.9519823949,600.739311073854,459.711751765458,501.680479650082,602.242791910451,488.183566133205,570.41062142116,630.163025459411,446.748220488189,535.893282350667,625.495762667252,396.973260774582,525.643705845552,280.994271998689,466.218935212922,629.997396510707,298.209592606309,592.516745356701,-25.7243571912164,474.709071133424,620.590531514708,145.333595882076,644.381527377296,-268.398721251431,5.71926707133358,26.5689656162804,297.676513680373,-291.851369184089,303.441215898324,991.757247965549,-14.9059175629762,-662.084015117327,352.485079686698,281.35398860571,1875.16805742853,-297.298694017677,401.482841452491,665.505944853977,699.779685784217,783.418343206294,711.602597423767,1092.67670047737,179.745522895339,523.463778593929,298.883797097599,436.623062150724,531.311696521558,262.332995872011,474.717887226821,305.004179744968,349.055116396252,432.413850108406,538.039004223314,373.531616583384,491.755864017583,415.278524100592,473.936151132102,543.688773739882,580.073381009106,456.592633432484,591.563207786701
496.365123237796,577.254135549846,480.693870814622,550.385092467435,619.299734986545,469.028022767732,510.285742406404,615.196711890208,487.940640635444,585.787246451793,646.976122227031,441.257588229739,540.299614743839,635.522052159434,390.279346453354,530.930951075974,265.573533782193,477.402240455504,640.917425800948,311.438026485313,602.320561522193,20.1315315510109,520.088720449936,642.212072610354,103.709667426758,561.231689402157,-134.128178084402,75.0683250126652,440.544021039819,5.14028498040289,355.332188279072,721.845932066893,1010.13076947476,100.333692467068,-350.350078261356,1277.95488268916,309.30271493715,1538.73383037392,-637.470340666771,930.858020399383,1193.93131962387,533.15178677818,1320.79896503089,555.465059132113,1098.31965979058,259.394045725507,580.8752378663,370.189434122212,492.6032506636,576.162943564547,322.16709896401,524.923111716131,350.14356155542,397.765975981514,476.453043746604,571.975530973921,413.415669581374,531.910959749606,446.073545409514,504.592965679232,574.736068560015,609.847250738511,476.310341743693,620.076817847503
546.693538463804,645.73829723638,526.514402468894,604.132410913889,682.570590233451,505.529008137431,566.265525325158,671.953604882887,524.586902540592,635.169563991088,709.881475028759,457.617974804116,578.947847847248,692.397855228604,411.189654126794,575.601115134565,285.668003939732,543.931157137891,712.323739989495,389.488513795948,692.429124724044,191.068792399286,657.772328466189,812.496814259188,262.144668516505,780.667398995134,-277.599811737464,595.715662184317,1291.31143205676,-22.5589827870102,1427.89533070204,1338.14746575542,1185.80453799155,-128.029772075264,399.368732621784,2360.60592872819,728.077465235299,1205.26396619326,-920.94833714083,1627.8106451861,2048.28360499974,685.9765734025,2032.57404545517,569.529097185003,1184.39279039402,400.095346889112,725.685478637847,508.921320224239,619.481122096872,697.466596449402,437.423249920117,639.207099563027,439.785402940155,502.828346386064,584.788472545268,676.352308530759,503.755678361268,638.406926928791,518.026427593872,578.077994495779,664.940360445352,711.246465701363,532.937376733641,708.043931190758
680.677256270172,795.663526131996,650.520488059907,744.562673770718,831.18788197107,618.757797277491,704.946486087776,821.29758541954,656.391260505475,775.057235117301,862.764624744857,568.528663748526,710.226034527688,850.009890045332,533.22645441864,729.582354064257,408.851615677391,727.405255868356,911.144278396367,591.33722090089,931.490391003519,489.181775092558,924.369987834354,1159.56110727769,646.089896066031,1324.61459720794,-372.845130087035,1241.84924641112,2154.0925543169,375.974054800847,2434.41517252525,1911.25981727892,1603.57504672878,-396.123121856112,1476.60448752263,2978.77941326308,1360.47300313193,1322.78130666489,-868.484605018868,2257.8620910523,2708.23125525476,1117.00276537479,2669.82305402073,713.383511185842,1325.28597276541,602.998447339406,911.21613158216,708.132435174847,798.332080893169,868.721720006089,617.950242591214,807.21691941953,598.623824219731,673.562320462581,762.370127986437,850.497152969318,665.371051784728,813.113586002088,658.192356362647,726.383902467112,828.890916270298,884.393544632082,670.251377711166,868.211509634642
885.386064450685,1015.97207268318,845.716768540347,961.368181137653,1057.16881551219,803.498454765989,920.503465958513,1049.71181217259,872.347705817686,1002.8988240009,1099.43230492571,778.463492836634,936.723412742838,1101.67175463349,771.879167602276,1001.57019921936,641.703042218945,1026.34001370343,1236.66419612218,926.110915155036,1313.7661067453,898.448083135273,1331.415476125,1647.33760493651,1240.78409240133,2021.54901491187,43.992191961725,1756.16157176803,2721.80047892508,1140.19657342134,2957.43075888467,2295.52734465194,2218.05778052125,-351.433033514015,2584.30546260954,2914.30753240653,1833.91808159325,2129.00239405507,-255.86489060773,2655.40442284495,2785.35913886297,1746.16713807974,3056.65517017489,1134.93171011558,1602.16965304907,877.327540431504,1110.39951684505,956.559319409899,1015.92821479961,1073.25323442956,862.72504291676,1020.53977226112,823.249977186745,901.277084728825,992.805862367814,1073.3425167284,883.704072565771,1040.49700841877,856.009148692775,941.699220756429,1049.37468002873,1108.19680153912,877.082166173801,1083.95594586552
1047.66840063517,1191.71350781775,1008.79903344225,1139.69152914083,1237.46811488401,959.264719708725,1109.99716173426,1232.42229765471,1058.15236441603,1195.30292477654,1297.21175207422,974.069729310799,1145.88142888176,1318.72908833229,1021.18963699792,1261.48724306715,897.897035333616,1312.95261698722,1534.31001809205,1277.37871138882,1674.92383622065,1335.1440623328,1759.79241394067,2077.19756501033,1892.99559557661,2607.19299139459,1040.11186162569,2150.33706015093,2888.90305509664,2035.46155444175,2955.95184714641,2421.94734693291,2758.97677211092,167.785288057828,3241.35659574465,2572.89017715634,1912.80328050411,3156.45988578082,715.115500665872,2890.75555679994,2400.27422087079,2375.16894642243,3126.01887609542,1632.0184843223,2046.3192057861,1114.48702222974,1261.23696488779,1151.75357030096,1190.85645986772,1234.55486884226,1066.65536844482,1193.28441069134,1013.47823712671,1087.57253187993,1177.04903966212,1255.91473227395,1061.72280161039,1234.13849001858,1019.1680066206,1117.67526579732,1226.89635338735,1294.02225548733,1047.75861198513,1259.24963999644
1059.13863487265,1192.79818413017,1032.89257747868,1154.08837350566,1233.79609007533,988.611500758905,1144.92032236327,1235.01401959029,1096.84866200229,1216.2500494796,1308.26359396515,1037.05912593762,1200.31869626076,1344.88345458066,1138.56602921727,1345.50687207252,1054.18943078199,1427.19589713865,1609.02486156735,1463.98927347527,1806.05565796147,1606.20242226706,1992.87605952207,2208.7654890316,2275.10252413829,2867.51310550155,2040.40762403895,2426.74080583512,2694.11255309566,2703.59533353195,2727.00332004929,2240.96358013926,2887.51919280341,842.658854033818,3190.84470682483,2313.75593538298,1731.73984030915,3565.5301036757,1542.656328566,2987.0556436679,1928.19675726791,2653.06533738245,2862.73412903421,1678.05871377226,2326.10336134269,1133.76479334615,1249.13917980053,1152.8311753092,1192.35528804102,1224.84398836894,1085.94518601482,1195.94481055324,1041.37520479535,1100.9235129385,1189.77779434116,1285.68729735041,1084.39178367175,1283.3559793633,1041.58848938302,1133.65504159022,1240.67483500413,1336.5095316313,1071.08553918106,1276.71614829812
909.182725392718,1000.7892185379,898.628886592368,981.715458385077,1030.38087492089,876.948992669748,989.331334027063,1037.86373689587,962.727848458188,1043.7999543796,1101.27634763725,937.024345033231,1056.76183341881,1143.91332495939,1062.21339134339,1204.32498897471,1025.32199278959,1310.05556268335,1414.43415431567,1377.22141846277,1652.33119181208,1504.4096294179,1929.40291453895,2014.98785694875,2112.59919454737,2828.28436111806,2312.38226722065,2545.05554177148,2345.00945915045,2893.52616983142,2654.66645964859,1865.2208274321,2587.09867948631,1149.98037651525,2838.98884850788,2146.79986873148,1654.70922491867,3130.8069851408,2016.2349097682,2903.49348523,1659.69715512042,2452.88728323439,2402.56479624779,1254.99155340631,2093.74876670467,905.41923372322,1035.67219271434,954.977844100105,984.594694709021,1011.50498778398,905.861767610227,999.813545196264,881.500483627496,925.136808264978,1005.63630709644,1132.22717979058,924.344438764428,1156.00987508759,899.368197302383,969.393874961535,1065.13162980668,1209.3611831467,926.926977810353,1103.39537141192
670.370992754728,719.916967671377,672.418239824062,713.619288535752,738.201427514593,678.709660659107,730.700444802832,745.347976033771,724.956581798595,769.113735039861,788.635235906525,727.478926167462,791.797827836715,834.035875782096,842.790869240623,928.82516419506,827.931961563109,1044.66473727982,1087.80906320919,1078.87312678726,1344.81221842799,1062.37802915221,1680.42085743179,1691.64263555754,1570.92295700689,2690.28343573444,1792.38451866716,2586.37533422394,2113.84278458478,2743.26414726984,2828.0194775745,1612.79067493394,2258.74226368996,1042.36401300124,2813.22495563591,2042.3980220887,1904.42051591895,2513.41503095231,2333.99310519071,2723.21079989303,1632.17046965819,2181.02071759579,1961.05778334926,911.585506717098,1595.52851253751,599.001303934926,742.398700034959,702.421076535687,688.196091677417,723.584297264004,652.630643982591,719.790503453209,629.764356298048,679.307341758529,726.418265278567,875.920715847236,666.322267898136,918.312087313939,665.874193832976,710.721525707743,793.063702822623,977.508705663512,690.795993509311,820.833836482708
454.828098574837,493.548497262238,465.704524255182,485.708548844652,504.457349852044,488.426618783726,509.013063987053,505.950749718316,505.309330182597,527.503012983826,536.147358735244,516.872552431761,546.926379234013,584.023314227772,601.549394326842,668.337009988546,585.682462229943,783.298601975229,810.225010057824,759.574004414771,1052.31449254302,602.970712339421,1412.01118292232,1414.41200750659,1182.0446557577,2490.77314374831,1146.8735383313,2593.78358638575,2059.11704671509,2555.91764579518,2919.73128056817,1651.88801169727,2289.12706470485,886.036186144535,3093.06494492557,1993.04318845282,2413.10106774641,2370.85308719341,2605.62285430434,2470.21481139445,1688.4988441965,2292.05517048512,1603.30373197807,960.335565734897,1416.1512158969,394.199632817336,538.640342854749,523.684479026119,469.236725724252,526.859961501432,454.372967749224,505.810962290338,418.059421803069,490.862914132825,494.309160704993,642.439878170666,443.04669414964,676.820012161751,459.11465543176,484.804025832336,560.435664037416,743.850082484111,482.498794755632,573.337363416329
371.151462012063,424.837138012064,383.482504886208,405.728994232641,436.682169425797,404.551711141123,427.883902685438,432.825477127082,418.199085192389,439.420787372979,464.671205283039,418.634842193695,447.359106004824,503.971851132073,467.917472216167,546.353870054511,442.700800422656,645.178729024756,689.702623254349,593.900376906678,880.946117109103,436.142316077168,1225.11729094385,1231.88149958668,1222.86009874954,2141.57929291909,971.364364503153,2473.09910783264,1966.68597128412,2374.03378140529,2615.43516547506,1717.44959988948,2594.27344804591,882.466661830733,3088.55358765025,1869.33262225044,2868.3519912368,2619.29042492455,2641.9509749413,1999.16902145524,1696.38447529509,2555.38314630252,1308.25994370276,1185.50000458149,1698.71240112252,346.044636038069,502.891642458802,453.345528745073,413.037408618358,500.189854463424,367.365220920419,440.786777687053,333.601676150859,416.677363047336,407.275854708183,533.758332638293,352.576752159836,536.484842260694,372.147892499369,394.135804383327,470.228758542855,610.095407789262,400.406573201437,481.020954526148
469.245379769985,541.482845006269,471.509034195359,515.796440318682,568.542931593836,475.608232823615,520.786098936775,562.759063186028,514.539133729166,558.14740574995,608.569548626418,491.872557469133,546.465023319592,625.921704585394,524.581020763943,624.767015548883,479.865939218147,687.98333138637,766.689944771796,657.033441169742,890.795290781645,626.069399559798,1190.41197639948,1165.6799638633,1507.07838163806,1743.95806737282,1277.39923115356,2257.12386464023,1675.82874242025,2141.35410590928,1990.53787991853,1493.047475541,2756.84828265266,1005.69197165306,2442.31335592064,1537.50937650236,2859.98995796803,2836.04075024536,2325.89702263154,1296.55981826545,1574.73553710247,2354.26402856058,1116.52597118001,1249.31133747535,2102.41913965711,421.339300736788,619.927879545476,489.911473980982,511.973389325266,637.140348581245,406.445616979233,534.700873195009,391.249800356753,469.529717541188,490.744202641564,595.625030281002,418.017133212629,570.124288965466,430.760945380348,468.888980770017,554.761883400935,645.381345179924,471.414670063384,576.076117270206
658.670281808343,743.255245152561,648.833315122438,724.520330233398,792.860085062039,631.199387770792,705.747570864521,788.766305021358,707.762062997305,781.57385169316,851.418469829297,667.984891124334,754.208563324901,852.315943037704,711.339380769965,824.63968651182,643.542346701053,845.101301922935,955.408925011383,859.760528961545,1014.3365113243,988.537701532545,1248.57086082446,1161.70083440136,1746.91329759935,1383.14350028353,1702.54064269192,2017.02475927365,1236.02241907731,1921.74710625982,1199.05993807479,1069.25430532639,2497.0236790398,1212.1498438601,1281.97853049467,953.606112040764,2174.89235651673,2833.40449680636,1809.6376493177,559.777138604823,1174.60306255115,1641.49634543724,952.596888610022,1049.54879071808,2298.29006202345,529.345280306269,785.537870951629,586.028199042922,667.211749327291,825.247141340864,517.10588057908,696.99437041572,510.376764576255,591.632402288045,652.774196446888,749.445979524007,557.041963414152,717.810228372985,560.573742513291,620.762744624105,721.092578970989,789.953298765005,613.499360854716,755.113682262378
728.499452767633,813.474389492875,721.554320153166,806.613375769672,867.655916235744,695.38894747127,781.828021452077,869.222168065635,787.772197579621,867.585514854327,935.464863971713,755.60328841962,844.244334339735,939.341195972373,815.635158477538,912.504578131954,749.884449531205,902.430977678269,1007.50783025934,960.876554826336,1014.26649967583,1225.47468455587,1160.56630116491,1022.52710730361,1753.16203810827,894.428016175418,1909.82148394696,1589.25774293936,732.130637590236,1687.91738275953,225.674289653801,691.719537437445,1808.57705312319,1417.69585883432,18.0194738520955,152.371510992788,998.785468582927,2432.26701343696,1273.29140452085,-61.3036354336449,469.71623776606,921.877347149925,594.79995956479,719.071968875223,2074.28128626556,531.169098469054,810.478805614984,605.599151354551,699.031007035197,847.599115034012,547.990781529863,726.827385942126,539.53705966981,623.971391184461,691.807477497012,781.722807897213,603.874130057581,761.918541629595,607.065915491465,670.287292878693,765.157561283988,829.848980312352,662.449497051619,806.354376830471
565.784158953654,628.273230174298,577.491931989001,628.023528086035,656.169754598116,566.319534629246,620.596462260239,667.696823976656,638.464429995015,683.760814737057,717.234879943583,635.080723467883,683.68731328305,737.54221221461,702.064600124243,745.408255177893,680.230973389145,732.960888226169,773.461545485683,825.674929117934,764.210554188905,1192.26182039175,838.673590044177,671.795013499534,1478.30504642543,301.65608950151,1823.84400297943,949.655280297996,253.452556155266,1343.31317012376,-700.3378949285,364.471077229409,848.56125335342,1520.5612042544,-792.039846164124,-619.651050532015,-162.523471194136,1362.38014456483,784.637129701942,-541.219981902146,-203.69705029218,404.585452607201,34.741273606137,447.400397419504,1351.70223425205,366.741620116977,590.269607664202,447.787195804237,504.46422384586,592.954001249349,401.13833897506,506.841665604812,402.320797903461,458.426298159479,493.247087970826,556.593934386658,465.694141177121,556.930459690702,479.923681616247,515.642983241687,570.749534015967,616.695773521202,522.492232117105,608.406053161437
286.261251225514,306.187153785124,317.127106808008,313.999668599227,301.790140913505,332.6486550706,327.526782893294,324.623695591554,373.123848098401,367.369656841707,352.749711390513,397.819754989746,393.718995704854,393.269029362363,473.933848098704,453.233779997592,514.158281281683,466.932176590119,414.91480329437,586.267471520524,436.520394239914,1007.0885719193,501.103836218784,312.055881363218,1057.19824884305,-37.7008884815542,1582.20166042004,434.017817747811,-55.7259386870016,953.025073770856,-1073.35765747657,7.35690235490744,-95.6395223697361,1508.80611792708,-870.449856260693,-981.260754248631,-795.982901228919,-152.240671721454,377.271901012531,-861.33908627941,-480.395785111649,-90.2252178908991,-480.09707255364,356.589175608599,409.839697790433,139.752443507559,240.249077981628,185.560774348889,187.888469114054,207.774051333553,162.22096627902,162.536882663949,182.092685072599,182.192169672051,175.158517010878,190.773920748875,224.856190521868,212.51137206381,248.705242584524,242.540537445184,247.098402554532,252.475401909527,269.988279165133,271.070435624266
43.5616310546128,17.7373620278601,85.0603966000959,46.4164641059334,6.27950632224048,119.492885145863,71.7523946977289,38.195319613023,140.036685470741,100.205226325666,57.2407333102014,180.687801873499,144.605311042056,113.465570238542,276.21010496057,210.429489223151,360.04352548289,255.813317097362,141.284984876257,388.288864723245,200.718911537396,803.202288777114,279.897984823413,87.8280356644023,628.597441443023,-67.8872355563064,1285.71964873554,154.620453687715,-181.383981337881,603.846276533422,-841.468509466828,-304.673015098902,-744.360316499135,1386.79661821607,-607.87406194827,-864.621175623548,-814.932813454034,-1314.23469859188,49.6239395597641,-991.45196702571,-449.794791695261,-541.376282759418,-836.321076328423,376.869357231881,-291.214824769969,-40.0798129656789,-85.7908491717519,-51.8308256442413,-96.8450975484643,-122.367471935568,-42.666867697248,-135.358052650156,-18.0007273424814,-61.9337465017787,-99.3460033134667,-133.939964263978,-3.32134191736872,-98.4586592996742,18.4885699928612,-19.573959505238,-51.3826874492562,-87.1390820262786,25.6588675068773,-43.6976889302282
-170.344989018389,-236.791006951641,-123.462421342271,-182.797330353015,-238.086303184123,-79.4033096885241,-145.484483629074,-198.379051211423,-72.6260008793897,-132.749869221875,-183.377024125286,-22.0882982056703,-74.5616084149995,-125.607506871919,85.787303991669,-13.1930614588096,194.643040787536,46.9046304580583,-87.4348612678894,176.996795752426,-33.6712481753007,552.354709291847,22.1880342471963,-148.359132622671,203.516560933637,-196.641132585843,937.96867467236,-157.762052822512,-356.711859662195,229.872571601419,-583.776761695749,-510.6341650547,-1056.36142155208,1109.30565130192,-596.419037724563,-639.924708644798,-661.288417928859,-1594.61113122304,-259.038443178473,-976.037193419731,-496.549593901672,-749.330354646399,-1145.78791736485,186.02676425014,-615.658428698223,-215.126281107346,-399.730717101333,-268.825465773728,-354.43862832798,-415.117114365136,-230.242199223834,-402.039601889777,-214.43383220452,-276.346405944156,-346.736425663744,-418.022405114004,-225.919648161077,-375.573221852783,-205.64229017584,-266.424241250282,-329.045281286772,-392.385112103409,-203.979755030887,-333.099732650863
-417.76220985688,-519.31730652289,-365.772133969719,-456.195140794362,-526.926358442971,-309.534287150343,-397.917793735172,-477.329848079157,-321.627301361722,-410.615594117072,-478.262621135898,-255.053392601834,-335.712328335397,-426.725599699384,-156.44287610005,-298.243354735062,-14.5233387721199,-236.943939497145,-385.946720115813,-105.369481950313,-371.180788982946,247.752285850862,-352.451015935723,-530.945353534294,-164.122216127694,-619.358226703627,618.476279086852,-542.638180767423,-751.329456966382,-210.599860813728,-721.351252031086,-740.46072278744,-1207.35292309262,725.6239739049,-916.880709901444,-644.132659389124,-771.994923952046,-1310.37818234138,-541.217120543522,-934.202791418831,-784.647649978252,-790.822139273716,-1432.27843267206,-422.199500199191,-792.291209537773,-462.371381740917,-752.101258480075,-533.972354050854,-656.597718626299,-752.754779717975,-471.483658514456,-711.209615308779,-451.068958022675,-530.013547609273,-643.205406023823,-737.608616815091,-480.938164832173,-681.820803890158,-442.357375892851,-534.951112759667,-634.078175460964,-719.491114318311,-451.434216095684,-644.974771397526
-657.578058392073,-779.662426160239,-596.926301299767,-726.579931974292,-819.72416531198,-523.24784671563,-645.896049957296,-758.987565773744,-557.294322546058,-681.823122257126,-786.366101752025,-466.790440260394,-589.820689181607,-728.093100995369,-387.197463246826,-575.601401874232,-204.330320312168,-511.770720184112,-696.399050679133,-358.303502037697,-701.835038224441,7.98384508629095,-668.35976592373,-924.333093195942,-351.847198471338,-1043.99881939771,443.677630673846,-722.985433639155,-1175.90728574455,-618.019147775407,-1033.53380605112,-1114.77316760823,-1366.67094012787,417.596628069077,-1234.93458158772,-824.038227699597,-1090.44512827564,-1147.76995854201,-672.50745493388,-939.288352573726,-1107.86056027097,-877.417649870316,-1538.49044514424,-1101.11542049694,-997.663185399741,-726.198425196638,-1055.71910169191,-806.360385345456,-951.986912177774,-1065.18207371277,-724.789754814853,-1001.22577246434,-675.917993330892,-783.871078832964,-925.840814644114,-1035.46810469081,-710.866320159644,-961.283347134027,-639.638819519167,-768.806171988334,-895.313704367199,-1002.39277117311,-666.15988316319,-912.965814274124
-822.908745616544,-942.41174574941,-749.870071942988,-902.168723613345,-1017.10788858269,-660.935973663559,-809.411215398444,-950.750904525026,-713.116648233899,-861.47206719309,-998.422984182733,-609.864256626823,-760.829340341169,-921.630946348176,-541.579761152706,-756.076594970188,-340.135057295966,-689.099065921875,-912.709103405197,-511.199142262586,-904.330340636366,-134.276623007569,-805.19178912769,-1156.6989956779,-418.868172337577,-1201.54128367455,318.734366379212,-675.084637095882,-1343.52123400945,-929.264848160831,-1122.25640482941,-1513.68979343912,-1565.27744893461,248.083843151278,-1359.59364437132,-948.135137031407,-1288.73290650073,-1325.59473478769,-626.694652615052,-973.738233483157,-1193.367822304,-949.551393149598,-1407.74638640208,-1326.96630165008,-1166.19459857897,-897.631466941059,-1201.77443702975,-983.919899850441,-1127.96635118897,-1231.33629889238,-895.325783460776,-1165.98531638449,-818.831684449818,-946.550322327278,-1087.19898095828,-1200.19562548207,-849.719769024427,-1122.30264056949,-756.272764191157,-900.016264348311,-1030.39942022153,-1147.95429235533,-793.855496004201,-1056.79997225921
-920.006492471172,-1027.5339572379,-841.85236154375,-993.338584852923,-1115.53178987538,-747.016443336315,-902.029720039899,-1054.92747323216,-810.169810284829,-964.365396744269,-1108.35570539872,-719.374639842562,-869.802409934651,-1026.21435150215,-656.015349612601,-871.294222484625,-472.068586678752,-810.867792248539,-1047.02895847717,-635.723966359473,-1023.55661176028,-302.359893883996,-877.983026922034,-1259.85021975171,-583.184643782264,-1189.78890827265,7.13585091001312,-711.557454800651,-1276.18035508215,-1206.65587374198,-960.764947855745,-1715.33233315859,-1724.99487782176,49.8936547298998,-1372.39615057133,-951.987499040547,-1232.49252660808,-1535.42210879651,-589.203523050384,-1019.83923351209,-1042.20007286383,-852.338374591847,-1202.71048825883,-1131.74763053747,-1193.68699023645,-959.086312286003,-1217.74126921789,-1044.41488966962,-1170.47103352382,-1258.41303972608,-965.736349985473,-1205.83250064168,-887.102815700932,-1008.65876367242,-1134.29444558422,-1235.2193937125,-917.397724195707,-1173.92082631912,-823.685316620985,-954.312149300518,-1073.0982987848,-1184.11991553866,-862.372940191028,-1106.35439189464
-963.290570348903,-1065.84741360574,-897.669117015416,-1039.17372974102,-1150.27705611054,-811.525437943141,-958.051802611748,-1104.39628066139,-879.335023542501,-1025.40250024847,-1159.21930818644,-810.892613620249,-950.532533992302,-1091.74533764901,-761.209707794389,-964.753577413981,-611.603205376876,-922.69439444428,-1139.18506151956,-782.363232541064,-1129.02556821893,-553.828647483042,-1009.69778155955,-1332.22005738597,-894.531757389026,-1227.21959604893,-526.731531654152,-978.607817857679,-1222.98443063105,-1478.11815853683,-813.453798730476,-1651.74898345894,-1759.62464663877,-307.890023822915,-1367.79180998521,-930.762872097028,-1030.73952529118,-1512.76242559706,-714.228034621434,-1078.9638898338,-876.705063600085,-667.100234989167,-1061.8389909674,-922.983341576539,-1100.20006197953,-939.943116706548,-1170.19319320868,-1019.10518671619,-1126.89331167589,-1209.29295158701,-959.570348571497,-1169.52301068677,-896.747818768367,-1000.13683312349,-1115.9093903591,-1199.86367868977,-935.567758517686,-1157.32210701805,-856.44697934304,-968.924829993467,-1071.83171256812,-1166.9383976212,-893.156654169012,-1105.75518412295
-925.196823557706,-1018.65471051982,-880.155117622843,-1009.65037123917,-1105.29674290663,-816.595723099595,-944.058591148205,-1074.88115196499,-887.31233729336,-1013.77981649304,-1137.90990038293,-832.837724875113,-964.558792320131,-1087.75384989272,-816.734705861689,-998.817868013521,-695.408238182943,-985.139991938523,-1161.50399724034,-897.312730126376,-1194.29961580486,-789.485019602192,-1164.07278677239,-1364.42282193682,-1184.88080609794,-1355.76605642614,-1072.67569675112,-1292.21468240537,-1293.98027145315,-1673.99133182177,-856.097442921659,-1427.92894898729,-1664.87343947391,-722.809442898246,-1340.37494349181,-939.761147012792,-821.800707557249,-1283.78380600614,-922.918825328326,-1101.9771225727,-807.118342139555,-562.160061606839,-941.745962974641,-789.33415053782,-968.39532857059,-825.103176590891,-1034.74043449345,-905.538870556106,-995.466680785328,-1072.58826590776,-864.627228193194,-1047.25717832338,-815.397981270944,-905.218173434656,-1012.22403982834,-1082.9032584961,-865.45966791396,-1049.86760599516,-807.451969783209,-907.227330595635,-991.266861018304,-1067.695881398,-841.56787392967,-1020.2336891928
-789.760691015779,-856.408291568361,-755.867902935215,-869.059404385522,-955.699996405935,-718.918673062135,-825.478073578435,-939.15921070228,-792.591574280543,-892.502871810134,-1010.38591492449,-749.258361002056,-866.304815720882,-974.222312364483,-777.894949029316,-929.779162794822,-679.318532350637,-953.980094365253,-1081.99307256175,-924.093771039238,-1168.53312076054,-907.687490694875,-1261.88619579467,-1302.29192175807,-1354.29720017882,-1469.23272054211,-1444.47182172112,-1500.14950835453,-1371.69127622396,-1787.39859057815,-1038.2164610542,-1209.96949746244,-1515.703113043,-1017.87435979995,-1302.75686275458,-977.061067449584,-694.506543273481,-990.081457496254,-1064.86427502863,-1053.69135854785,-748.486864870448,-569.882446439872,-766.105099744685,-569.466680244295,-866.193085857224,-605.911199048267,-780.636906057654,-696.544549125439,-761.403944026213,-824.032229150582,-671.533423681109,-815.686119082411,-634.540368174309,-711.833147062,-796.092007539877,-852.682857084846,-688.5586250174,-829.877766367638,-652.304351983342,-731.860595572514,-797.258129932867,-852.489791951904,-683.75837162949,-819.929968171981
-587.488710161539,-622.164144885296,-554.387873424382,-651.431883332551,-726.3299565696,-538.020633266774,-628.779987587326,-725.536416952854,-610.241690026176,-687.375406765127,-793.789969504693,-582.895465404976,-676.259241939085,-776.703690038499,-645.989970137744,-774.931481506733,-577.010814410019,-836.551795906918,-922.471650115781,-864.347260477117,-1054.30435934411,-913.376457360603,-1291.5870119952,-1155.24009036616,-1490.35030597382,-1489.76889517611,-1620.53454089868,-1684.93853330367,-1350.03898060113,-1916.63722651221,-1246.4237050437,-1126.1250566859,-1340.80969201617,-1145.59011757668,-1334.97674889767,-1078.48639329235,-685.011568520126,-728.417966222564,-1122.71488947552,-1010.27598261166,-638.696742268234,-633.758699860856,-561.814662332629,-332.12997773333,-820.855662495605,-353.236538787246,-481.078668395065,-444.038380872955,-479.058396778377,-523.468218503467,-429.590325323707,-525.276859263761,-413.334661281011,-474.371336031,-518.136954193464,-556.484457749215,-460.35815086414,-552.373154137803,-437.110889489576,-485.735266733267,-539.52882128046,-572.78215415013,-469.379983430057,-556.310292787351
-376.753402519143,-391.718315972421,-345.724789610571,-432.978173063908,-488.050261993219,-339.100255597322,-417.550861780135,-500.651704764141,-406.115701115852,-472.70662085004,-559.872114435414,-388.922261176803,-467.575313935478,-564.114322664873,-470.574328103788,-596.205585395285,-433.046920953491,-680.22780142955,-742.478074689506,-757.946770194291,-908.694390343464,-882.776100642332,-1277.60453153417,-999.008721661555,-1684.58321665082,-1456.06403615446,-1676.97270071469,-1940.65504753228,-1319.3187087947,-2081.18323021329,-1474.13979604744,-1201.40632503781,-1088.97813168412,-1185.9632238283,-1464.12061284116,-1278.16617378927,-743.930535121742,-535.361589275359,-1151.30917965269,-1044.0320210406,-550.083913154437,-687.594786187398,-393.925792118098,-287.902337356989,-808.657454498271,-167.817651490957,-246.672454146222,-235.491001063336,-242.961467319497,-269.831197002784,-221.214436599647,-273.812663455941,-223.786629478376,-268.096116018945,-270.944168674708,-290.97011248544,-257.13426046412,-304.991119020783,-233.481497643218,-257.363380592503,-304.845805878655,-321.036506112833,-266.48082247467,-314.646514258717
-224.778151040692,-233.190710049058,-201.780083397422,-282.788758185912,-324.343479879023,-193.457872879796,-267.0418891474,-340.538966580509,-259.923327873266,-326.158584113262,-397.230789496768,-240.95966730742,-323.078643873525,-415.836090716935,-337.080844718583,-472.811831217238,-315.001120619772,-565.561358194619,-623.258071319219,-673.017009924435,-818.876902738953,-896.599957823543,-1256.69216852138,-941.286223049781,-1897.50884104697,-1492.94595467557,-1708.18057551527,-2198.53740338529,-1461.42509421739,-2165.67179142313,-1769.37062678027,-1386.07004239178,-808.783638716933,-1229.14618148499,-1613.031370458,-1513.87236041193,-813.539192525885,-470.411890463744,-1155.30322935769,-1094.30227151938,-570.507831774655,-716.589827623459,-289.366054695959,-448.52551445278,-824.132356421883,-88.8435530609327,-115.297649520079,-125.118872832993,-106.233542810053,-113.538147982032,-104.877085301134,-121.000330319322,-108.105507411682,-134.830846999374,-116.213003509659,-121.217959922643,-127.697899058516,-143.257172322819,-99.4737094088525,-113.829634852816,-151.094517113564,-155.526876724432,-125.613365392991,-153.922479157646
-183.211265758985,-188.177746042034,-166.488217940847,-239.824033163622,-281.254599537978,-154.749157721488,-233.999547102027,-298.386497090478,-225.67736994094,-293.696473031673,-359.571347910972,-205.878716372892,-297.594010846335,-387.939997157876,-317.390610946649,-466.399388590892,-291.443098684661,-565.740651039851,-634.290669147805,-677.266537524134,-852.114482649751,-984.996814155379,-1280.78039659728,-1057.81072983553,-2034.29054225461,-1696.08125530651,-1757.62530303379,-2358.46030811621,-1801.06886441254,-2103.45907421018,-2075.34877829227,-1600.1956111825,-703.232665864354,-1265.03161637068,-1710.93796523818,-1658.28955270027,-916.457713709499,-641.254093289858,-1112.17322715188,-1084.30063010993,-678.23322144164,-822.792857365492,-258.616528549645,-676.425751477579,-942.234601394348,-81.8135654174215,-62.2766808150901,-107.192649787032,-61.3205836056505,-48.5293505205842,-85.8123795424032,-62.5908794935014,-80.2988301655799,-90.194095070909,-65.9645364245751,-58.8927419461391,-91.3213629256937,-82.0928423457813,-65.2313314697901,-77.2299875428739,-97.1550924789595,-88.1658635748329,-84.5312293191054,-95.3697367737153
-242.501400151903,-241.163283991026,-224.58988390439,-291.984479751024,-332.881300370986,-223.477879517987,-306.060669462846,-360.659828344037,-293.930627362437,-361.120656492331,-425.744274068644,-281.258057847086,-378.271418056242,-464.008116836134,-405.279857839488,-564.055734883313,-369.373953556645,-669.304215387955,-758.46565681845,-765.992730450215,-987.25154324585,-1098.14953242262,-1360.73682560955,-1296.30340328957,-2042.26724651763,-2011.91108265364,-1760.44108800117,-2407.40941623214,-2128.5328971494,-1980.11231871209,-2234.62810209229,-1722.86166662003,-891.213163450832,-1179.45651779606,-1750.35226828252,-1634.15029053095,-1075.97472256978,-1072.33163993614,-1027.31641874198,-1065.37502578039,-785.691761930896,-1118.078077002,-318.248775547401,-903.655217918838,-1213.36335251,-94.6809968618681,-66.3662007093261,-138.39397974458,-76.7420166339903,-53.436562759942,-121.043074069191,-68.9436350732133,-116.687854931301,-121.935317161486,-93.4748785351297,-80.1504770730136,-128.37241118366,-103.90037080933,-111.883439533683,-122.927450362218,-124.84796155033,-103.567939438955,-135.711462850721,-123.028093883556
-327.514306842229,-322.493545469848,-307.922285840498,-376.316567983414,-411.18256235813,-329.544917945453,-404.955274821613,-451.000486400522,-392.318740274139,-456.578785572248,-521.928535637543,-384.432244689748,-485.765353344176,-564.902945585801,-519.387145403822,-676.577657058205,-477.912777164246,-780.540565310762,-889.247171883309,-852.812440003145,-1119.63001364544,-1147.09710892144,-1433.88630992925,-1494.68638103838,-1923.9960676727,-2268.41599457295,-1619.34421147577,-2352.30967141071,-2195.25242926888,-1917.70634132545,-2151.94430009076,-1648.15005947874,-1249.24801346895,-924.055646207272,-1722.93532164605,-1467.68778960547,-1239.30655135454,-1608.06399529763,-935.985869093922,-1109.54941741408,-853.737190175925,-1518.16310921694,-453.800876500932,-1114.62723367924,-1528.50465754455,-100.362149260467,-111.579576618758,-172.720412790419,-119.451732905187,-105.39839949649,-157.482674114937,-114.517629054668,-159.781791314397,-179.110100056618,-149.515960242603,-142.451465709649,-181.129300798033,-165.529391629395,-177.704060938743,-190.002573164155,-182.883267651389,-165.718068818198,-209.255127752234,-187.442728319432
-375.627300801338,-372.243364866642,-356.957223680488,-430.716160278596,-467.188906430282,-390.546975929883,-461.042150906319,-504.899190477485,-450.166507456103,-512.725447238026,-586.613202501273,-439.409841802134,-547.002699593325,-625.672647441661,-583.250154081326,-728.568955932504,-540.357356034034,-823.982035603294,-943.64733624275,-869.377738001157,-1165.93864893796,-1089.61719597689,-1439.10498166405,-1541.48892492097,-1725.34684986944,-2338.0628872478,-1382.67317388543,-2178.15232429485,-1944.56557280003,-1938.46596320479,-1875.53267038645,-1393.99224154305,-1557.32937131245,-671.272911857773,-1609.45965372563,-1239.93423717965,-1336.89217052915,-2031.05113198732,-903.121076332158,-1153.83032090085,-885.485080664936,-1773.3548241007,-591.299141692277,-1227.30603028877,-1709.13458640986,-102.333355268615,-165.820889844469,-193.19002250236,-162.42874261681,-172.631351668102,-178.103655361377,-174.698192967522,-176.571275382981,-214.709398540359,-195.81492713197,-206.475589364024,-206.834824466231,-227.331614905839,-215.526581345591,-230.176485397033,-226.627402659473,-232.591210427039,-245.044659585284,-238.403517415953
-390.650302198123,-387.999979090952,-367.875488240136,-447.026449043443,-491.995457490492,-390.498046646443,-467.530146181274,-519.965737799748,-458.016517209748,-524.231117694513,-604.118578771567,-446.238838059339,-555.228733060391,-638.551154628207,-586.202203563277,-722.168707099443,-541.673846542575,-806.915307607636,-928.704248681047,-828.464344722541,-1129.8570387501,-962.699305208783,-1379.50592471108,-1458.14556649578,-1505.29042695793,-2210.57011821899,-1251.66698478727,-1914.55064841244,-1538.84903974609,-1954.07301937079,-1540.59867203134,-1096.21821712266,-1692.04034969942,-664.592209075758,-1442.72307662828,-1034.5229420315,-1336.48960849232,-2247.91159570663,-976.795662076522,-1117.44206412794,-864.275495747681,-1749.98310498752,-669.27452861801,-1160.67233688724,-1724.045764964,-122.014395119669,-212.692805989505,-216.827704903343,-200.673830468798,-233.913813890339,-200.346265306418,-230.452705768773,-188.243009253507,-231.438128204944,-230.694582981994,-261.002571275738,-218.117049318514,-280.307311234455,-231.076419859733,-249.941584615568,-255.411966439618,-288.2468291095,-254.152869785434,-268.931542443808
-400.242656182191,-399.338450834311,-372.031347905278,-453.588424682796,-499.898558237752,-376.632036259198,-460.127491742715,-522.030092882131,-450.577255542052,-524.180510722265,-594.21789379715,-443.045043170007,-546.003655337344,-628.144923157068,-562.547992882671,-695.92339319796,-514.281243312702,-766.181183774029,-886.435022185935,-768.617479113478,-1055.1346740954,-829.446725285056,-1282.31548224289,-1323.67072536654,-1289.2879827798,-1937.32382990829,-1305.28295436882,-1654.23303355899,-1224.78589674174,-1849.17529933272,-1307.15229067611,-915.3291954503,-1665.40740425185,-891.392606098734,-1293.40603072484,-951.581356089167,-1256.44417113083,-2311.30829761573,-1083.1130483591,-1091.43861184779,-820.772482114611,-1589.20256154711,-732.221194327514,-980.279927292589,-1716.5724992208,-170.438651503314,-272.576518445652,-260.720275119253,-252.133570619192,-299.905218447052,-237.88850866696,-285.107826690075,-218.944144947293,-260.72303365605,-275.973858316956,-322.715844958325,-246.645750200236,-336.444664874067,-248.895430125469,-280.022827928262,-295.635645873953,-346.912031151433,-275.620220637916,-308.386330179822
-417.941135502731,-428.948735227392,-393.266898260126,-470.4485074642,-514.682398180344,-393.725045091229,-472.511193714395,-530.502367193834,-460.129298472705,-538.135255761139,-594.257649916556,-450.745596302598,-550.41566577534,-625.575100366353,-545.957645474085,-677.574657039396,-494.195164942011,-727.132839552823,-851.274011459851,-712.325883416767,-983.139848698716,-733.392907995287,-1171.80404825158,-1210.22531836237,-1087.39380526467,-1620.08179569988,-1319.13176126219,-1484.82358515868,-1177.00490808483,-1584.17920480146,-1289.36118473809,-960.760327010187,-1581.65337610553,-1041.04841392664,-1192.89927192338,-1072.48604020414,-1202.73981874269,-2296.64233584315,-1038.10100487818,-1219.73062708355,-897.498635111134,-1526.164917136,-884.754578268215,-851.056436194863,-1804.67987378444,-238.833892447001,-366.389509048416,-327.445851308635,-335.772041938833,-393.267580896573,-294.467181525357,-360.78427262705,-266.627035839081,-322.367861636112,-347.460320345779,-410.259585387507,-298.953690716369,-409.486234716441,-280.16721920597,-331.144946774307,-364.522153464891,-424.900075711237,-319.147880108802,-375.651605959894
-453.236361172901,-485.830846443776,-436.119658222781,-505.560001861334,-552.952152671408,-444.376612137383,-515.213441169855,-560.271754601507,-500.23348166052,-577.635400286043,-631.796058843158,-477.669786867309,-582.512450695385,-656.300068257509,-557.790326730868,-688.97293631517,-509.287858630157,-723.194724036959,-854.956273478359,-694.83996471299,-958.071826133169,-713.603219330139,-1098.88590489716,-1174.57918971978,-954.144880267811,-1410.73210289955,-1055.17648754573,-1438.18527444922,-1356.66287889471,-1248.18825436232,-1435.77377914633,-1186.96036907844,-1549.05432135337,-857.712264855943,-1138.61604795238,-1315.30775023204,-1299.7202084252,-2220.45336737815,-739.57648970537,-1453.6017060859,-1161.79192430476,-1607.60463506248,-1146.92963549228,-867.590913580163,-1917.22456084721,-321.444132658318,-484.547980388896,-417.691482552244,-445.169289151407,-511.025255025743,-374.818729140076,-467.060807338809,-330.354962077943,-413.010166396375,-441.507757803363,-517.776114384026,-367.741577960618,-504.081999244127,-334.733756370047,-398.500030463242,-454.349138285712,-520.881349103928,-376.651334310995,-462.501809803207
-503.745777014848,-557.882963986415,-491.194195804754,-555.32341706915,-602.330853838955,-499.62004888638,-573.084974110369,-607.262867943681,-560.018855410694,-633.091501426332,-689.11152508788,-524.808361758161,-634.863227834013,-712.607207289725,-602.696098438065,-733.51860313285,-568.546883649638,-768.656777956243,-896.158158029576,-748.180362741111,-991.550590108568,-801.271529212226,-1099.30758048465,-1209.62369826068,-955.632037251042,-1368.46645375363,-676.068917212823,-1474.01812953045,-1497.70437217086,-1017.32617815923,-1537.18022538817,-1344.12434462505,-1580.18328740248,-458.741451714427,-1171.33328805259,-1430.47931442635,-1485.50219014045,-2114.53406634478,-346.043303659129,-1607.34532708279,-1407.40049326639,-1691.4048316158,-1399.49134014534,-1010.03602965441,-1908.00654773975,-423.121085374912,-593.178410280595,-519.134608596632,-549.468744710749,-620.141353918215,-471.001686572706,-577.645468335583,-412.405512514594,-509.320968726003,-539.469996838988,-616.341889040826,-448.577142733374,-603.723069161556,-412.726112117334,-474.230791445901,-540.052151633452,-616.247664619804,-443.273673330035,-549.208480426922
-545.139542370045,-613.590717503466,-541.554412429668,-595.299442536935,-631.845874040306,-535.222269364227,-618.932053836131,-641.999317403795,-608.540365809942,-675.652922718627,-719.241986702258,-575.170140235541,-680.267552037583,-755.069902983658,-662.196077517295,-780.626360010438,-648.458914697483,-825.597969500836,-929.794461275203,-848.44345751117,-1033.95288214815,-979.246330210857,-1133.53635414585,-1235.9334448964,-1097.80900522953,-1374.70376493015,-641.001994828066,-1499.11664623512,-1383.98368908214,-1040.55623314654,-1449.54400542197,-1202.20630645315,-1616.9869264396,-218.025217764918,-1346.28234327293,-1271.8564993543,-1513.72788747275,-2105.02104196617,-197.374191994698,-1612.50413369174,-1367.64418865897,-1701.37976289122,-1495.91667482954,-1206.21544862925,-1812.71940295671,-544.049687878191,-666.628986480783,-608.352097315046,-628.4204526527,-696.442837914687,-561.389027019152,-658.116830015683,-498.459573849422,-586.320068101882,-619.969673552859,-685.491329811348,-528.445784210474,-680.576297184376,-489.31018669572,-546.104101051257,-605.649644806179,-690.693050031508,-509.155725415992,-618.292189122066
-554.776934096016,-628.398656910171,-572.289342255307,-599.871633747877,-622.195482554098,-550.253334824386,-633.84574930437,-639.029889191124,-624.518962394162,-686.294345498914,-702.103637128327,-608.319269042161,-695.511063623549,-755.438244460811,-710.510044168085,-799.347210800076,-718.552698198816,-855.914554521766,-923.724574395308,-939.879598729992,-1036.9792797163,-1182.67824267977,-1147.66509329551,-1202.68669243601,-1330.96847837973,-1311.21330597188,-1151.37429238494,-1460.57171014749,-1106.22375253027,-1309.10671278224,-1239.617381429,-826.128183283806,-1630.75302997018,-356.560899735654,-1585.88297159595,-980.180538453518,-1275.74122172815,-2237.00366237079,-474.261444825644,-1566.29158496215,-1095.23533843125,-1699.83804459297,-1416.54841309697,-1355.88961779684,-1792.54631696733,-660.026402739385,-704.686701963064,-672.173667933997,-678.635058236231,-737.073890647587,-625.917160665226,-695.166154551449,-561.76556650372,-631.166097115792,-662.762741967245,-715.760049793717,-582.404338283246,-711.681280937578,-538.33501920888,-595.071180399223,-645.08264704306,-721.925934563156,-555.605588757503,-654.80691564073
-516.711221592365,-584.041466885245,-560.274096358157,-551.521644218328,-557.356449652013,-537.607475077471,-600.134252141411,-579.266456430821,-596.396029373667,-646.722580250947,-632.304162977857,-604.341553044642,-661.954296254059,-696.305150124244,-719.302010088753,-767.64594050995,-753.193710117423,-840.293289511691,-862.137257432687,-972.700012416323,-981.776723613674,-1313.15718650837,-1118.50719207216,-1106.05271673713,-1513.27419018097,-1200.42456180253,-1840.2089217339,-1414.34729075213,-852.823428718388,-1596.5307399436,-1046.89215071222,-454.312812128829,-1574.82617866117,-737.457863354612,-1681.83925464685,-770.64634008848,-957.073928654653,-2247.73524444583,-989.535572286377,-1557.9467573951,-896.085779287218,-1657.77459332012,-1266.92943493526,-1340.07259576587,-1763.8957555956,-709.011008706546,-686.156034838683,-680.729628267293,-669.484559670125,-710.502970180271,-631.315274774264,-661.755165655755,-568.410768434785,-619.809127959379,-630.935310980257,-663.86951656973,-579.708373614261,-655.499078638724,-538.529016557571,-586.693943908353,-623.436734958659,-658.207396596973,-553.078087601043,-625.982557056096
-400.951131312911,-449.607867143644,-463.668465436208,-418.865755779978,-401.360719208523,-459.877361249614,-482.925032806637,-428.581897951865,-492.785572840637,-514.856990008919,-469.182876634418,-525.204930145075,-541.634646893609,-539.780556195048,-641.092699621938,-642.043311876522,-704.283895343188,-729.099100924647,-694.155651133898,-880.76675221386,-822.394396193039,-1242.12538107636,-994.912403048694,-906.117983340245,-1396.37986596628,-1088.98342249023,-2120.27551993772,-1403.17805514392,-627.646449355171,-1619.25601417205,-894.316074133629,-183.58893684783,-1296.0893780756,-1055.01271838856,-1523.03989231193,-645.910007327398,-741.418297431514,-1802.26062868533,-1396.48475869581,-1543.05866075606,-884.362402483993,-1395.02981115601,-1103.93205303384,-1082.61243839771,-1361.79162660759,-620.808749151408,-545.659957952771,-568.235137981366,-537.439761493235,-549.721203132541,-524.522181801179,-502.495684936152,-478.231195731019,-504.667148745522,-475.252526351518,-464.51577453422,-482.849519387426,-456.108590063818,-457.737983242245,-477.815481960261,-484.099932548791,-444.411497528336,-461.422323000259,-482.381919624658
-191.079129152902,-212.812556285277,-264.810263366147,-182.810716323991,-138.267548389119,-289.76554218343,-263.036077163459,-171.717646389391,-291.577196640102,-269.996202309397,-185.452308270841,-344.382095135686,-311.43188007834,-265.641186993912,-442.639278662376,-392.651652592176,-532.798991444239,-479.486068733217,-382.741505068283,-616.480836821824,-515.516325435678,-907.775083925239,-716.381444478433,-565.423132638189,-890.342804162134,-925.310794959949,-1771.44729400695,-1299.37629138753,-388.518860161804,-1344.95078597767,-712.187234040026,34.8433820010356,-716.715610626506,-1114.79423078608,-1224.83392435671,-500.619555959067,-556.149257199637,-977.160283365733,-1521.55782031583,-1395.69666978636,-866.600303020071,-884.051798569168,-861.995338910624,-621.117280003652,-482.048637001373,-387.425019449326,-261.387539834913,-307.913255439465,-264.39207195997,-242.123923255376,-289.666068423593,-209.40378563651,-281.329940599203,-267.356229864678,-198.403300350572,-131.28057466584,-276.958522836235,-130.207396581117,-284.388432725385,-262.641692772167,-223.769338529505,-110.521549150695,-268.296016008244,-220.544532883795
62.6974984075727,68.6524026999371,-21.2291357883488,99.5158577839158,167.10019264829,-66.2741089991766,7.07841566310805,129.555347361651,-39.1144758415412,26.9871089252111,146.485870025668,-105.881438664687,-28.0975954389791,60.1192984622872,-169.720739599923,-75.0311455248494,-279.793183547249,-146.543987088711,-1.95576509583517,-247.677711893197,-123.062122129926,-431.823152299505,-323.189220201177,-149.745003110374,-276.908289600487,-624.541104903741,-1048.0067611164,-977.275460568219,-183.982892261572,-1006.70737287308,-513.593224809291,216.524033133423,-63.0032222574235,-923.261849846844,-985.460561382137,-388.064930230418,-287.676561081757,-203.694801259662,-1424.3900881434,-1084.0911498773,-743.976585038413,-351.465855570986,-549.176920825696,-83.8550670390433,406.081615683831,-97.8059108183908,71.991337696475,9.88924147056803,60.1315768482577,111.620526148118,-4.61325133797173,120.889418834454,-40.5947589944573,22.5564976778802,103.310905131585,205.75149211265,-20.1483404506799,194.58113923422,-69.5481104713839,-8.91464270946846,68.1516365867724,211.662553732774,-31.7879682721556,74.1608724087924
259.456693875349,282.045081304102,162.469732052317,309.123257180739,392.495187854906,116.138492619392,218.748423007326,353.612496860473,165.234813672645,256.714947723864,386.95508592208,92.5339570806969,193.921115224746,306.308168191299,67.5916093619443,186.706826847509,-50.147723199521,134.654976960884,296.259687284886,60.7762511293049,202.226302119822,-45.4266072439128,33.9847613657356,199.164917848652,82.4907819786629,-229.613514096165,-364.079759147374,-584.547126694166,-36.2872984943879,-759.114328061845,-442.206028290823,332.785383960297,317.59037650129,-627.113065775351,-904.73980087213,-416.880152474692,-62.7887864200476,242.695333959718,-1228.63717591337,-740.313027554227,-687.509799258911,46.3237072637624,-369.515715595395,384.214244164008,795.589610351918,114.934920906077,303.593375585639,227.764530417237,286.49600533374,358.222781459483,197.077764496282,341.522187859585,137.372355670522,234.189040607215,298.732231596037,399.148122487855,173.899024974009,375.954665262262,97.893637703334,176.326385291742,262.684224467696,384.757096543389,145.455058345353,278.527525772698
312.09082841213,329.614043967204,210.628154808792,351.135005398517,437.836511765469,175.882388896208,280.109970999389,400.43565044462,234.35479634322,319.262305186118,433.78335669495,171.77489068494,265.502420362482,368.268543376644,172.900818460833,286.926424539531,66.7966872785364,251.249755480187,398.304259050413,185.264455687307,337.534185125965,103.662466480938,213.067546769402,362.558218817132,128.794822205087,70.3607927758665,-13.0792720255498,-368.03026792864,37.3139898281163,-548.874975603393,-552.106309508765,369.620437400331,312.032338069083,-401.526164031226,-918.940843929095,-499.866832887552,-75.8429409742711,365.777879978467,-1007.46467411616,-474.643832525815,-742.316747651506,330.519681838949,-461.892518101328,627.036607943771,653.502617353509,160.56955781413,332.753174535312,246.523221127206,308.30213526623,390.479975695514,224.780008779599,353.592276679624,175.614704527308,263.915564553095,307.591650271825,379.97872927489,215.389311187483,353.187636931682,146.520276502242,212.140085486033,276.334862444436,351.47165230309,184.198339527747,304.35269358534
204.72497018814,198.006095362735,120.420656900967,221.40683542525,292.670932445507,102.988387308352,178.757567650601,264.815350575656,150.129768606813,204.7052668956,287.626155056823,116.091477182054,178.01678592597,243.226231486304,126.575337609221,213.60399225423,53.616261718487,198.506027590544,303.856624921479,143.315622513059,288.007284983687,54.2561446395695,217.312959762149,334.079480199996,68.7971804148288,196.856775195288,32.9235341608367,-287.055128311614,-7.89309014491086,-302.52945209119,-579.431905292313,334.539644241621,80.0034930406012,-301.654825547803,-771.283612302667,-426.173257264243,-214.850194702839,205.560038341332,-774.366410458486,-213.271535770525,-671.081319466504,471.060583724041,-649.418015140607,542.884816265872,222.450885828045,44.8094512137379,168.837973770526,92.9689275370105,136.525382138225,209.891776188527,93.3403825752402,169.012872079928,74.080076633881,112.638057810891,143.180233872048,176.759053837645,100.674224659953,161.232376898208,61.7362686101384,91.1470946324058,122.913057425153,149.54791539953,79.4004576040229,145.34196264586
30.366508364716,-2.23396843592286,-26.7064439025233,28.9500173950263,73.6630347553736,-22.0169577219199,11.3527226680381,63.0744029973899,1.50240908386709,24.4888292254251,71.004356604124,-4.64244950308226,24.967252913795,53.0787232915833,16.7977149517436,74.1513565525412,-13.4813379160165,97.918653786956,143.69745098854,72.0262679458569,193.471064324974,-15.4146420966932,216.210391387634,258.980656940635,127.681476890868,346.464425617505,75.3472471222299,-27.8287541970704,-25.837783538725,19.5418277801124,-133.331282653731,293.432406226806,-130.030451678822,-211.995984692011,-175.830337557862,-58.6972060038678,-127.741486577525,-95.8716736714344,-481.014584707921,173.195708807009,-349.874703203431,434.072197902941,-635.470035710913,243.175479739899,-174.191478782389,-120.369462214455,-56.0320112063959,-96.3861193077434,-87.5465582757739,-47.7803630834708,-80.596281163661,-72.9399254387765,-75.2625884307146,-90.2289415688199,-73.4831863702812,-77.9646239344483,-67.5721959465176,-72.6107153684427,-81.0670131858733,-87.7122545699062,-77.6424605463523,-92.8036053377438,-76.8503984461761,-80.5796654761699
-70.92331579394,-112.114111998963,-112.013347770338,-76.8730109376207,-52.6527320230273,-88.0814539480582,-82.2995106211933,-48.364917132456,-77.6600544051065,-71.9064387929813,-51.0235404776909,-75.1337358317468,-59.487118834356,-47.3012641310214,-28.2855769331881,9.26304863075756,-27.4896163087026,83.4294562453601,81.258249335148,92.6896396196734,198.490828624511,35.1326731715791,352.690661034943,303.910211915534,366.087083323095,690.017052752871,257.196698778481,569.85977941192,259.735793438424,439.887687460392,763.389362780821,356.788668119976,-133.309203104692,-28.2339111453984,757.245248975658,559.095063049659,301.461242340931,-157.362983074539,-94.8193587057838,663.739168488675,75.9977436608752,364.52280520382,-341.511615042911,5.44675013302914,-215.546306908431,-194.045503972736,-175.823728421237,-177.525406330462,-195.99213675389,-196.789718244393,-165.014734043591,-197.568122235899,-150.704917912497,-185.791195341284,-187.277745535631,-214.190747893349,-153.938192176532,-195.13221627141,-158.956513215406,-179.890451981488,-178.318196705894,-222.300725761808,-157.7896542697,-199.461234080793
-53.8646400673849,-87.0922007794524,-93.0567261994727,-52.3372119417043,-35.2497941655605,-67.8656249188138,-58.5906347147669,-24.6933430227465,-50.0042666106545,-45.7828028378215,-29.066417875195,-51.8733676744834,-33.4894109388272,-21.0643412638001,19.7408196735367,51.6503944321433,27.8328952667698,155.151926141313,147.833950954876,189.684022297355,300.582704566428,166.674919941487,554.587212794704,466.872670460257,628.021729900767,1076.60912247027,370.173574951146,1226.00964781099,799.850421440418,852.91790208902,1546.61119406821,535.904303749241,92.8860291526012,178.190542634537,1490.63888470408,1121.52351682173,770.503534085737,281.286573145344,303.681620126843,1083.34527094064,431.121842756876,407.337662625519,69.3569921483473,-0.860969143397378,74.3233029494239,-139.080005977586,-152.406214657741,-126.964901325516,-154.130337395578,-180.35346872174,-129.398241595863,-162.955974406533,-121.471715152936,-143.176123948292,-157.345613448808,-186.627530666083,-127.171508239392,-171.64725500477,-132.754638793521,-147.997701085611,-148.914318842966,-200.673400196699,-132.108798271537,-168.247132851276
15.5685412081947,-11.0796196871455,-29.6455726281394,26.8226066931468,46.4729809624046,-21.6555526270209,13.6507989626832,55.9679845071702,14.5238150091366,29.4115590403468,58.6763129243223,8.45699040498184,37.3458422025259,56.1767921814134,86.13573317374,129.181148445292,82.4200124185886,221.933259784763,251.428081605937,268.795932073346,398.923190776964,259.641701037984,662.35699417659,621.45137461928,733.978660978254,1266.56890102579,285.88620442456,1506.15434758418,1199.26861896348,1075.94054446758,1713.63743399411,681.194706614037,444.820767286657,284.192313741531,1676.99578229405,1231.48959293985,921.298153730597,1027.10029196141,600.361407332625,1261.66042897277,610.338394988903,517.189403254181,402.855423303485,146.83910849408,384.134207358684,-26.3692333080397,-82.0211668109261,-26.5356180554237,-56.9356979932468,-95.2166283539809,-37.9344605645422,-67.6891141586436,-50.3524631606698,-50.2796067963386,-67.6236773728429,-96.4638162067116,-59.694057429666,-94.6719513575037,-73.253003528308,-77.0164969494056,-82.4866288207096,-123.842120387782,-70.7669821573705,-94.2049640263396
88.8451966512799,61.4106706834914,31.7006959983629,108.260460020877,136.672507217832,20.6559661069364,86.5999610206494,141.662045036863,71.9172295276781,107.307313649752,159.272174836675,60.8989366578028,106.929194253795,140.314329303228,130.939013510596,200.452018322972,108.453952712545,262.637372089265,342.441631439592,311.169081776964,465.682772217762,310.896824849908,676.868633373511,713.310107207636,740.856083635854,1264.2552969974,260.035996496901,1364.33296376982,1221.70907764457,1092.24391162748,1331.46327309562,638.950110565806,855.540102801679,285.811980056036,1511.36335018417,844.33772846158,738.612867149777,1719.22866159298,767.5202144666,1194.8999522156,581.31150184889,629.01513924924,597.105127595902,302.365488605771,641.878418105771,91.3967625902317,-23.0824921472787,73.3259259439422,33.9985759089319,-13.099987989859,64.3430324116448,21.34086667508,25.5253925370578,40.1901222004879,23.5999335962735,-17.445030778239,8.6414320510672,-22.7687805859163,-27.8044637117376,-17.7052830859409,-33.5644706935741,-60.9996605971442,-15.2585590916703,-40.3103293359212
189.001914382501,165.10322416526,121.176783147603,219.877389879483,262.523656200014,96.5754507287185,189.740166926406,261.27790552904,156.354685036551,216.163950793636,293.85677170097,135.375933539301,203.926838424571,261.14499462339,197.286500829908,298.313417203105,157.748728005702,341.527780826885,456.082709872232,387.248215243231,560.168856962736,422.982675612025,734.224159892157,787.183234465658,860.659306600635,1237.97984070067,557.673996382894,1198.41870228343,989.85480230745,1091.38014502577,830.979743673937,400.613571595084,1299.57519773057,260.074786942323,1359.86616469378,369.834403780359,514.287691838282,2176.44845100221,865.060632253163,1066.62608850477,459.199970618563,792.103721934182,722.439939154686,462.240859513241,991.366132576502,226.420673637874,72.5587993156234,195.294746938194,150.547383365929,100.847095880673,189.233695609308,137.953575191843,131.589486305933,155.420371479109,144.332601844042,87.3857578278831,107.671698393052,83.4340380408643,43.8910560488698,72.1332416626731,49.6863643555133,31.7423027116898,69.5791259361828,47.3719139622748
327.016880064366,315.767423237759,259.347174456602,370.881341591161,430.040706825174,223.478047784084,335.86935047377,417.513175922999,289.54127883524,366.565874210112,457.738601118118,261.018867057194,347.021358978148,425.213935990486,318.453523681677,438.448687869649,270.320540660019,481.085279793856,599.971515828718,529.3449203767,697.247591048199,632.41985994008,891.898403367437,867.788703333823,1140.92170725929,1281.43459598952,1058.28310565787,1330.91149339496,741.517875043447,1228.43127547897,577.55477626113,92.9054350231516,1630.23802448192,265.775153717716,1353.08731069273,230.975599743811,496.566133423224,2308.64754968768,990.116566781437,1057.57498914027,428.241193414892,995.950883993673,846.157074116584,665.37490970935,1314.06135363993,381.193169030638,237.380307437683,347.793380476023,311.198513456294,268.850957013471,336.980353852618,304.059639743618,273.921858892502,305.766881707504,308.056674775748,251.229111189667,247.949522800647,249.532669273939,173.376414278729,218.751807904949,205.898210041123,194.113036678032,204.123087751654,204.902328881417
449.633531949281,448.81851499556,386.641279841608,495.518458720095,565.734066252436,347.115762179029,462.202699933482,539.328310197607,416.766547474637,496.706737375958,583.618540994972,392.533024052181,478.794757322353,561.274741262141,449.909020498403,567.769226418653,409.769357121929,613.483263207327,709.119157077501,673.533242342836,813.186114500473,847.030005229408,1065.12604107676,935.471144956708,1388.30931394067,1386.21544850219,1440.53495157287,1648.11879362336,666.099837015305,1435.01162769416,725.384663826361,-73.5832962753522,1650.67108054252,314.383460644563,1416.58872964062,490.214369838661,675.443405622483,2029.38398639047,1177.19449397047,1161.07674426076,535.69930795684,1081.31539687831,945.298274443309,793.425676040249,1311.77615778995,507.904103152153,404.885341331535,477.319804626378,456.422293346027,423.900555009998,455.659845115109,456.016350042652,396.79218989759,435.132391651067,449.634596161261,413.036078883408,377.027566695524,409.84637706591,308.088888599934,362.447769739417,368.600652758838,359.453162871893,333.06350607931,363.294510770733
497.551753509075,496.268735113894,432.828360797517,531.902126072071,602.51461224659,400.417110092255,502.015375015047,570.71258202718,469.053786758993,541.25461017933,616.152331680684,454.413785332,525.960073449173,597.705095396463,516.898771572201,621.710819467084,499.159911929646,666.185227385684,727.583044143072,739.471403350872,857.138555607906,950.776753800332,1147.33084911686,978.166660655422,1421.25897342723,1503.53687055756,1544.36061503234,1831.64312894687,846.020078136078,1538.14672486748,1177.21307305047,73.5194559424314,1391.64284134336,388.945840075755,1470.58558789141,910.256649853643,884.118865204311,1416.95486032345,1323.29714335346,1257.57006709598,689.484443331143,964.548602035717,977.390744334674,687.540413539136,998.897641088419,559.693576089583,489.583797442398,528.736082345117,520.406478779199,492.781104031308,494.789563899677,519.592029857768,443.548519174707,485.897836959202,499.861724529805,488.091086920193,432.91297721242,479.755694315067,370.116842060801,424.59139014269,443.340034512009,434.718191795145,384.764359309228,430.207583541598
466.013353620541,461.791370774048,402.536098228102,489.576483260051,552.728432821551,379.492970137507,460.354201883338,527.200792729571,441.266341416999,502.883835000936,565.215279260794,426.919538544985,486.219887041862,544.528118736478,494.977009695226,586.868806191399,494.473706843509,633.494599705446,668.326693163471,707.559518189455,828.397727868665,911.325867205674,1102.7437215551,978.289924110569,1275.20616732692,1529.74565938634,1417.38673704935,1757.58382250588,1115.53426938461,1500.67638692218,1595.12736888575,471.054671752051,1097.19604222338,468.980493730208,1495.9182054381,1217.41771282833,1013.39815698605,741.080125958031,1297.12205816135,1294.27958641985,812.392551574694,782.810660987343,947.365291527892,424.062066428259,689.036877316981,534.318262584036,478.502297912879,502.152863219018,499.181058278473,475.800382792093,462.008686040603,491.985744218102,414.992265127161,460.11186000519,465.387267398817,465.020913659195,407.304193523951,451.633921588524,347.155660396877,398.583182722366,420.33377497166,411.772526379932,354.489687943127,400.303295518555
