79.1661102078688,86.3432575618789,83.9508751105422,83.1534142934299,83.0809178555107,84.3858537380579,86.4157539997981,82.8634285417528,93.3754120400504,89.3156115165699,88.2281649477805,88.0831720719419,91.563001092068,93.5929013538083,91.2730153403908,96.4202624326607,89.4606043924085,99.3926163873518,100.480062956141,112.586968088663,105.192331420895,132.958467143985,122.301490769849,92.9404334125346,179.066201660656,109.687110571891,168.771707476116,166.451821462698,114.109393284968,161.739552997944,142.67298982517,113.529421781614,113.89190397121,121.504029952736,153.257469761387,120.634072697705,78.0786636390794,90.4030580853593,125.708823352055,134.553388778209,71.2639984746658,80.6160389662546,66.4067371340731,21.5314420620302,67.5666801407818,86.3432575618789,79.3111030837074,84.6758394897351,81.0510175937704,80.3260532145775,83.7333857967843,82.428449914237,81.1235140316897,83.0809178555107,82.2834570383984,80.3260532145775,80.3260532145775,83.660889358865,81.4134997833669,84.4583501759772,82.5734427900756,79.0936137699495,83.4434000451071,84.0233715484615
373.393997363888,405.999469069788,394.647668915026,391.878685660975,389.359798579313,397.364100520802,406.560952327629,389.125277564174,440.454328214694,420.97317803225,414.29084367469,416.575209741213,432.14446536428,440.688849229833,434.900786549344,457.004470565869,430.940709974087,474.370561979668,476.630613624152,541.689728267653,502.035070382202,648.429031425951,585.175045009773,448.104887231378,858.872089502458,535.469600047912,817.6370754241,795.319824898012,548.043643838379,766.798021309433,679.082478656356,543.406784899808,537.369635762862,580.59365080774,728.145651485865,572.333426517336,376.353689249594,418.303471898222,595.398052472324,630.043173420685,334.158742948703,386.073591279105,313.938509773949,108.690880805591,320.674852323916,408.609340834882,370.964638421526,398.885069172975,380.452932524162,375.56306432494,395.210608716999,386.046363768802,383.116812481663,390.737230899779,385.79335450815,375.128085697424,378.825404031308,392.256743007821,384.420291820079,397.418108713208,387.749301787839,370.585124530549,393.689640064826,394.266698479917
705.099774917745,764.401146845963,742.123240595573,740.552302672792,728.9203063731,748.234992614824,765.875349400363,730.652613212378,833.117950862745,795.214703457584,778.022683655293,791.67697254594,818.146168617227,831.603133337225,837.8698479273,872.686504135196,844.77014177143,916.374286097886,911.495228742283,1060.90351569818,970.274055486182,1301.3468378078,1131.91862430636,882.57701938436,1668.67624043957,1074.85776003549,1617.35147313053,1533.4431455266,1070.70199556115,1462.40995451428,1303.93538876956,1055.53801903477,1020.94177062856,1121.74783778149,1395.03913665842,1091.32380502106,741.633557849706,773.831219506624,1135.07997476876,1172.99159550176,613.191103402875,757.4854176676,595.818135831395,244.074991418982,634.260310582804,779.684786349748,695.252277289926,755.041649666747,715.628279318586,701.353839260723,748.799423826481,723.183373662308,725.700873930947,735.456191310691,723.202952875801,699.289875596222,716.108602365296,734.885974548529,726.690784247947,747.808712626072,728.158765944586,692.88926365883,743.587688408782,739.488004066484
671.394993825207,727.453242705909,704.787039765753,709.489086288396,686.447097599071,711.965726410596,730.295047606786,691.445758945551,802.129867880917,762.540612338477,737.539492673584,770.435947505851,789.118755706932,797.510720425419,838.595057664113,859.61334469546,871.88440194904,920.360182194464,900.249066259413,1093.3057071816,975.850983138263,1406.86525670119,1128.32297231081,924.998416294183,1677.18051599866,1156.59100709656,1684.39109174052,1515.78219639267,1103.0470740734,1429.94223679795,1288.54101447293,1071.92016102115,1001.00478911798,1114.71985698778,1368.50570852523,1059.61481440764,773.787053733216,746.922819371101,1109.97078410028,1080.67203046895,524.970893113671,802.006212926674,568.085005671294,353.09320838635,723.178299591701,756.842960714971,662.421551101953,724.108634160829,680.655574854625,658.867679891716,715.73174944814,682.471002527841,692.46826396327,695.864241450793,681.229910313366,654.474441048752,682.649813177471,690.454383352044,691.237885611674,707.667760890189,687.599970724686,648.265658932533,706.879418630506,697.147762024293
342.029188597486,375.383036089172,367.14343694534,371.213754523953,347.179957561124,377.0450873401,383.906203659772,352.597566173038,437.199056349334,406.681629697598,380.884578053126,433.473837173092,431.327857010137,428.127257021244,499.776637144109,497.763831629526,549.923920284183,546.770888392416,522.928052867747,679.110773697598,580.611962833094,954.972207801014,631.493403787715,605.26852026913,949.232415859806,767.493393630756,1027.30602538846,827.938477549906,702.908843453797,798.694329149325,728.115610395923,652.568001996621,578.893393920011,608.306046545047,724.297148454547,571.33049843661,486.997399745149,493.663395386663,610.816956658326,498.318014573978,172.242921433033,559.911475811816,269.016005820115,418.399607687893,637.257240296558,368.887328378496,345.200807871406,356.063528681779,340.349649998753,328.594535754676,346.175948557721,338.751540704913,335.950545474243,338.808147177257,333.150564305942,321.687311750429,337.564039104767,335.206196187004,344.418480929031,352.73457976937,339.449394444647,313.565592988575,353.980848637285,345.834493911316
114.356596830016,133.290475011081,148.065236235981,136.328399116759,120.04086310342,170.795464570437,156.399037293572,122.422831776583,201.832243987869,169.249301818831,142.436630069601,217.023120330468,196.523985897638,180.777380288017,260.843004479908,250.05471051277,304.619940144954,271.168078184307,260.662009056304,342.202870171015,286.475413112116,518.148051352968,238.533645272421,342.547420713557,341.415299948401,400.920195019304,431.121823072604,297.488988241906,405.724561226459,357.324872261569,324.448374117822,343.687444363784,291.955060409217,195.473967258139,181.596262864733,239.128877425286,245.231997192597,415.017380543619,228.313822053333,119.096884000601,12.1398098184884,378.562980974017,38.2113076720195,435.64997371147,569.327692262867,-0.0346762434082031,100.272090454112,39.3637735365434,70.211689696408,91.8915014345038,37.7418508508539,82.4806357166101,48.5187529770303,64.3309762374707,72.7777337514065,81.3556532614716,68.7006282303157,74.9342594727178,92.2628438587205,97.8254378834198,83.9494490916264,73.1164142112969,103.859833975346,95.7090949109725
21.7330279938004,30.7358540000825,65.7554408935208,39.625539561598,23.7534714571154,105.771785871872,70.1656729960182,23.4671963192455,117.054844836558,75.1489592450732,43.2438582681399,140.439384607664,103.92595591653,76.0271558757698,155.66647230966,136.972323465942,184.218588345383,138.937944418556,140.009533685266,156.66442361967,148.403548242862,209.948506265273,51.4096349048796,192.029677558491,6.08378397177211,197.067220147627,100.932297971778,77.2749063029933,258.731658434774,177.059120673871,163.65121714684,216.922964167325,169.749006675317,17.1304938215693,-106.172115811839,129.726433380559,137.718442520621,393.242381759391,25.8919757372581,1.26609183521768,90.7632820900097,279.850989804087,-33.2198181338461,355.937250466407,438.436364518903,-250.079121501911,-56.2836800123054,-159.370861585476,-91.4307994989467,-33.5299472197216,-140.940432674351,-55.3944300919708,-106.865899448522,-85.3113057325081,-66.6476186638762,-48.1077187289724,-76.2895941063364,-55.8606171744375,-23.7986480500838,-25.4200149806196,-44.7613846552323,-51.0479981455909,-2.36954440719104,-24.0613276879989
-115.187073558852,-121.985704268247,-81.8717333490114,-102.254146539289,-126.686677120995,-34.6894688961775,-80.8807398818224,-127.826085342544,-41.576511269151,-82.5252974965611,-114.497946762474,-14.9853525060818,-60.9396985410241,-95.4526060396217,-24.1703333322226,-55.5048237998428,-10.7417694324359,-63.5002316099215,-56.3312889671789,-94.7449152921225,-50.3937018901573,-174.261704607469,-162.147608881646,-8.53482902959943,-382.37333337988,13.4380248375011,-214.312785999554,-146.276944595771,24.8268591261646,-78.334317907883,-52.9019498370902,35.2695139828418,-12.2774646815575,-126.576443035231,-325.651691534218,-42.1536071239841,36.7158277692376,187.239676073641,-200.403849541338,-156.583990082962,134.056142652038,113.554671654757,-56.3390381496134,199.119656096068,171.967317881706,-432.454479303543,-240.256240194185,-339.83509453008,-263.207546323786,-195.164980140304,-307.20437146081,-219.629480041685,-258.579520143606,-254.289034629652,-231.163805734686,-214.001829576996,-236.324331027633,-214.724206982231,-170.037987473887,-187.483916846054,-204.500144565603,-211.935614890561,-146.758247549508,-186.091920576202
-258.407867345419,-278.466464475294,-251.25903839195,-253.023595599471,-280.088685735037,-212.605046336576,-256.197285101997,-283.133995931942,-232.303495803504,-261.149733255287,-280.661494437629,-212.342832645713,-249.627795865275,-281.067074859202,-240.350889368054,-266.924136693798,-246.613245441641,-288.959251862713,-267.563517734909,-365.047283094575,-264.649200602991,-561.951451405791,-372.967981939245,-201.391548982305,-772.405631864107,-131.21176430817,-503.797910156047,-363.03545760943,-219.672861814541,-359.796936027721,-285.72588596195,-165.060606967139,-188.411183015248,-257.022042078667,-439.092308199799,-249.728716739708,-56.5422053129729,-60.7264583448694,-375.445884607449,-324.80045097894,80.3706780054433,-62.2851409142773,-64.1716589200321,73.1462357799341,-68.1424628591139,-468.477115204214,-356.334120752924,-424.694011303708,-369.533974508425,-318.103412427551,-395.696854704176,-344.143042482021,-352.866161082124,-374.155657223518,-353.849636114435,-343.861013417793,-352.546069804251,-341.784670562639,-296.993005254775,-326.900446261168,-337.199410540133,-339.157011783842,-286.854871448453,-333.036973324376
-284.305709831517,-304.598276686096,-301.856330524728,-288.112492725758,-304.850876631949,-284.427869379907,-312.878515898206,-314.940518159118,-306.95820153071,-318.228363254368,-319.850568226673,-302.612624358164,-321.078951152958,-338.40832915817,-347.72498614862,-350.906430472449,-377.811472444649,-388.159592638848,-346.682157946329,-497.142017667848,-354.672220124612,-765.848670251475,-452.605334132967,-276.228164765623,-957.149397488445,-183.70479384087,-649.657585801518,-452.371276507357,-305.978178888841,-500.023808389155,-376.471133892934,-235.622141383524,-230.411025175553,-313.378100680952,-427.18151714481,-316.25105218207,-72.4303507903863,-152.703340459951,-399.34521117462,-361.183226363766,53.4840647356842,-120.960100398409,-38.323072245828,47.2492196232246,-147.147375681857,-322.785879961509,-291.628554693481,-328.648320662664,-310.354382061679,-277.417806365365,-318.515619060846,-309.918923808883,-302.500150305229,-331.4327671223,-319.725238871998,-313.67055333704,-323.715275289846,-317.534893434462,-293.769782736999,-317.970957869583,-323.356417254865,-312.708650859892,-297.303350002112,-330.695866414692
-224.702828346648,-235.398923087763,-260.70934832792,-235.405003860897,-236.46803068582,-270.019958634792,-274.992888923773,-258.625952252727,-288.294496318688,-277.585227256772,-267.65790673378,-300.475720546358,-304.719228576785,-299.349656727205,-359.691233453703,-344.638409871274,-410.304103008363,-386.950134051912,-334.829992295827,-508.035205293537,-358.010479357479,-790.417069908887,-445.277858973067,-290.422784192281,-956.897721856175,-226.013420760983,-703.201481419808,-497.929896702954,-307.220761798991,-555.000368046552,-398.383949539113,-225.13173341901,-209.665097264869,-335.550011886335,-424.65706391168,-277.468689733885,-40.2482074083633,-146.929261553394,-363.85890481755,-322.855257214812,79.2630052360298,-96.3290338532082,-5.41427954022291,87.520501133284,-116.144583327766,-114.989312396206,-113.459866148607,-142.225288891893,-146.926048688873,-119.593696376566,-162.440158757387,-160.827581793966,-182.952084300155,-191.845687172445,-182.033330672778,-170.455634844947,-213.59852137806,-187.978758932136,-215.95198547939,-214.58016259005,-208.025124045971,-187.711537232164,-223.262195413281,-219.808175341374
-188.445674029363,-194.46964595115,-233.053566874218,-203.051274765457,-195.509060567772,-261.243495654487,-250.773219487746,-225.474665568029,-274.604790237076,-250.116922351798,-238.23152398283,-293.973154985081,-292.488490866305,-274.708119444682,-355.464722046265,-338.251400522617,-414.406487688892,-376.46673360406,-333.202253450522,-481.978488235513,-365.220572890114,-731.531440918189,-433.391257611123,-329.283223098676,-856.901745782036,-327.97131315507,-733.461174316875,-576.680627891361,-373.861763303114,-615.430320974283,-492.240288732701,-278.440098658115,-257.036550995524,-385.647630879431,-504.31671452588,-297.663242503489,-69.1391895875345,-195.505021867515,-382.785186492163,-345.692982265431,49.3686815159415,-134.788797009483,-45.9872306934587,67.7952808976989,-120.585185436543,-18.5617205715912,-13.6436960863415,-46.7848359749952,-48.9937487987633,-21.5730009864722,-86.0370113961478,-63.750864335351,-127.551631405837,-113.239220784617,-96.9632746161359,-79.2082274162533,-152.449044400295,-104.599461359261,-177.724051246438,-154.998670191982,-132.479041109675,-112.623215541386,-186.655057533884,-148.708361171269
-221.199984643994,-240.141313997989,-253.615571753621,-241.27772342366,-240.816649892356,-277.189878534607,-277.645348344059,-263.04995464837,-291.126295051223,-281.052635247133,-277.892312563416,-296.247511425965,-306.154571140287,-306.11198468745,-342.946591764645,-340.503264702167,-385.830669520296,-370.539113698654,-360.444726207709,-433.336782632663,-387.167514068825,-624.682250709848,-419.647142007197,-393.53742159941,-675.751651391807,-466.682673306283,-716.439073068615,-646.870676803724,-536.20326039544,-682.182626234004,-677.731373279585,-461.102267810793,-423.8457106146,-476.251669980208,-643.691230028686,-460.877983976077,-255.783693772646,-360.249165381465,-492.558255910228,-492.028769989227,-145.23168897611,-331.316551896733,-238.884378963483,-143.315918202999,-276.875720768348,-171.471700153724,-161.361613264553,-175.914208145812,-170.217538866716,-146.217070948572,-182.5846779008,-167.891883987453,-199.119742875978,-195.021151261462,-184.573024758892,-173.14702564837,-207.247866970903,-183.83907471937,-220.510724040594,-209.406056773621,-195.36356092088,-186.905206142347,-231.300468889699,-210.213401690871
-314.606008629563,-357.322679762487,-323.190223767095,-341.039664608063,-355.765638055748,-322.039060976878,-349.045608434496,-359.642525984674,-340.97364615258,-361.499646192401,-374.27581679515,-316.046538040655,-352.807120890929,-385.080017393844,-337.106408586719,-364.732742595473,-343.213052788005,-380.887712401046,-416.56898708809,-395.920631643833,-433.857822637624,-515.761138622586,-428.693812753433,-483.333707454112,-505.945179072666,-623.19007692207,-656.367533325417,-720.205615374175,-749.221054757115,-778.589471317651,-897.336432388853,-732.620871643154,-670.053304196578,-592.092167155388,-816.08871073821,-713.636819880668,-579.469880762397,-595.072623464356,-669.638087883348,-710.618651019847,-459.296235521845,-616.907356026879,-515.693195872735,-490.004481626845,-535.248368209167,-528.137570270695,-501.133542208101,-479.404808434074,-471.146374494857,-451.474479325352,-416.995820607593,-439.411351140944,-375.716557826553,-404.576827353617,-413.894926241871,-415.514081965272,-362.392780932294,-398.974870368361,-338.413024450321,-358.786411912697,-376.814831672386,-381.150136764174,-343.7892283596,-378.012021688054
-437.527758367276,-486.327623495383,-443.653821132783,-463.637361914989,-476.236064374051,-432.573834431301,-459.242457154608,-472.885084242795,-451.049616115265,-473.046425250567,-485.922395490616,-412.299791272931,-455.010562575892,-492.049957348985,-412.608154668967,-457.661809110508,-394.317468361367,-459.887692904729,-517.934569222644,-455.671519114744,-538.054031517062,-499.888616637,-517.274774068558,-611.002010381964,-491.022253938714,-788.097592667452,-614.850678486317,-845.33962829894,-936.194791292795,-922.560846989349,-1061.15478994653,-964.197525891645,-873.853832105072,-680.654338456092,-967.895529805277,-896.037018150034,-856.604621149718,-780.291908402265,-819.166379981974,-853.465458847601,-676.801630277653,-800.4242632656,-646.625108121951,-715.371947030793,-687.942822836481,-767.54987088136,-720.359389037198,-683.224797663221,-672.367155805048,-658.394396812688,-601.792180635456,-631.250334843651,-541.604087518848,-572.904017223439,-586.932050390436,-588.902099818069,-515.808766518449,-567.632270704711,-487.874218029572,-511.84815433097,-532.756499246438,-535.494001390537,-484.166533797066,-524.52296204568
-529.080982614088,-546.321606612775,-564.251426760131,-546.962119901451,-527.569329002961,-582.616906787222,-563.961472070187,-539.800606409497,-590.817841598922,-568.190857627249,-549.818206180347,-575.900050073147,-578.752661631191,-576.294645373426,-572.316182642141,-590.218519408888,-561.428631447247,-593.358438552211,-628.973031212833,-600.232664453199,-660.406648369407,-583.22878610115,-645.296068195791,-725.977419252911,-620.923477575344,-889.847986226255,-597.738999816666,-957.700801709183,-1003.74438720868,-1023.33085386649,-1081.49269471226,-1030.37391869,-946.496887163687,-662.394078351856,-1020.77135000942,-884.03306091921,-921.261021432318,-833.855016165254,-830.337358779833,-821.539577481547,-654.076345011051,-781.191755398883,-516.82417957195,-670.794465680566,-629.691771276147,-605.076998254627,-585.008169405946,-562.177168593802,-555.712664844761,-557.680553559211,-552.948453218343,-548.189706246396,-555.359131090144,-542.463292938197,-537.962835159838,-524.096146544573,-542.354483598309,-534.719587914457,-573.970016152784,-558.119658720098,-531.642351263523,-512.792814530417,-570.129966298981,-530.500486170337
-543.731110235877,-516.762275624664,-610.159157509739,-555.646910862568,-501.115279429228,-667.024184018908,-601.852206524954,-535.994547146668,-668.926015548129,-598.828881011299,-545.692808716213,-691.665314796994,-646.990566356338,-596.450396741161,-696.603608767702,-670.422336055462,-702.425942684924,-686.730754759488,-685.489765684048,-705.289753410637,-720.205885778986,-656.296849055375,-709.721150384787,-766.357584991856,-752.554699245228,-871.28202273569,-570.143982431918,-973.476985460798,-937.205929517909,-1010.34390501818,-979.36438698837,-942.624569673548,-953.761438581476,-550.327951402548,-978.995341497249,-741.634578513533,-844.443425496195,-826.516327449874,-720.578590003406,-701.177010346027,-511.226048560063,-679.67945942102,-305.012563065645,-504.610659382264,-510.106178292915,-200.731830747585,-251.16911133235,-252.745126694147,-263.480116607747,-286.971253445281,-334.947904465041,-309.482777731872,-425.295978939822,-368.257285596567,-347.284027320289,-323.608725000439,-441.473796400033,-371.564660965664,-543.039757562736,-485.51323714837,-418.004308952662,-372.911141053825,-550.357618569472,-425.989970305298
-531.679669058738,-499.194390075345,-598.911526256879,-553.084738868464,-500.551104796726,-657.680119724174,-600.957445035458,-539.645163206734,-676.108963622558,-610.280438012179,-558.868689510153,-706.623559120137,-666.955237900085,-614.044386995734,-725.35642532937,-701.437858538352,-732.760478505868,-723.473179378474,-721.37793788656,-739.562688023886,-749.822457462352,-684.397084169593,-731.607077911053,-788.409125445108,-823.199253025009,-836.550035573782,-581.299405158487,-960.62122196142,-869.141294704081,-993.883140695252,-919.885229455146,-865.524108977284,-1047.05442248244,-499.74941634798,-978.143073763855,-671.838460090119,-858.848814274604,-923.601673398174,-670.171070328457,-688.78739115622,-489.961527604181,-718.024456200499,-281.680711433365,-486.049362939693,-567.437677057381,-15.3877764191647,-132.134743323596,-128.528293164727,-165.985122833427,-205.551271923876,-228.074664144346,-240.730838891713,-338.992233068172,-290.914479784013,-280.557168540576,-272.898047649814,-371.718981311214,-321.835537048728,-479.440797756481,-429.048280981482,-379.564890592839,-334.847897816502,-501.096189385526,-389.84677059488
-585.898741763119,-600.448691124423,-618.836966778747,-635.148449889946,-626.68220146914,-644.750071501017,-653.663730874964,-643.639169170101,-699.40813426754,-693.949654893399,-683.496957162402,-699.191291585475,-721.036808300564,-722.035592555031,-739.395312605426,-772.839159411584,-734.333110936935,-788.994959550386,-831.942944961618,-796.148306164473,-855.972013893112,-748.65236156011,-827.394604446516,-905.373037242399,-889.875471458897,-941.002668467935,-704.126357154354,-1054.095707745,-952.604535389074,-1097.8870954491,-1048.4214381262,-962.368401783837,-1294.78218760527,-604.555513812423,-1142.69072429633,-807.119847651307,-1083.16449553798,-1188.60085029736,-812.125941092165,-873.168341429298,-679.762936677383,-982.375871193954,-502.553021749557,-723.209546683597,-872.875626634506,-254.451218299339,-432.057463206012,-358.99344739528,-433.018409401611,-489.207475486944,-391.915733553402,-494.459031770947,-434.177414356069,-450.339974383657,-483.844259992147,-507.544082007744,-462.569098883945,-517.654887376548,-504.577924276821,-516.894918881196,-524.93466011619,-520.718074630239,-537.306655313509,-541.729401001565
-676.912731107745,-750.510264867968,-667.447541108716,-756.187039799405,-796.757270418092,-658.193156636909,-740.506140371991,-781.990086889939,-744.356928539281,-806.782615189019,-843.817819076108,-706.038413907755,-790.761666051169,-856.518010455829,-765.236343202646,-862.348389676418,-742.280967420972,-871.1010387053,-969.035480985762,-867.644730271682,-992.136793349945,-827.911089083596,-962.668957642213,-1065.23061903465,-955.480447520052,-1112.20886919543,-843.48668358193,-1233.49850091343,-1128.71116360577,-1206.56913156039,-1276.88808914659,-1175.50086607938,-1582.46409220844,-722.954818671566,-1377.60346048379,-1041.58018322185,-1363.27360212957,-1478.11643779841,-1020.94277840099,-1103.6907032959,-908.437966642171,-1287.4488492787,-750.403532369653,-1015.26457843748,-1232.13470535357,-661.295595600663,-866.738671371739,-717.204252563129,-813.964547377004,-887.838563699536,-667.874843209883,-843.695402731813,-616.457809321077,-698.661269056456,-779.851901327684,-823.586075468527,-632.188991493054,-791.038448574908,-592.846133282678,-678.274158550011,-730.862085313005,-774.761003367262,-629.700389478131,-756.22986652131
-669.407696882996,-769.041156037521,-639.660106147414,-756.584586165658,-814.281816116574,-607.543798136617,-722.965554418152,-783.159510949206,-704.614969300375,-793.471436809213,-851.290389193961,-646.616790043207,-751.020462956301,-847.069769845315,-699.189836104824,-828.214986747762,-661.663875294446,-828.678001824004,-955.170715028459,-816.172668886024,-973.779252859716,-775.903739653264,-951.894824235349,-1064.09758063382,-921.051445172892,-1105.56945435744,-826.567204687177,-1303.40966881933,-1148.33014173042,-1110.38198270519,-1321.93139924107,-1241.02445874214,-1674.08901099237,-672.558949491924,-1410.44495786468,-1106.76658933636,-1409.42242850196,-1556.95859710178,-1046.62585910317,-1118.64201432695,-921.586948990847,-1332.31903626665,-781.053420275561,-1029.79906411218,-1356.89177504908,-889.352391296236,-997.356349231268,-876.520983632855,-938.427302782782,-1003.05814717252,-796.17917720924,-943.946106397006,-694.609314284884,-791.426793577183,-872.21204171295,-909.342786557672,-693.050071347641,-864.52397091337,-610.642543696554,-723.076188529546,-783.047632768613,-837.632727219497,-639.652914262457,-802.177584684189
-526.49348578728,-607.982296688997,-501.865129684199,-592.003921381751,-630.634537813551,-461.23265062904,-558.431967705122,-606.958398630553,-549.855409115382,-616.71171506445,-661.01050471176,-493.364612200519,-577.090177880466,-660.252180818784,-519.641785355665,-639.801897137068,-482.096883413578,-630.825224881827,-745.739724535365,-624.784339059218,-760.930577902609,-590.820253236608,-754.649237010488,-836.54763846336,-781.097948758108,-857.357349530371,-693.199135801459,-1133.44815792532,-885.074132049431,-848.418288302294,-1016.32776969843,-1008.94108497209,-1433.83609025483,-489.01868389458,-1104.44635900431,-860.530970693064,-1111.18049489948,-1306.86195024264,-822.233504680708,-812.8740311351,-668.302633191976,-1025.94891587088,-577.399876302246,-686.742065056271,-1142.22696253831,-844.010046267003,-741.377328543636,-756.681272674687,-733.419008392653,-747.76605641202,-705.49589943144,-723.975889260781,-612.863795445619,-668.484509724765,-692.716653524827,-695.848574219481,-588.046986470853,-674.938218149174,-514.817647967408,-592.234237470519,-626.842099433941,-649.480637438134,-523.189621702926,-630.466695495623
-347.336995615692,-383.915502770686,-342.199302115077,-377.769605248932,-379.043276856545,-313.852396809405,-360.536768237278,-373.856988995649,-378.606933254771,-397.649498986699,-408.546909058199,-341.129436471029,-383.402668316716,-423.075610869334,-352.479351765055,-426.526820285188,-327.808001151303,-418.995713992376,-483.754620141318,-440.104434007901,-508.213308542875,-436.9063406614,-536.887468979264,-540.172302364824,-669.604362865993,-548.164959902174,-628.715954521044,-804.655493366066,-478.654323110185,-647.225076542567,-497.953778599115,-623.525679369688,-967.783402430396,-323.3146906394,-605.644773751008,-426.772099711316,-640.963557719379,-827.311794350785,-490.002387553542,-309.917239699838,-323.064687317633,-571.375359248082,-299.673021877391,-234.95700716162,-724.044573418272,-591.359417683486,-332.427775999358,-475.298548262717,-383.513292646559,-345.942470840582,-484.267250439562,-373.374591563471,-446.174320860263,-433.538660247704,-396.828201273281,-355.080279182877,-403.140630138439,-374.40932451508,-375.981391951641,-389.48610811369,-377.06814574105,-355.69454012469,-364.179117083256,-377.103393635232
-208.303707994784,-198.349599182198,-226.922204569813,-208.481742354332,-174.154314073765,-226.363696354955,-218.443352612415,-183.461218622993,-260.641202326663,-229.610607811437,-203.592725816572,-250.6909428321,-245.511001494051,-232.993325453261,-265.710139609867,-278.453490617113,-255.297518922384,-287.222789958539,-284.330160277219,-338.872246078017,-330.259433314521,-379.163862307036,-411.383049490414,-322.120689693697,-646.274344681145,-335.477427387392,-673.926205817439,-476.46153571334,-143.861004868762,-577.36418621739,-32.3258782167096,-340.875751638102,-469.671224472315,-235.875221734585,-142.797426557921,-44.312099685019,-221.887891278582,-312.825287225555,-185.584268184952,172.777260277033,-60.1951331416465,-202.753438578156,-77.5837285035657,66.5001482895173,-302.640417310209,-206.756821222527,33.6762863372619,-146.786121991464,-49.214653964751,-4.26438634008991,-217.650093780398,-63.7692010262118,-258.309416827539,-185.156410777405,-122.091115585715,-58.1085049904567,-216.663468859899,-105.584654355093,-245.882324148236,-206.724410982437,-147.965131599613,-96.2223312027741,-229.946367102876,-153.536305802256
-108.694700372655,-70.5513680802262,-143.454833662515,-90.6386830143846,-36.2264167935591,-170.105358849444,-123.450722709181,-52.9989419549655,-182.108637774791,-115.277312310422,-59.8963006073806,-195.87285334672,-152.596303664158,-102.816498161499,-219.554030992473,-185.582823997593,-224.953567485392,-213.107310103554,-159.399264211803,-289.366154439743,-231.002822164885,-372.910940202185,-362.034808300925,-207.928483459938,-664.476547982228,-260.333746748677,-777.941851713809,-295.217488390187,-2.59864567559632,-554.523511278631,243.22807433078,-294.160051449368,-31.5021869337294,-237.240703754133,138.9878355055,126.027342944495,60.9511026107151,117.51050688941,29.1501423684178,420.420844563901,64.2789711241934,5.32928237298122,21.6200849290367,166.303441151892,-40.5450553266863,172.862040696767,265.784671236264,130.255610606188,185.399659585143,198.180439686394,22.3811636631096,139.299617758634,-81.1476912756003,13.7439876328146,77.1800202608656,125.17693102434,-61.1939857179776,73.8550095466392,-131.655259311985,-65.7145490005473,12.5988118717321,74.9122992332851,-123.897989339745,8.8399971906025
-45.2371561455336,-6.1513888471646,-87.8231142317358,-23.5386711447893,34.9869237741962,-135.226787187442,-68.8267569449345,12.9732187137848,-137.38019325556,-54.8921644407045,14.7292744188997,-172.134923280009,-105.284066314826,-39.976559966445,-205.55278693526,-145.543428626608,-231.463850025419,-190.392419823962,-114.412558975475,-291.108798005697,-209.1940184691,-425.489398384346,-375.492418213522,-198.144644696596,-705.54652497826,-345.540543553361,-941.307640652765,-384.584203331815,-89.1372676419131,-574.217431836967,339.332407025489,-424.336495425567,288.59786498907,-334.491043993929,191.151976694144,73.0883705465145,190.625138011604,360.844633130412,103.350524998777,327.637718587428,26.6628971248231,-5.72656451952081,-59.3996769675472,96.2353824759219,-119.785793526154,380.215404282327,291.113667675244,259.560112156991,253.268873873234,227.826986949289,158.638476622482,200.986620253228,44.2607573311652,113.040710868325,161.322994347329,177.948060528142,33.2355995991227,138.900803270237,-49.74748118947,16.5217052876645,84.5458847761996,139.548494639878,-50.3580937126269,87.2766342937635
0.175766023054183,26.1426907264268,-47.4618964569489,16.4270287880326,73.924105729511,-110.402813069069,-36.1022860572994,48.8708025475516,-107.525246452954,-21.646440079671,50.0962031429829,-163.410055504985,-80.3297305025798,-11.7860990837541,-208.428929501115,-131.559014838007,-254.669813632566,-195.676169608476,-106.836390174641,-313.55849834305,-217.452633662544,-505.421717762494,-396.895658061796,-240.899805773755,-704.239296024026,-522.655171500987,-1064.99183096994,-620.930682468759,-312.116715846958,-610.669592032784,314.834224347321,-535.278002752701,456.653060781359,-421.044899453422,157.859231268653,-106.613903103315,192.205023629221,350.973070236821,72.7829620203814,48.090571986707,-201.688650532633,-252.440118035642,-271.7658431463,-113.48144263326,-554.61477326964,395.026969751267,146.93283664761,253.84554158723,184.650284452641,132.479827767443,200.389058967813,154.217916326754,121.837387632454,139.848923664277,155.601603816421,149.141458385063,85.1109814382188,132.325348665715,14.5419863026263,58.6387355903036,103.58736417876,139.422545619094,7.12583710988726,107.799135244723
120.491910905343,147.146816992036,75.3025253846684,136.845446817444,198.40141575532,2.93375739668007,84.4627749250652,176.116622603067,12.1278014515549,102.817862488413,178.672137349195,-55.2284337355412,40.4595774327933,111.332093162551,-110.28490289309,-16.4280361779432,-176.091089045449,-92.7415956108512,16.6180780131512,-216.405973432839,-103.538199716859,-459.039289212323,-272.283752503422,-159.629095448388,-512.502182812342,-556.579570463302,-934.192515952934,-585.830789793894,-404.263256753541,-471.216017749334,281.639181716444,-399.298870481579,651.643488331019,-320.508030679161,329.334943368012,-254.293895272314,267.882280644893,312.510893311146,123.179468553439,-98.3612145660503,-503.761767962221,-374.050721542916,-417.40821223082,-286.468771930932,-881.905766356191,362.504658419696,63.8136726542889,265.030643833297,166.640816724031,107.435835247549,269.553741624475,169.358955066525,236.495664567447,223.105872841982,211.756348958995,193.168721772358,197.928970697786,202.187452892354,146.713108446067,167.821565884702,196.395738627653,216.732451547189,135.28641842739,201.892841590703
375.60307514965,424.92999995351,335.942260340573,404.06806234265,478.670118811705,258.911894015906,357.346500218385,459.50300046733,277.788454380432,382.382139636174,473.687924663466,207.702502277949,316.463682397502,399.819612183381,147.900875803319,265.898497135957,62.1070465923327,193.872544169193,330.539404082625,55.9879046000579,206.329230921089,-224.216494419837,49.5147480666733,165.460143070051,-129.959001676346,-288.978051160298,-520.845373697972,-89.8332470308855,-126.987866685733,-78.6439115509207,381.33736940605,128.704796017674,1105.08045383368,-29.3777566911042,759.130961955934,-154.155431619676,691.523102620457,555.484649010963,381.707717304861,60.2710771696723,-570.32329144158,56.8058199409456,-356.69399122041,-185.005552585328,-631.36347576331,427.155642639689,258.407346066018,424.758566330472,363.932466013463,328.836469825927,452.510258440727,397.136275499884,439.622065840124,446.582268827291,448.945344555732,434.723273699697,429.262422409776,449.500223501964,385.125214277016,409.75042105389,445.105220753032,471.671138228983,379.207944831319,458.166291649702
656.166843167402,729.84065179733,610.793308122733,701.474868566015,792.078272609163,529.961471200764,651.608820842556,770.721165433143,560.808855345424,685.404379593275,797.437449099292,485.543139055784,612.614319544367,720.655463604234,432.100560037129,578.891801382518,333.759911400823,521.830890663844,684.458852715695,362.095558038974,571.468406524434,69.9467527681547,418.568274051697,611.236096572063,287.864443889696,150.820969220923,-61.3993938311941,546.139864598056,433.133533608503,427.576117233717,602.34850729694,964.779310520765,1664.71129476621,204.382032888813,1165.86460822519,268.424632119862,1371.37848856186,953.869333755731,725.756175469897,401.539345046895,-198.508353252798,742.473445727965,-162.448662802647,143.056274193921,-49.6321681635343,605.923575590283,647.298223183182,685.598422591638,696.973900516211,706.462495882149,687.502262607886,742.140770675102,660.010631419728,718.904161662837,765.51886067406,775.258870064326,681.159991568061,765.643580446524,626.689261875041,678.255561264641,742.947422259669,793.212044685514,632.835869484575,762.417953816543
816.431540296332,900.361515655423,758.733895534552,874.106651100677,972.567666566297,676.187609212243,811.571064100568,949.911543295046,716.787283102115,859.127973822974,981.842276912241,638.834921746226,782.95400864407,911.135661828578,609.490825844567,775.960771255084,513.062665834891,733.04341275116,911.282035118137,588.449016062131,836.345427955526,329.204388852566,716.802070122967,970.313051231871,722.603173513244,552.662802374637,269.559780961044,1037.52712949566,944.310287999815,1057.60351217087,789.799543130981,1740.06634906824,1931.57281119535,156.453215045916,1420.83968165454,733.600004810249,1755.59338584457,1130.1268809929,990.647934222664,672.015806791502,418.802503459499,996.595589232077,49.2161944945482,413.348162444289,350.976792179263,823.667153889676,959.954464046397,904.732670377902,954.521843303928,991.542949795767,868.796484221177,985.593937478677,811.87815760323,901.778562506417,973.52759733125,1007.46038997041,836.251510118852,971.920503786805,760.77755825057,837.532008259542,928.586287609482,995.134723779756,773.84092862392,944.958603097497
855.530012505531,939.250059756148,793.388040564334,915.089518135585,1011.13042696568,716.639232649922,847.516888134438,992.970254488674,763.059049669916,912.183960223089,1025.60525505245,692.508840870049,842.875198208852,970.227865780399,701.933253656275,868.664878678989,619.098242410112,839.148815536577,1011.28845605967,769.957319702281,997.932207198416,591.868581125798,966.681043931052,1170.22410316512,1252.4366748415,873.777729495529,587.726230065675,1485.27594901831,1218.64290202433,1869.60699982765,903.669574745262,2047.39704285682,1783.91445865729,-2.90532804827417,1689.21416513038,915.868183043959,1457.31381971894,967.493750469438,1195.38912195609,745.125554244656,845.049223777743,797.093618216579,283.824670324423,502.521541557897,509.925212976289,1011.55160163608,1087.2911254856,1024.98781047451,1062.83592217293,1092.38710916902,972.687463618436,1069.95017018032,895.166339893541,979.627533491646,1038.04720643548,1077.00878500233,898.175536644007,1037.33870406989,800.67839252707,889.913982121703,980.644962726364,1045.83163680704,814.237484765994,989.425253398792
811.4714226111,881.209516854905,755.895254364752,858.277420750636,940.981544949393,693.150153647222,802.490832841871,932.554652934059,741.783868239094,874.625701905997,960.206871519384,684.704374534319,822.788481193887,928.192511943137,734.166938834011,875.165002709997,676.362665132644,869.916868115467,999.111401655389,892.269178766528,1056.28555612223,832.207744734184,1135.02799201881,1210.74389987896,1710.60100318452,1128.63524659797,1039.58499968079,1862.04046895492,1323.59211958118,2472.97280329479,1000.47479528825,1796.47962359384,1341.14054298561,124.977667414053,1872.56676240462,853.240954529934,766.857263764835,519.02537216888,1312.12237031117,668.906300303365,828.686859594404,575.473594369391,492.704231846532,467.528669944306,492.917958219481,1075.39822955565,1043.77942073307,1018.52497223131,1024.74380691299,1030.78714193201,973.645472297325,1018.95412686694,895.145130121907,956.423654260131,984.913868987192,1009.79912787697,877.136073319231,979.198643200756,774.76498976105,857.09235634143,921.572552938898,973.894348309722,785.372375296649,925.417908496829
617.836698534799,644.792301879369,577.485549144619,637.250049185972,689.969900114463,536.02062835647,604.279518304732,695.683647645386,573.896670062287,659.209819882523,706.116030954577,540.517462576432,636.484490450144,700.668097869687,619.667370736246,703.948448703646,603.202169669616,734.434958129132,780.517442798455,808.473397648582,904.945782660478,869.534204635142,1067.7423126854,1042.30505739804,1711.22732043406,1221.81866651524,1408.95407753898,1777.26769250538,1286.56213095381,2324.77255604138,985.436251033995,1230.11890088176,605.435161595478,493.368597467015,1564.34770961248,703.845293769767,199.165544488716,-212.874400858894,1093.21175084246,488.166032155796,464.94359988847,285.069626503436,449.12584600842,247.545764328804,178.796237849222,864.852839972,749.363129796755,776.710379727176,748.315707956663,731.655778724296,759.570501969168,741.555628746749,707.258220892069,730.053787140581,725.011173352376,725.379876159972,681.116467051511,709.333685984596,606.61335323608,647.831790650423,674.295246006706,701.885112158638,602.812622343024,672.807754567248
217.351700869139,179.18662416824,198.204290880748,201.638693225164,215.677441153924,189.494509650555,194.935282490167,235.827711872133,191.406688854435,214.68684565935,219.902024366718,202.064457520213,229.35851854884,234.967779982238,295.846194485704,303.402615585696,325.417643183607,364.358365174359,316.374829504369,442.913043206148,490.515874078864,564.604960162009,698.065730856079,643.910131079698,1075.43069501926,1055.07556233591,1280.73718470245,1101.77830962523,993.522916279166,1444.91102844364,686.86902349001,616.882599809679,-441.344757061967,588.136053537125,746.689780125378,384.976069040467,-218.482540029749,-1118.78439855246,441.414234174207,173.389359739141,-33.263754014943,-380.868957095724,62.7003552706091,-244.097279397356,-382.940476360776,338.232893889294,183.811823406086,257.211854213474,202.410274274934,166.980930984656,276.434265534937,193.126220371446,274.114982589106,244.304169546784,204.144489056101,181.179117041012,252.172662826024,185.384054541231,224.311051951998,202.555400255249,191.469353639439,186.666869185957,196.322494169744,180.317450351701
-263.479478131775,-357.234547277004,-259.22499162972,-309.564063989463,-325.855683554858,-225.357912826365,-287.549952902453,-290.655955456861,-274.342313722672,-296.218918270219,-329.903353395277,-211.695205058019,-250.055423158999,-300.780268192849,-119.40356988791,-177.593509673971,-63.2671370247282,-103.788805098478,-213.106719283526,-45.7532767198725,-23.6000162224576,44.5196313994379,203.469004053877,159.73525335195,128.867780891844,715.729369509063,631.497246829281,291.748222557394,526.733417431585,376.262369817931,182.591998548472,129.363037227743,-1494.74420414178,236.879821657686,-88.7376564618422,-122.361075033126,-687.773011251856,-1853.60288978566,-311.640480617217,-220.293293484769,-438.663004393586,-1154.15472195768,-335.542922840982,-735.889858241417,-806.230034137692,-306.243740005293,-417.304004271442,-352.837342237148,-399.282579688611,-438.675633042009,-310.642313059944,-417.689496924349,-261.433746752757,-330.390812115067,-390.549784401242,-424.394709881072,-269.154027862856,-406.805811409857,-258.393627152507,-325.744025809571,-367.018229802741,-394.155350081807,-297.217809446086,-385.665584154772
-564.828688441721,-684.359036731102,-537.631053131481,-625.361960846052,-663.038541457559,-469.248766926704,-572.477709421263,-607.315159489907,-553.64170858833,-596.672620135236,-657.972573200963,-459.572617496216,-534.684342861126,-615.47232348373,-383.782001940613,-470.700783782733,-325.352861553472,-397.613663205832,-516.947784463662,-364.936849711712,-348.035011678939,-344.957182535409,-108.67267854938,-160.524756847336,-496.344304012671,431.990715263065,-67.9335209824328,-136.61598115243,228.599363085865,-370.140001302337,-231.473005968404,-79.2461867331611,-1999.8768029064,-165.428596741554,-556.132580951589,-496.786617016872,-993.601554447412,-1980.18801893412,-767.925168308671,-503.134200527255,-492.051302259983,-1358.83408664853,-320.79652076381,-761.765035151599,-698.147843277252,-759.393971868235,-770.144722502378,-756.911587170955,-766.188061814624,-792.247635948085,-704.626742768348,-787.143132350454,-618.266426315937,-698.340719228601,-757.175829761556,-792.202715396121,-612.367324587845,-772.579186658408,-572.286438512693,-656.57573390446,-718.721070262477,-754.423222724555,-600.579036944658,-735.260771947301
-545.75056508548,-667.471316427137,-500.674696401941,-603.596890088019,-661.179355918587,-424.349425188894,-527.551015541467,-586.967650865375,-510.446276994837,-565.818927633632,-636.400402637347,-416.06533924231,-500.031973327536,-584.795890586227,-362.116130293549,-447.457034616921,-312.764725270336,-375.838586638059,-473.435703093072,-353.154057404181,-344.420827266039,-357.000537643745,-88.8370004736711,-203.217877191916,-447.539287580962,330.232270220598,-379.448714942243,-117.772281061395,210.580311080531,-646.789217453961,-457.276308817032,-48.9059435441577,-1695.24940674572,-299.096429323651,-671.586775324764,-549.624951173748,-843.595953582012,-1293.37010821413,-865.233924609864,-553.669676758737,-230.924001810027,-797.610912100339,83.4444641923884,-290.049211038384,-27.1877134088208,-830.089320728851,-810.093015896054,-798.878995936983,-796.171556767805,-818.991072794944,-730.56392404643,-805.099415169064,-622.06819854067,-709.29007054221,-769.042355356223,-810.119232828974,-618.426416153644,-779.96717723939,-552.279425693814,-645.70014699336,-720.282303587767,-765.571335258661,-569.8197395918,-729.519166886012
-312.902559246433,-422.980669455107,-264.512919149537,-359.873982087975,-429.357421898443,-205.726134404925,-281.948347576471,-353.550155529313,-269.45768455851,-330.067159989131,-394.598477081928,-195.225526610405,-268.25402041274,-344.409378889267,-151.388013579744,-227.321971983914,-115.470091743474,-155.220733686673,-230.638118376983,-113.010621954681,-142.051166743061,-60.7369388390419,129.742270368163,-82.6047666732729,41.8715693771681,337.728870916823,-240.599511643893,66.1696403938401,212.09137474808,-616.736489661347,-641.649867842318,-103.11525501181,-895.522387803794,-200.55461652908,-609.376137578461,-496.429359426036,-489.972239650975,-67.1690586784161,-706.826839358053,-410.460171134538,-56.0188304214155,78.6390151924191,513.368006256447,267.337169639415,854.507954045454,-528.852329902539,-624.367928290626,-530.481034381617,-572.431031816569,-627.846909282513,-449.363183989087,-576.867124200182,-344.208252481206,-449.290020566555,-528.141394730674,-585.709286457292,-359.223642756127,-533.604752798669,-291.860958012045,-390.153284472792,-468.362267310465,-528.000327741928,-312.486026455491,-476.751313441515
-45.5693615419287,-131.971221618869,-12.7030101193935,-83.456530538867,-146.756670671146,19.3340891139319,-24.3574832088236,-86.1453196086113,-20.9520573716119,-68.6226237557037,-119.466262072205,24.5047418542381,-19.5574485223729,-78.8533880488834,72.4550580418949,10.4413409263894,93.1157653825221,72.7279044558382,10.1566164807045,153.330329650666,66.2616532957075,306.392400980683,336.358615381512,46.1852310865394,532.595430469929,340.733091869129,143.775064202512,188.970979405317,68.6256016759371,-458.213611355837,-769.480313769704,-431.930552623472,-73.9007220867343,35.4736036037795,-504.153972791672,-463.170742746655,-347.049959495835,1114.41710793109,-335.815447442995,-143.26809079638,-97.0803775538664,794.52002752233,792.522408765013,645.45543490407,1498.92412427583,-19.8609918755403,-290.300852758088,-102.301785406559,-210.96271960849,-319.60450811617,-36.9471548175174,-239.975099911239,29.8968285307509,-83.2792848971368,-183.702854542948,-258.441738803597,-10.1583953796634,-200.446729231031,18.8590570260867,-63.3870332550388,-135.68790982234,-203.364241199568,-10.9377655151034,-154.019886405641
180.979336795395,125.503192635155,193.810698752154,149.434508098862,104.35725022501,207.971995814302,188.79223312152,146.353983996604,178.955222915418,155.709915055856,117.728788906959,197.119536589056,186.556135383603,148.402349644682,248.381540665874,207.216921794132,262.003121106057,250.84721699677,194.246385575238,360.950995654157,226.767267865022,612.695805177632,467.501640379895,140.657748813245,859.523310505418,322.351655225311,513.733125448126,284.657042504468,-97.1375197770248,-180.039774456311,-610.114691963062,-805.377410635036,577.73887585711,347.156866418398,-419.676036215434,-266.196473541259,-336.993301932647,1803.43158449079,106.733286347365,215.632831085499,11.1891406239273,1226.29528826711,1012.07261794954,862.324581136347,1683.67719634564,441.711593891559,94.3399330595518,304.226427473256,165.817471584055,29.7646725467467,332.549608315107,104.974306903109,352.93981507409,256.763617290429,155.774413136433,78.5121295435878,294.908520394063,117.75432594046,278.261068627028,230.493905713051,170.031529713417,107.773453442956,244.401703967452,142.245229634488
333.975231727209,306.199549212694,345.935612740339,311.79742982613,281.670655370905,362.855483195179,351.383275170571,310.43459346873,338.019538097207,325.270399304321,290.759644673613,344.638444478581,346.719226556049,320.539294629142,395.363882318606,367.151807807146,424.743918664298,406.845308812859,341.14724947061,528.39347588236,363.356181667534,864.384781498706,559.643530846121,221.316278015881,1070.22840984318,332.8746058345,717.388370229651,489.879995453203,-125.921500702769,210.197151337089,-83.7303604280969,-879.706652358015,1058.01718285684,605.211098554664,-263.358865942693,188.610997948825,-56.2666625302984,1938.90348348023,406.866694350775,628.558936116853,502.855917448507,1470.69344224349,1244.06882262886,958.504689789056,1530.50057928737,634.196288992083,364.286083528435,512.506438803753,402.399020635076,290.693834147294,510.921873012124,337.554141677746,513.0298664685,448.201939165716,371.721808363817,311.239428893289,463.096706172107,331.57187204152,432.050776496531,413.864473327062,365.555001440055,316.071117739802,404.293317814597,340.724586256568
354.113447577571,337.753798737649,390.053414646373,343.966806371527,315.121155986868,428.399703467632,404.508406360124,341.00965627764,409.135829331456,381.007520686242,338.361887990122,429.996525296238,415.045189090223,382.002042125038,489.239521982218,452.347983040689,557.047881853822,511.046920905714,419.479440961747,637.267458307872,446.405067680117,1027.90969081466,596.467710690025,287.306324433462,1118.50883350526,384.592666139437,714.919969894291,739.500782641989,25.3318146653813,486.978896904764,589.785014537165,-577.691078433485,1349.79269357992,681.782398943542,106.600613552758,705.114436941555,605.339242606066,1760.28482686408,543.840294936418,1002.53440137671,1125.21023106876,1620.3653045375,1425.15941592463,981.431817377449,1302.4435158269,505.211429790674,379.664712723142,439.264961044129,386.738665452254,323.328708892763,431.590581148899,344.28009497755,446.320501401015,409.460876394909,364.299186919905,322.087934925996,432.751564647678,339.715796270174,418.998528732975,408.739731062212,367.028548878381,323.616504391135,405.374426461281,353.03927267577
239.514894173042,214.001769568475,305.090454524554,240.812182962721,198.89658152467,371.342628082075,326.64620549724,237.976743606674,356.601008090768,305.012042746207,250.53619319677,407.99123849711,365.912275555476,315.658203075801,481.04280222404,423.871976753456,584.073613327444,500.858171084928,394.739977329439,617.902514001209,424.619782141081,987.267967418918,516.228188660716,314.691451237177,905.050423481749,396.662724565639,484.10116990027,777.370266108647,279.647976949012,406.334255051264,1077.31650823902,-67.2534974282542,1486.48926411525,524.606095268011,548.226651618615,1044.34470562188,1316.0025552694,1602.17797640541,573.867155653472,1210.74026487121,1552.64650923464,1678.34508054999,1483.25320050164,1017.84489725361,1132.20317099364,173.763868292792,159.368000343437,161.768234165945,158.562197978849,126.42481204596,171.297049820444,143.484769457453,213.365363660981,191.230780189293,165.960527124933,127.64070227554,238.054902879407,150.252080963947,254.703994024205,232.789152080964,188.753274633746,142.044080874517,256.344319215578,185.801172245112
114.680946685948,84.3402234930748,191.924585232501,131.737390260519,79.099635395703,276.627780191326,226.993069285257,138.589783921225,265.804184894383,210.516660538039,158.732076099023,332.821145009516,284.081160748487,233.783588470697,400.313420630073,341.453436851136,501.933566811182,409.716462831471,339.222828277873,478.669720302922,346.879062564975,725.640960385619,349.177040548741,324.008074808879,522.012203817301,307.861070557991,85.2859830367141,548.898281881871,494.884757977795,114.931652606669,1183.34807555078,508.908181831133,1670.47461091861,199.494860231019,742.920277466968,1181.85651488914,1790.88714639687,1751.13446987714,449.693460599901,1218.39023168314,1783.18205063526,1639.46580578954,1488.39567121434,1080.82626031094,1048.27584178996,-114.679145065343,-57.2755665853876,-84.3745660402568,-55.4802877186594,-72.1622626674777,-56.7393972736078,-48.0399422592949,5.97979285990828,-7.59686363282943,-17.975070629575,-50.6862986688262,46.9561443114449,-30.5015403613407,88.333627192856,58.1915252994545,14.676257422618,-27.2451871824493,101.790755106204,24.4546477246334
153.80303674369,156.676738259539,214.791778593796,194.249816326903,161.276467491439,288.441625619895,268.611831743417,219.504986700128,294.043126945381,269.137062293112,252.568607303212,333.509642720207,316.792627893678,309.692043477721,363.521946603616,348.24973996924,412.228876171501,374.615098748176,401.389531480127,353.856253305901,355.023908242276,404.268572683097,233.290864666856,404.484805583219,173.988917011212,203.752763523143,-300.499549922736,284.935004675455,589.056733064449,24.2022107317968,976.625884484755,1117.24980567459,2114.25300320433,-45.9789027355714,694.953289595355,1274.60607879923,2119.74652111702,2331.61555770494,278.718129821984,1130.09389794879,1969.71864508195,1615.31928750885,1587.78748554822,1154.26335666226,1157.91968687457,-86.7465468161425,42.2001877971401,-30.5276250002236,29.6617599517982,37.1224949506221,-15.2405229680913,49.489628909107,33.6517442232158,44.3759821911993,62.9608122099004,60.5851518927014,70.7810181498484,61.8444843347449,108.774347485959,102.445312278494,84.0315472065676,71.5940889624631,130.612362999219,105.542183035108
416.097437860524,482.291918094587,444.796824689579,480.50834435833,499.910678717333,469.962063536341,510.625003472136,520.374352413313,504.545064981392,537.768374218098,579.337079793332,484.543105715275,529.55679333372,596.673851711234,458.983814735907,524.375078832061,422.028810299501,487.034147720937,640.347702892708,368.859414203,522.993660929167,205.395161043301,257.115398405333,604.942911989572,-43.8678920620357,191.599280116631,-506.437481838726,109.177394488745,585.043614758166,298.727471924938,720.822775992335,1667.00482583517,2733.004137854,50.451152086064,729.423352367731,1443.65656026813,2425.7772861189,3141.08335527384,379.340530376873,1087.02049591238,2101.58799253512,1766.53889085737,1770.59822874146,1306.48260374931,1508.65020516245,298.683773335131,508.407377560085,363.277899996452,465.964214565127,509.692914558253,338.638104052365,487.378704307993,339.064525638057,396.414260236706,456.931549757976,498.841725554991,366.583984526653,469.735139609491,370.717596380987,417.969299713735,448.582460185121,480.601655478073,400.15090288208,472.237432982742
772.12436261042,884.651864291891,780.135918178461,851.144579419105,913.941868511922,749.828067620751,843.160662628619,890.201712035551,804.711902407849,890.090738232958,971.69589400933,739.481623913112,836.44973348934,955.112190947414,668.685491031979,799.118337942891,561.554106745099,706.242956982217,945.100654698356,532.443774457881,777.620428894706,220.0312986321,399.322736361734,846.431617550261,-41.4299576214122,233.801227655878,-381.237087102399,-4.00186741883053,535.111666896494,828.39050927991,669.598991450575,1995.80976016081,3152.63208751944,443.598420380601,1009.49879696537,1664.40940027906,2570.73574646504,3586.39977451117,807.001533507941,1169.51299881907,2062.13582771333,1997.31395400947,1803.16750206507,1542.75927213336,1724.56196103945,736.570571445338,1012.28555998877,810.338040424109,951.621299967116,1030.22365437498,764.975882814202,980.445536270785,729.874921012009,823.347868921688,915.09013522383,983.696629281565,752.254486632425,936.454193950264,731.065473508145,819.382182852799,887.185083455956,948.735941238372,767.3613469066,905.395398753772
1016.56872191903,1125.93878529194,1032.9076576419,1094.22673745074,1153.02825584564,987.653351976924,1080.8412949311,1120.11919335107,1046.62934750826,1131.12997224879,1205.39009214162,981.401199208409,1077.13547852696,1183.5498953548,900.935447092376,1029.52709872408,780.83899788734,928.572117240426,1147.56026351784,772.253738328518,993.301058018367,457.509094384354,615.613567757714,1000.39768129067,332.898668277415,253.976975708513,200.407944832646,93.6919512096592,457.798481230413,1480.05541075997,854.051898555346,2047.96652027362,3050.59435055603,800.401017289592,1389.24288765932,1802.24709017352,2416.21798062284,3089.44332707183,1235.55576788207,1286.96044815443,1829.74442833387,1901.57471107504,1443.1193229094,1661.66094733524,1301.89765773524,877.221423008787,1178.37988189175,975.717093716727,1125.91979872302,1227.70433482029,962.190725671179,1182.2158871625,948.366563191737,1031.04151920649,1123.2802320968,1189.74376199405,977.047265132816,1156.79157307395,977.172519299149,1055.81982267102,1116.80905595751,1174.39069133035,1015.02192715204,1131.37088230327
1046.70288700512,1118.39341752735,1093.12239313508,1112.64947442532,1134.63609100269,1076.00016160686,1124.6507778109,1126.55654448716,1140.57332178859,1169.34721660466,1202.56180912007,1108.92061152692,1156.3874069898,1205.53387442807,1061.72765894048,1134.47391318201,983.106135789604,1078.01323829922,1191.47592027266,1003.93837082071,1115.01758378676,827.958080075649,875.7109409009,1046.25389404687,1007.94439362601,340.870915351303,1093.42019394163,604.628158179817,438.620815822674,2089.46915262668,1124.95135777213,1918.72716155221,2420.85081800829,942.002693182847,1705.98569350652,1749.71532769458,2013.4588985017,1809.02299577104,1450.49665093751,1252.11404033394,1417.09783580646,1310.72959795939,702.227860933326,1460.01217619893,539.809774358407,688.633609296395,981.18287265419,816.264832403034,949.522825936127,1058.32781767739,860.743012417884,1038.94208988712,905.041486917444,947.746508247423,1015.28670508276,1066.8395135005,953.817000224288,1068.01307867781,1005.07043486816,1036.30298313364,1062.03980338811,1091.88568912301,1039.34822412308,1078.39103239067
927.14843684964,968.482315515401,1001.79851713284,987.461058440895,980.577054813837,1012.99718694285,1027.46471967879,998.682778161668,1094.9260422614,1073.34651222274,1067.51371376973,1097.85021314768,1105.51063311132,1108.35334985711,1113.73542222791,1139.14848133908,1091.59959629876,1139.51263826676,1160.79886970432,1169.0643637044,1183.92214442056,1164.38199688436,1140.69971408825,1103.72331321946,1636.57825720368,677.746023327822,1887.53850120112,1395.90261698814,709.025173733411,2510.22591298167,1436.21857783065,1751.50736811706,1586.29559357489,1062.94909137864,1943.07977182021,1602.30776900164,1467.73536566566,648.318180983289,1537.83944221715,1139.39852411238,833.719336990439,666.038192494186,-106.567236044841,968.158974652015,387.702987618628,428.633115561789,711.685765595421,573.317903518175,691.994754807388,794.589236801832,647.328838226577,794.849099610956,725.255640161374,748.944970694276,795.609307364661,837.671557893446,795.08581977858,859.780126552927,877.14140332852,872.571003502256,877.233425809861,883.080229064629,909.194422650602,900.457443458515
761.672445261611,798.870369687954,840.202885207581,824.512911620962,808.13467310714,857.051579524252,874.085203082572,837.78142474986,954.49154535227,930.541474444293,907.068505703561,974.914005369271,979.391045639403,975.734016853388,1054.88202793652,1074.52893699296,1072.25376721343,1111.32628069917,1109.82516081678,1216.0398902494,1214.74896907575,1328.44978875081,1323.97619296518,1211.52812845304,1930.57057941926,1187.10898718716,2293.16819541649,2031.25527509138,1268.79116030738,2677.78947539822,1793.80327657875,1581.20761935039,913.752482686093,1332.56406210734,2037.99226563753,1494.26445467493,864.874892626058,211.227164934651,1540.43355710528,1179.54745832508,197.87751398302,414.660928720308,-671.408388397424,322.36108653273,978.841554883474,304.829854114352,574.31795607382,444.272060591148,552.501753843215,642.417459206863,500.128370242267,642.81436211241,559.425163002286,593.687055273098,639.018888064269,678.508236763149,631.488686354155,694.887104591085,701.325664496346,697.157134341616,705.2063944997,708.793088480908,732.760994667312,736.399857765531
555.83225077487,596.917976897954,618.280519790963,615.43226257399,591.982692591286,632.538434872526,662.956038241185,624.167207512094,730.164631010824,721.615870814492,691.91696093243,757.44627818374,766.02583393352,772.789305606684,872.847956239961,902.318954570549,913.36027718332,956.749867167558,959.422068578639,1092.39187500175,1111.07384890948,1280.42137843288,1296.90856801927,1186.5083102955,1833.61371633302,1465.37508519385,2314.1456329529,2167.08146615485,1614.75611032887,2485.12633273417,1958.96805865823,1249.91690548166,460.971265354139,1567.01818204233,1813.4604037759,1279.08067380663,249.66242800925,178.943679343006,1332.95714991172,1244.70400776882,-387.114805301088,356.769296689956,-998.18671258469,-452.566522533033,1395.50099741774,284.136557931088,479.337687883637,379.262310409142,453.359239787246,520.96817358047,402.258127269417,512.76488861512,418.690938453213,455.868565531763,495.274440736305,527.358071158568,470.441119106137,528.055148969816,503.794773845427,513.16915148902,520.46929442882,531.494414372079,529.861537968064,551.541662683392
290.804828698374,323.321453582122,344.232171045794,336.654310524929,298.361041050812,362.166557541658,385.262118586099,328.708674733028,448.068404077877,426.607068965795,383.281154922821,481.46551963443,472.725036456841,472.578620964547,595.243126146081,613.357246805456,655.372653994714,676.366454341025,656.353772203357,819.090635271549,813.514686414481,1066.22007904408,1019.25843498995,885.917618368033,1448.29157633811,1266.92158554621,2057.87756745635,1822.7442369633,1342.71951173901,1894.19054706479,1669.90379309216,638.009482905985,63.0918866569147,1515.79753628213,1298.74456601399,772.359195922434,-342.709210471757,10.8930469118179,907.001164182885,1009.5271786788,-918.497841496221,124.969216115867,-1253.09141278978,-1258.76069333245,1174.82310251017,232.089821995233,276.979003803433,246.017618841435,258.941140327145,286.700807029464,259.314214394082,278.707159679642,251.122312703549,261.205014388038,264.969423296444,274.748613280589,272.754687545436,273.614127335569,278.945651846573,284.365194451018,267.707678799145,269.182605976635,293.654284888709,285.112795061538
20.4185819128951,28.2248655169456,80.0033687744661,45.429780611269,-14.2089618734294,110.454660043049,101.104646607063,16.209260645855,176.400472632435,117.088841064304,49.0930313402073,213.405398311442,174.010959120047,144.407840144888,305.451977198346,287.191104480835,380.263911722998,351.211843201842,284.954259712107,492.643214576985,415.940103991835,756.917741750641,604.468798352552,424.136177272053,950.845992614287,776.185193471396,1606.43426095382,1251.74448998316,684.710347653558,1136.77931657119,1053.01065168437,-55.4738942174906,-339.917347449148,1184.51428019998,784.39175037934,161.066459134228,-762.774688282286,-354.849528892206,466.253938212332,484.146206790096,-1250.60951384187,-157.812413247297,-1420.75438567234,-1687.34583117133,788.032230556054,81.2731303317693,-20.4428443469866,24.4745049661067,-19.0645155073907,-39.0051471294325,48.277848269055,-32.1089526402044,52.9970670718459,22.6518530814371,-23.982283054695,-46.9669360559095,47.4573850068167,-31.4723050953278,57.315249995076,38.5489240353046,-12.7859126493916,-44.9624003388708,59.9832740219675,-15.7486489928265
-197.568503452439,-224.782542051248,-130.914175224378,-199.833619054869,-285.639254560508,-80.3695868831022,-134.153499017187,-244.34711905415,-44.5734426208592,-139.811205249845,-234.160459105419,-8.83384147268494,-74.552955939604,-140.721048796596,62.802883380624,0.147047135864026,140.694704027928,57.5342045508274,-50.6499991484736,189.880021928249,46.3156268912916,423.43903843136,199.648926985774,-11.1120905172838,507.663522832729,268.546455715721,1087.24267816283,649.739957394689,77.659748678965,505.164009601903,430.269543407474,-504.848951892301,-700.904968097321,752.330058969312,397.013222710084,-252.679506151267,-870.631627909172,-735.542441874248,161.859430447467,-62.5315175405675,-1175.37098267182,-260.559516913544,-1366.92080932259,-1438.17622498695,566.237941649856,-153.864045661307,-318.31064807848,-227.806495481794,-299.878220772009,-350.225317387395,-195.672336688381,-326.362870636106,-148.742095331058,-214.348797638256,-296.748569976836,-344.215886742561,-172.242532276882,-311.377676556613,-133.302554815804,-183.546446649404,-262.290532743021,-332.044301893326,-138.875867863141,-278.521340881757
-344.373871190123,-402.367533231077,-272.723445764955,-374.170000450567,-481.763141899637,-204.462648522126,-297.96657295968,-426.211958926668,-199.85768963905,-321.533403790403,-436.66540892676,-163.297935496846,-249.788770673869,-346.586089163688,-106.296915356979,-208.62743993429,-32.8149431446482,-161.223423446401,-296.509994643823,-38.6074825322429,-227.716922954683,160.101125344712,-97.8559968176121,-336.283251963591,206.816786328734,-150.447695661874,681.31518952493,117.924887862406,-350.139052239726,84.2991625768098,-72.636299711149,-651.920305916875,-1011.1722391711,393.66919144362,23.400308940709,-488.8649128354,-804.535424652641,-1038.74706493848,-29.1797473034174,-470.462919030736,-854.625608454298,-339.399426220413,-1123.74557530488,-840.794927908289,331.510636539904,-401.608583136037,-545.56803379329,-446.76611653307,-519.462742042789,-569.371937853311,-405.264212072496,-542.210802435484,-309.827460341938,-407.381318809811,-502.749203659287,-554.37749633063,-340.689579985805,-515.008621564473,-269.536431166017,-348.908974115021,-445.58029519583,-534.800099203668,-280.27444616317,-463.824723287074
-390.153126208479,-457.715154010396,-309.957221062302,-436.442624998358,-546.657249200731,-240.172639970784,-353.083540071512,-490.977676170872,-251.942876345537,-387.916742634036,-515.87951824341,-207.43442404506,-314.101372477134,-427.474773850224,-168.511952209266,-294.011883543093,-102.754350454397,-257.910653854405,-404.155955485453,-138.34351470781,-359.990048275066,45.2992503122546,-231.357370197856,-510.068212196735,54.4445302388688,-415.227956879653,482.88658343613,-220.667826200079,-619.949799067203,-181.558973977838,-481.425391942099,-666.33056615006,-1244.88165684573,204.831862408982,-345.886005901993,-721.507624517569,-845.630738001646,-1181.83704128128,-155.41183375129,-732.931523029688,-692.713891961894,-550.221907134952,-868.186009772663,-455.088751686521,39.3858962536207,-562.208856698165,-639.344282781933,-556.506841156199,-610.94111047283,-639.07550303319,-489.950149273712,-618.94493310379,-366.083200020905,-486.2358116559,-580.506866827172,-622.775941777866,-395.222371197203,-581.91153221605,-305.161841857619,-400.480328931987,-507.503125488355,-597.248175730638,-319.963556803768,-524.819521588208
-329.26631743271,-383.158842609954,-244.882548597249,-377.747808199841,-474.446826810582,-187.538943430862,-294.036328971142,-432.301423517113,-199.533678931968,-329.806382823009,-461.159761489167,-148.850628506462,-267.033658525559,-378.12073273781,-133.246866570786,-255.962483267682,-79.8714242534449,-234.436999086494,-371.147604035093,-119.536648086364,-348.30650113788,53.7268136452264,-227.720323213015,-513.330014647127,7.25316045839539,-461.463115544977,437.001726347932,-291.09091611375,-661.524243438136,-345.828080824571,-777.749832534403,-628.259557540987,-1313.73019651767,167.716324607848,-610.757521830359,-905.314913392404,-1014.83758125278,-1060.65046653122,-231.051980383579,-860.396387945876,-751.562799762394,-644.320708232091,-678.267392123362,-338.125683964401,-61.2651827238628,-576.813285795273,-571.021977768255,-515.566276807103,-546.21112172272,-551.397698178637,-424.979861679364,-535.767453650138,-307.726173850567,-420.746872973317,-507.313918967178,-535.790930902527,-329.666135384423,-498.735429173831,-238.556531407365,-329.481824190193,-431.184822342109,-513.945219964088,-253.805007670487,-450.395710137842
-253.161476790189,-284.398445641256,-177.371369015838,-295.466508505435,-380.660133048673,-129.770615545275,-218.185254911822,-350.312310269516,-140.201305799911,-251.918214572944,-378.605915159606,-95.7958203386356,-205.106622477773,-300.449241257763,-97.7654280510098,-203.283409964817,-55.9277959400287,-191.793110736953,-307.621198675009,-93.2132370093364,-296.894476641137,72.2825304015864,-211.144896808073,-433.455614182844,-4.99273809256325,-368.937647245582,427.083235614726,-209.594519123985,-479.938982294822,-452.429939311626,-925.807062918397,-515.717980479561,-1224.36020253898,168.119965812829,-802.951204024978,-876.36271891697,-1072.75134778247,-755.389874088613,-298.390974578415,-869.789292920844,-712.915144785405,-410.364914209866,-521.925851567481,-174.99152748157,87.044207947029,-477.270336618976,-414.228212662142,-392.40185354794,-405.472206449094,-401.132801984608,-312.383647790389,-390.310960488608,-227.942586957078,-307.223902796463,-379.142945019237,-393.126956426682,-243.58898435532,-368.518678454137,-165.669987309534,-240.379677664173,-318.330180444709,-389.721247820026,-177.032924406833,-340.840688049939
-270.430444717335,-283.544821422162,-206.158867378488,-305.231349000545,-384.945827560085,-157.365239853416,-238.388227985701,-360.522999648526,-175.686132384817,-273.564686064349,-392.01573115763,-144.210050435806,-234.985578096137,-314.450389028209,-151.583391924175,-249.22694132778,-113.073021211416,-234.756101441292,-340.532973012837,-158.061956238101,-330.914255242527,17.1888966161445,-285.14137387393,-416.05737585881,-64.5161805758092,-309.634791206557,346.26132800941,-209.034925403299,-294.81344910366,-559.814679578529,-952.043169965378,-427.338811900997,-1168.12465011224,86.2119894390349,-1025.22120470875,-676.155491665442,-960.000685541703,-575.380329833559,-404.88977952859,-852.365498604412,-427.64661245598,-160.507383228102,-406.601098814603,75.9308632509087,179.897997427984,-357.049089173763,-298.034880141484,-308.306679518611,-315.508284483275,-313.136567143705,-272.362718092347,-317.577062439104,-226.312944919939,-273.797956137938,-326.621717346315,-329.7544587667,-242.813641042929,-317.00857902016,-182.194932179306,-240.862969858535,-293.575083977328,-348.817647345788,-191.07413623689,-317.428232931063
-388.000913458273,-392.199354218556,-327.320960707405,-417.92799218517,-492.72414886669,-271.438327260127,-362.625123405003,-474.686433909344,-304.707140159719,-398.9963190021,-510.72482257409,-279.052687097508,-365.616544208374,-439.099503776034,-286.778499997399,-392.692788281949,-243.734838133047,-375.527177233114,-487.549193422575,-309.890860895416,-472.912316000421,-116.640531452814,-454.877014513026,-528.133845030573,-229.925262542554,-366.744171616548,128.108895004972,-423.678849001153,-322.433719861414,-727.00696941727,-928.502529148879,-558.905230176883,-1333.59297045351,-103.148099877589,-1275.79368057861,-536.199226156828,-944.939047615714,-752.377251631985,-558.838218696347,-908.033593181229,-135.546804281076,-316.401720808547,-333.685288295427,152.499351518823,-54.8209362916996,-304.690350725803,-301.738662241165,-323.831593557883,-338.293885717758,-338.002938844111,-329.363661473853,-361.336973795795,-312.340846084916,-345.491347175844,-387.33129497197,-385.229787412551,-336.078965119607,-378.434067586697,-288.176547688652,-336.113906177024,-377.905675622421,-420.636329734832,-298.186398698176,-397.742801132526
-545.327704530818,-551.280928435021,-486.686631777341,-574.379179253694,-650.437931740863,-423.48214264986,-531.024992702427,-638.423130468378,-471.882366117516,-567.777770150539,-677.638888005851,-442.588412711605,-540.752712877909,-621.799177420685,-456.196026757788,-575.960851629604,-403.567976764469,-570.990777472217,-693.978515483719,-501.862549309962,-674.792897905311,-310.683902926503,-683.56028290009,-740.444162533721,-509.821864342256,-522.087980444612,-198.919473862841,-805.002772960399,-554.157103263186,-1002.68435582912,-934.699372915784,-945.533207536114,-1678.91437293574,-299.233435540896,-1516.82544337837,-597.177101910896,-1190.28651757298,-1185.06837428149,-773.784720810979,-1016.27410564458,-100.026653738598,-783.876091353772,-235.108248726234,-25.1745016809815,-540.485206761596,-365.56403522812,-429.201255290786,-432.321704374699,-460.944168253513,-462.663694402357,-453.888045100203,-490.726162879589,-447.273608417998,-481.13473033402,-524.187559732728,-521.285429358797,-477.405618220603,-519.38615501117,-434.461587271943,-479.714838446311,-522.704195916398,-562.951832610224,-445.56825865981,-535.078877709799
-687.049430371166,-702.453658007136,-634.225799768744,-718.869675054601,-802.945720756532,-569.403103588411,-686.33602030882,-793.223038622156,-628.966090566466,-729.154635142409,-837.948968096699,-594.334381438687,-702.229514574738,-799.093578913617,-624.478141072764,-755.711294223865,-566.616155839834,-765.549366729465,-897.669976998693,-703.607105721872,-881.853159915698,-547.092327657161,-928.303042163116,-969.499699392216,-885.912220831006,-716.338937983669,-532.445350738943,-1219.80677905151,-815.083818556347,-1409.83356259297,-1003.72223127312,-1377.61355335165,-1964.76041396033,-382.776993530925,-1756.68337363846,-786.533990871446,-1452.60036474439,-1574.01043444046,-1062.04169431433,-1086.62558185982,-308.626189781766,-1147.9622673236,-125.324311211988,-277.05971831388,-1010.92100162285,-526.677965275604,-619.691629806026,-593.745585083674,-629.571512216128,-638.140718066137,-611.508487190303,-653.99692240723,-594.635928629265,-638.863925118871,-681.229605567745,-678.915684717055,-624.711541437619,-681.695608272057,-574.175082960874,-622.743144297141,-671.171770582621,-713.160439208812,-586.365235638714,-679.972203653932
-757.439825315782,-778.892266740149,-705.807841222638,-791.516063030937,-876.025088179911,-651.053021170066,-765.799561410121,-871.365516781945,-712.07450555687,-818.995062600662,-920.937706862738,-678.228916460536,-788.928414953775,-893.605343498878,-734.198672175089,-870.359918089871,-689.440240118173,-883.646737031044,-1014.45831223448,-866.205111250021,-1018.24928337386,-778.318178583554,-1115.97703528502,-1102.14985745022,-1321.57618598606,-853.857017922974,-816.349698390119,-1566.65024663009,-951.420694405699,-1882.9243025694,-1075.59802844906,-1594.98600773903,-1990.61782631345,-371.559487626255,-1945.78061001814,-939.531604437024,-1412.60698408508,-1709.46504403522,-1338.71747771713,-1081.70364390062,-558.155926285443,-1245.49824392446,-128.929229045409,-476.522165968266,-1300.17428026738,-705.123869992166,-760.796220397072,-729.659567563036,-756.564315504162,-765.305232944,-734.724676140923,-769.873842183193,-697.628698396744,-749.077813164915,-779.728604997773,-773.788616131231,-719.868177693053,-779.228071769796,-650.628044891003,-700.166853076421,-753.995698076344,-792.695901760437,-663.707929021411,-761.809200197572
-713.390922088955,-731.376521649133,-662.095849130891,-742.433634982277,-814.570313788427,-623.743669828797,-724.526188201917,-825.716356146853,-674.292125550232,-781.859504518852,-870.975774323177,-650.387754305912,-759.82167667344,-852.135654200297,-733.675340864935,-859.442761275199,-717.478175345473,-877.387122441173,-981.325156550124,-926.244647128435,-1020.05869231607,-945.89101141374,-1176.88257839576,-1076.64953598251,-1713.34888873684,-871.298914707472,-1087.61819530985,-1783.73680291672,-947.628621813175,-2246.15303655415,-1073.27726558772,-1510.06576578922,-1749.48489650543,-410.713075658907,-1963.99264741198,-963.548496969703,-1096.66599476504,-1573.4872984074,-1453.13202638603,-1007.76545886548,-661.949389063408,-1201.81706874537,-246.08585681516,-594.975936648317,-1387.79380545397,-782.695879834759,-757.451685878785,-751.324344502594,-757.336944745719,-748.017851152831,-746.411205566729,-756.652626372284,-697.529494061646,-737.852769930574,-751.316267332941,-736.74595562156,-705.093016722948,-743.509265789771,-625.960103193061,-667.002496912836,-719.110800563319,-746.19630504322,-633.247253977677,-719.504740440931
-591.769661090093,-602.228440972533,-559.559509074373,-608.993200856395,-663.44378438359,-535.498407585225,-610.68253785916,-693.742032503667,-574.401830709049,-661.526812941938,-728.563161916542,-566.110801048609,-660.748921660859,-724.857165352917,-669.436657842537,-766.435077963791,-680.100127855433,-805.688525686351,-858.319925847089,-905.663229495571,-937.703369511739,-1057.88792734055,-1145.60987690907,-973.133960387903,-1939.23694075896,-860.090337015771,-1413.98638427326,-1843.3213248323,-927.100114610293,-2373.60380745224,-1055.08942053192,-1271.91554106627,-1370.05809293558,-610.664493612642,-1811.32619017633,-937.312082827193,-784.304248747015,-1268.7714117095,-1370.47882103214,-916.511901387052,-590.246481983909,-1099.68831614263,-317.207543901242,-560.265183254783,-1313.27853543452,-708.645745222426,-616.773045612353,-645.77469482541,-628.92807684393,-596.432049897263,-647.921021361556,-619.705962263231,-609.194353424858,-620.646904838893,-613.535838418077,-590.514071586421,-601.081475735705,-600.424676790208,-538.980679214579,-562.523106138742,-593.975158203821,-603.161598603016,-534.216814902893,-584.290478678769
-485.824684236862,-484.47694156705,-487.780955777151,-493.702037759405,-526.496730723445,-482.810506273992,-524.96233037969,-565.080509914347,-518.463821526125,-563.914229917725,-594.552786729695,-527.830774563534,-590.788725609865,-621.28069173046,-646.695326323267,-709.800063554136,-676.55778782874,-781.219054982822,-777.879574247896,-910.601966015729,-903.616467792237,-1174.79175288965,-1151.33632026974,-939.358532442109,-2000.78372524932,-991.601285433011,-1785.89279245292,-1816.41282174735,-1029.07205224276,-2342.27376762506,-1180.75449458151,-1131.25817892001,-968.460140473546,-922.180950455163,-1658.65742727398,-1035.47874202092,-637.840603423856,-900.413852087955,-1216.07855866591,-934.166796164468,-484.569609497965,-907.706666140114,-292.815128101308,-331.667721189762,-1141.10386724607,-544.510384606759,-424.686484422893,-486.801714065836,-449.460246154991,-406.028102605686,-509.946384058831,-442.511387174845,-499.848710437761,-481.526265668454,-446.930116628756,-414.774740471544,-486.548447392026,-436.703991589508,-460.644798405421,-461.819049620132,-455.095864363055,-439.736199408444,-448.54212728039,-444.501874023832
-407.361532089394,-384.485629803813,-432.479593567195,-412.350783702513,-416.086780107084,-462.11540928704,-470.083261735006,-459.211984056166,-495.823432765473,-499.357792233529,-489.776806417018,-524.469442912309,-557.82333411993,-556.837660555061,-666.438207444312,-704.870262332603,-713.570925637488,-805.284553303837,-761.686356872584,-955.660296615954,-940.222726373101,-1261.8111370016,-1226.08625520612,-999.540215658376,-1949.38113861696,-1263.68132683995,-2009.27988263841,-1808.97265711937,-1241.24925084178,-2257.06675467822,-1450.49727121564,-1193.50030683725,-604.770385681406,-1133.18039085863,-1615.25156055502,-1254.89098397804,-616.26423169998,-518.566412914643,-1075.07331099737,-1097.16502924109,-517.4512623551,-653.92908974718,-321.302898138903,-57.5170964467156,-953.065513711265,-360.4747802095,-235.378479189551,-322.967968833487,-269.932621784362,-222.070195494458,-357.809025600672,-263.264366091173,-380.229659970198,-342.882621987099,-280.977788465425,-235.067303707901,-373.857343113378,-277.271500131938,-381.458840189846,-358.444319272611,-317.420506332997,-271.818882464111,-370.910159585263,-313.65838135959
-276.410873286791,-230.343104241272,-310.573229552985,-280.919601387908,-251.872981611533,-379.894596793015,-357.659826207386,-314.885802639869,-406.233985729961,-384.152035781247,-345.171280746011,-453.719475239124,-470.71652175979,-445.90290345039,-625.043206374381,-645.844684483934,-687.273051062616,-765.494918250724,-708.190152000177,-921.673896349856,-923.266079342933,-1182.70733679381,-1228.29018972361,-1035.40447391622,-1719.49812192527,-1469.23598304348,-1819.96900263087,-1771.57140304252,-1411.68610009537,-2023.2010107832,-1623.97034392728,-1322.96137190302,-352.710829543836,-1030.15240545028,-1585.12113004104,-1351.37251836132,-656.687536727174,-223.412336610503,-875.4012596887,-1202.94813744849,-715.075967529062,-477.759914622707,-508.019684376874,-4.77134211653026,-867.464019451544,-148.196399354211,-37.8814234218465,-127.380732831091,-70.4473227447927,-12.3673757325325,-157.71177183848,-50.4149080010676,-209.845168044934,-155.802532330955,-80.4858826630103,-22.4303497832111,-208.709939367909,-78.1414605757984,-237.583230700578,-193.059565109919,-132.209630342191,-64.2520553505847,-228.824291921296,-135.307587121322
-87.8293479302242,-28.7506370828954,-136.340460080328,-93.1963324059125,-37.300133486296,-226.715760201008,-184.005619686215,-128.396596047631,-246.729734830028,-210.414379876917,-154.832979136329,-308.235283725548,-310.907203139325,-270.359513339489,-495.03705520588,-498.565692793942,-564.372566931307,-625.211463108879,-576.3112523925,-756.044565335641,-783.498260370342,-918.599052903226,-1052.81846289691,-962.093969819436,-1285.87540051655,-1445.50908615865,-1227.15571397855,-1566.258723866,-1434.61872125619,-1541.045294638,-1510.77270946543,-1332.28278702849,-312.456884188876,-641.062376733623,-1437.43773296919,-1189.83932377929,-732.90004989897,-241.392898492659,-588.459381113104,-1048.94587687945,-934.697733829108,-517.184567753428,-758.577229217195,-288.502941428504,-1032.48966492381,97.7933299106931,165.904318233487,101.44729595294,150.018310958882,216.724672033457,69.2796211794884,180.761275782308,-9.28538391271326,66.0678500354095,144.266419269883,202.830995479057,-6.83139862119331,148.059057119227,-51.564286539039,9.05026815795899,84.9534543054054,157.474749595787,-38.7927721539465,77.2695298087455
33.934047532264,96.0278663795094,-35.8235399282083,26.2056288071395,93.3447474698619,-123.035917969886,-73.0763962124349,-8.63271510933303,-138.46570348881,-92.0234543428273,-33.2627910888901,-204.056547846009,-193.917670379215,-145.565270675163,-378.061007990966,-371.304340429776,-441.97535943312,-487.448026189871,-460.179550505077,-570.011989983535,-618.194960290111,-641.280304296167,-802.274468077595,-829.219086630983,-861.872129264771,-1248.04497345576,-600.798674228574,-1233.68859464777,-1328.89201794855,-1000.50266217057,-1189.40154723069,-1183.85752774616,-530.281728088693,-251.72649371177,-1170.69874566096,-947.026578140696,-791.779484173276,-715.388856427391,-386.315075544176,-768.396555134975,-1037.69522724008,-794.910811431938,-937.376917117149,-742.813881180315,-1464.8001316328,275.489704371015,300.445011962548,260.016200701996,299.574891493861,361.480555515476,209.697360866925,318.542983491707,114.390523532998,200.893113856843,287.176843647643,335.411922703889,116.461505132228,286.607675973029,56.9581704617112,127.73507254168,213.546558849813,283.540063670844,70.9467105653381,205.678516119469
-2.91063826208985,55.1052984459394,-82.728733307511,-11.0939427903625,47.9027924756847,-157.559813017641,-112.633555296174,-43.2640604827753,-162.960078498417,-118.26584415807,-70.512248773823,-220.257892390276,-213.395072317614,-171.754236625707,-358.895005529482,-357.491608677621,-401.345099548104,-444.436350688194,-451.31541132236,-482.512581183171,-552.417734264481,-505.445299486123,-653.086856333378,-739.046795701189,-681.427762889202,-1064.07844885567,-310.75967998824,-965.288287123182,-1146.63039706802,-717.746271398734,-857.440861465052,-933.775291603003,-913.410166290216,-121.776593749646,-856.312582079601,-853.764517026297,-755.048128074402,-1446.1412348424,-421.803205217217,-684.000612363659,-1039.34123527434,-1152.79044450653,-1063.51846722743,-1084.31733903266,-1896.55691773815,264.739849760393,282.783767799491,241.108754015978,276.659034702596,328.289191761998,177.1267181393,274.218802897762,81.6208054834732,158.976416039638,252.552089603763,290.600099731783,81.8899327711562,246.246977416086,15.5960330639054,85.0245263330017,166.646795751443,235.980935669504,20.1765524339485,161.318325855007
-130.421201980241,-83.2734244071339,-201.067362515632,-137.433275961888,-96.943464025222,-267.463725240941,-233.49826642525,-171.396276790421,-261.761673760971,-234.474824524811,-202.264271391933,-304.932818281927,-311.868820136399,-290.886547513939,-400.447925268707,-413.105941467622,-412.631040344954,-463.863252974169,-507.860253072246,-475.107580170764,-571.296217991283,-492.843530059677,-625.495263399869,-702.741222154716,-698.222096230585,-970.21041511261,-387.19886498171,-827.181129499526,-902.843992386891,-763.911157480226,-636.650999429813,-615.234859455932,-1242.13787393662,-264.629435746568,-568.5148272198,-957.835009869443,-587.828115963089,-2006.69288976124,-607.945243401207,-854.448116480343,-1057.51174081637,-1335.86192960429,-1245.23134458313,-1130.61040781445,-1982.8931189938,103.093516249567,142.611510646775,91.1578761133025,119.291077763525,166.396527027489,31.4136975785155,110.378136789974,-52.6598966654711,11.5344346115832,91.4236891094678,125.260595232917,-48.3841324322008,87.1633986267065,-110.605635616639,-55.1060865346302,14.2780974745792,77.4146793203688,-116.642187263957,8.35655148687341
-215.221745846838,-181.335663886342,-269.190589771667,-222.24159441267,-196.020139799658,-333.071591824017,-305.989637898607,-256.09424706767,-322.348018715366,-311.434129442087,-290.207663110052,-358.44818460761,-368.50111930795,-363.818823930152,-417.933082794769,-436.159368545944,-413.100609295116,-461.554905600211,-520.358113874951,-457.070779324269,-562.144688415153,-504.798970940336,-595.78941781572,-634.70605601006,-689.21637608791,-858.280416770185,-595.124281718273,-720.187983726787,-628.705403360846,-945.948933662178,-574.939009225748,-297.873033880624,-1367.83410789299,-537.387789480666,-397.472359251352,-1166.62005910234,-425.382565960004,-2152.65362172817,-772.284208093001,-1030.93816915591,-1175.90931536203,-1287.85688982525,-1468.77852180273,-924.91859549131,-1721.43023082505,-43.4654913338548,5.52394500710614,-33.5090486972753,-20.0525876007819,20.1334229837219,-81.3236317575146,-21.8093316065554,-157.080977628757,-94.0713092939454,-41.8488015780525,-10.9727999777513,-144.119726052342,-40.9745144447254,-200.183053138917,-156.644491752529,-96.6261701977542,-49.4281306246796,-207.877405584904,-103.698921875873
-209.754683476722,-183.251017567797,-255.500367083082,-214.787426731781,-192.609276542567,-319.05911782896,-291.355185836597,-241.055030954455,-304.971254248223,-293.160057016966,-277.243016283653,-346.276303376919,-344.463769128564,-336.629929062852,-388.071715113545,-392.546324293218,-392.945494093021,-413.467116413351,-453.964275204089,-401.169876182462,-475.181789688753,-503.134626597075,-496.685335221875,-495.950272021792,-557.908607508616,-654.546561603548,-732.214019065283,-596.514799584106,-422.941106384074,-1081.37418911044,-684.898576760184,-111.218489288262,-1377.46650111865,-823.653676432332,-431.828739077407,-1312.2727790966,-533.798213217091,-2027.78037548599,-871.339391724392,-1066.50670841738,-1357.72940384299,-1282.8752010159,-1561.77106274707,-723.743677274298,-1457.93186384826,-71.0946796435763,-43.1319247127821,-49.2761254783235,-49.6151259425863,-28.2067052545392,-88.6725225117202,-48.6704182638923,-165.274161944075,-99.6665169955268,-63.7360981629004,-36.7875592936458,-150.558760895037,-61.9582357709219,-201.582635397294,-156.634480089366,-103.22118952686,-71.9271896877321,-207.727059520765,-105.979248524149
-146.427330707914,-117.463479122885,-195.597961494325,-146.066878704389,-119.285341286794,-259.787554903796,-228.109928961113,-162.878828629583,-240.013734393647,-215.403526445884,-195.751368351417,-292.32833401574,-271.340508884933,-249.518170451698,-330.821702383143,-306.915703656233,-360.88122872745,-337.865102242019,-344.70347940801,-334.424265160526,-342.330808097119,-491.968962534922,-363.473354395582,-326.375978716467,-372.572030877133,-411.412145923339,-736.656731309071,-507.04826452749,-319.388480673303,-1087.77366822218,-877.196185217607,-80.5504520727993,-1421.23524558806,-1040.1391303759,-639.4623778559,-1205.88959371082,-941.288168426587,-1918.5393199466,-911.845939117652,-1057.11485306728,-1452.72675912272,-1557.58803000754,-1403.24828448871,-718.871454471431,-1413.79847659997,-6.50510025593542,-12.3073514589779,10.5243039156715,1.89370564342933,5.26770884420712,-25.3805725513111,-3.38140459978983,-103.67481118596,-43.7434571283602,-8.73789831518955,15.2393092846894,-100.110179099623,-6.60689844642958,-140.70595819634,-89.69201780045,-43.8092533780577,-17.5176963169994,-149.736200986498,-40.3512475095567
-57.2218330285054,-21.6147363425243,-112.000017400181,-54.1915586321714,-17.2522193251364,-176.728803164763,-141.621317905578,-61.7347207061987,-153.765150318483,-118.51174149876,-85.9742719365505,-213.274930931449,-170.993070027877,-141.746999371365,-247.236336331425,-194.359764410071,-298.938628123639,-230.05114446988,-207.151532765903,-249.281368338154,-179.72070205921,-441.041187132483,-206.521118583073,-134.380753954223,-205.048696593654,-116.064547998064,-594.088669668978,-419.445733852857,-164.344181231272,-885.343227173746,-889.726196164462,-93.4289102636447,-1483.77260033414,-1078.28051450162,-776.480280416498,-803.694892934666,-1335.35566496925,-1900.10371479438,-814.39205252238,-1010.15415576184,-1323.43365052984,-1906.89975872305,-1074.6458259567,-780.079145465513,-1428.72628971833,83.6765775149856,58.1532085552239,91.1655125867196,77.6487037532116,80.0628883699348,55.618912508584,67.9168593732984,-20.4483421289194,32.6499941425423,68.0501954808095,87.9936943671714,-26.3533123825967,74.3436662252253,-55.4332422667231,-5.80294401886108,34.1307928094708,65.880758566554,-67.9415866045578,38.6710256327064
19.939520687619,55.789803567014,-32.7345021860838,22.3337494356086,65.9746648902166,-91.6422356814085,-58.3005901435047,23.4392895763402,-74.0609833501579,-32.318407025221,6.65972641635208,-127.250575388017,-73.3652329495899,-45.3909009238164,-150.857844966084,-78.1022280732767,-210.957991203719,-100.312867033893,-58.659324644417,-132.685399195657,-2.59966665965965,-323.253711153892,-9.42835486589274,73.1292153639467,-99.0758945858355,290.734827993617,-320.939261148504,-206.228750014638,143.6399560889,-522.710388992274,-475.859379510439,-137.106801700835,-1531.32496839087,-904.491593571277,-635.121935115083,-316.179199684853,-1511.40772554796,-1874.39683871602,-580.189886285192,-765.017031901372,-975.125283430072,-1938.7202135515,-732.58787302219,-717.484745628074,-1255.68963067458,162.066798206107,129.800414820369,158.044281192536,140.044444330381,149.384303741176,118.070473948043,128.682332018408,44.3664742394263,98.8638307309745,128.570547497956,140.343098838975,43.1027523757768,137.275339025834,14.1862345881734,55.7332231557504,93.6798832236313,130.400203676299,2.12348978031612,95.3742856195035
16.4795356936483,39.896934737866,-25.3200374707337,19.2091909195164,51.9760446494451,-67.3295886461505,-47.2556150508644,20.5628104154631,-63.6553567655925,-18.9509698325628,4.47329727978692,-96.260974146342,-51.4721057157288,-29.647302651262,-106.800580512873,-29.0439515141287,-158.958714315909,-26.9587608870388,10.5052936336989,-45.2927902008806,99.5832208013275,-184.402606879465,158.357583297432,182.721728078341,-76.6204099550507,666.74128513472,-3.6043290446756,144.093410739751,439.316976107373,-316.205336946194,246.821802368028,-323.133463334997,-1693.58966328742,-687.395977291188,-396.5955871565,-20.9080647257425,-1552.02157775652,-1857.80043264539,-502.334523187357,-383.457675816634,-543.612762840963,-1635.04776312121,-431.911821355024,-644.489528755288,-921.262663274683,198.532952194048,139.434093620597,167.785074328024,137.298573504866,139.033560383468,116.340878783486,114.575375215071,44.1443574749777,96.253933799491,114.800179636191,111.876827146433,48.1532677797206,115.555628813336,9.66012803853348,39.6982242463743,73.0080479625921,101.227168396407,-2.97170842668703,73.005270906933
-79.7228170967871,-75.0474256524307,-109.312408084515,-78.1180307941804,-71.0184678355478,-125.820322347465,-127.876456938899,-82.4920751214799,-138.026054872368,-103.448813175405,-105.411783275427,-151.856638956363,-126.38932260073,-116.951984457448,-145.47951725027,-79.8048624461178,-176.637863426755,-56.5944175335117,-46.4422316953749,-50.8002848264254,64.7098862907056,-98.31987679145,202.700731064719,125.832017655593,-77.0866735870761,792.649913859651,205.910183004875,469.689471955138,631.933155329077,-485.14986461602,866.335977136959,-518.561132650682,-1951.02708639086,-682.144746065364,-335.871974753077,75.6160002441312,-1468.93845699796,-1825.04047014068,-804.21109588763,-148.427367079781,-119.801207313261,-1205.96723206638,-82.5935361381258,-657.052440793551,-599.285194412902,167.681803393306,57.9383821951695,100.062049900023,47.3759110720025,28.0598783558065,37.2976240008152,5.25049695246764,-31.4568097282415,1.3513584344019,8.49376133880401,-15.2162705421152,-33.6189997445555,-7.54774523276816,-78.6439263665098,-64.6231935076003,-43.2377474593227,-35.937548123725,-95.7463415875853,-44.1198361453068
-146.862476894981,-152.259457280752,-170.538406108575,-147.122859868889,-155.851938520018,-162.52365183869,-177.34136652846,-148.684777977107,-184.944805118263,-169.34909861534,-177.797527427686,-195.123351385886,-177.821657279637,-176.745544768855,-177.952230274466,-123.960771471279,-191.735346766607,-91.3996875655357,-90.3846574809049,-88.9290579338916,5.36058795667602,-75.3730991692256,166.420524001441,67.0338250032502,-38.4022893430481,727.024010741811,149.754564627702,628.242054102938,915.693886455003,-697.82515381752,1160.34039275605,-369.759046060936,-1853.74644433924,-884.344678054046,-216.788874210268,222.294512066487,-1106.58887300209,-1372.29724302067,-1043.28705325197,-31.5255529795836,388.100303182604,-559.780130994484,498.23981159006,-427.62167087246,-248.856574146256,111.135460130919,-20.1646675480051,27.0772817446717,-36.7457824353033,-66.9580999117403,-33.669811569988,-86.9701234543502,-96.7969455426308,-83.0267085526891,-79.9605492948903,-119.24483570856,-103.608189166226,-107.304163862406,-144.353028562607,-144.222636699819,-134.316355840063,-141.122280086557,-161.321423438589,-136.033866981499
-62.9800951248734,-63.5020259896089,-87.2832509867765,-56.6987538593394,-60.7606739826958,-69.8400894614953,-73.1154728020908,-47.0748380900848,-93.2894916434561,-79.3683676054306,-71.0963545636422,-110.249836837635,-83.5701415273862,-70.7533872384876,-104.072457101691,-38.0315259248036,-123.501381951016,-12.5826497261875,30.1401200289594,-47.6531360378737,71.2509078266644,-59.2813241691171,159.621588165885,173.701898356197,-18.2235414695888,661.333883619632,-98.0487908250832,591.892832428126,1266.36657551515,-418.488759307222,1235.67704139945,70.6392196348757,-1035.15086383032,-859.549569680373,371.762791094798,523.8353673525,-453.691954396913,-201.452631793519,-520.048705842663,329.963862655178,1057.26794799436,417.266359020573,1361.68025671436,295.003847564092,259.574819109909,117.454533067163,19.0777436751894,50.6204645270401,2.05063565728164,-20.7880290199206,6.61343927303512,-39.1951127191303,-50.2240285775761,-32.4848685994484,-27.2233753386824,-64.4955622279353,-48.7826356479225,-48.3971283996046,-77.8635269912933,-76.4277573002909,-70.3828315426962,-73.957071329077,-84.9851389242912,-70.7027800010248
122.572512059276,135.162464576578,94.5045863084012,143.717002502654,150.671401468271,103.013856206381,125.073854041282,159.676297935189,85.4928388427739,121.800049118981,149.164204083487,58.8880774147628,102.113036071989,140.794667183918,41.3766265252037,132.594026195758,-1.44069581610198,139.735707077734,236.712661478324,64.6291129404594,211.494037956409,-0.347780324838096,167.422782103063,319.16918241941,-93.0718918929655,528.851023536633,-195.837438067072,342.864157931695,1246.53670119428,249.98617238219,1211.39641888129,332.957987609312,193.88379834736,-295.562109706637,1199.06634931875,827.747768828981,320.493714063957,1203.09054721595,624.535870949727,1032.28907100981,1743.72196642254,1348.98773865665,2241.545672534,1173.4904412733,724.590868691044,208.702153184581,157.032592498108,171.044001807785,149.741497156976,137.589624445403,143.235040532028,122.541489458174,92.6536535382109,128.167350069585,136.977101192561,113.461243686696,104.133703374271,131.08961189128,81.3774660775102,99.9117593672453,109.09745312504,115.71436291815,86.384577096399,110.816688562762
285.991517879954,312.981571671862,250.150849436714,320.182188537109,337.357100367052,246.598067197951,287.451735776914,333.677282573008,236.262932161161,295.132013021146,335.308241098267,197.632985372997,255.514754617103,313.611905607516,169.508629508965,267.087323570361,114.760365121204,263.476001034359,365.419857003773,172.149676438241,287.979115189785,112.56422297305,137.458175103515,309.584693430179,-180.858802103015,203.900649122856,-23.5517442442769,5.20702494593727,700.070521002415,646.411309251482,1110.04909335067,363.437040149349,1235.93351481853,342.874482589288,1748.21058803709,1064.53329758024,1157.02106538773,2058.39272342835,1543.21927223842,1768.87897623819,2345.64855511883,1837.69740994842,2843.81882209461,1841.06842530229,767.544067719375,348.563697078995,331.802164211142,326.469150480499,329.485172292336,324.284192334614,299.856158982673,312.700974299063,248.938855819281,297.491092436874,317.809055522117,305.416858542814,260.529347166546,315.890459215762,228.084891406437,268.08025676901,289.371415585948,303.597040496912,240.51057969912,290.588688172932
413.32924782412,456.64414884081,367.082125485206,457.424755679681,490.123013796532,359.009494911553,411.006992136207,467.780294832275,355.791384967048,423.919496717591,478.96634860156,305.851648154586,377.036919139229,440.35313362813,288.895103871052,373.219457665079,246.544769561792,380.809928341017,441.739862551747,299.356938188767,344.918769095147,282.596967310017,190.110239038051,255.487726624688,-66.978091200532,-60.0839762362263,142.959624761635,26.6407867062201,111.996395727435,600.850504959794,995.919748725546,632.001186974773,1937.96574183512,408.889349168589,2069.6748304754,1341.59847437554,2120.87381220755,2228.74941548416,1888.3677961842,2291.6791031191,2948.08554844222,2029.82812562442,3200.43725979947,2377.67013508951,357.406875042806,532.679059558179,550.232695261422,506.996004447794,530.284780968267,536.615540679178,467.509346404561,518.304597060394,401.079542192532,458.654295134676,503.432213129824,496.827552663634,408.145985085612,490.297382368261,354.418015221445,413.254096830113,455.163078193732,475.123785885142,369.700598777841,455.894252749791
548.061345509345,608.000213838524,497.146428091932,601.700663360674,652.556967674226,482.561238595816,548.985647291953,616.993901094782,492.434713075885,566.411428499856,636.78777832321,439.737840163762,523.495111815068,586.311609603347,443.308122416957,524.308895930435,415.938313303935,554.065198615125,589.367069373981,501.137377131739,514.112320660916,489.168188592433,459.712106691227,400.782793981304,329.789446752512,92.3651687839567,112.439236270707,671.765101506494,-50.6494000517663,655.687755036175,883.707282737618,1217.72992346341,2506.58869574028,53.9326641865888,2394.67679612844,1567.89332805211,3047.43819905441,2152.80859173722,1995.37163173344,2515.1732432894,3380.98229583664,2171.51750443227,3398.06501863329,2784.91598764328,-195.806719813136,740.421240587321,772.287092011844,702.187955014426,728.953980677243,749.251655651497,648.746482079011,719.551379924778,562.934767683354,626.52877209475,689.665990049955,684.632832333111,565.354408056521,667.839776700925,495.379325707106,568.059451182963,623.628204808826,648.061136087515,510.463511790641,627.578554083344
651.656462435148,714.440592021112,604.224383277943,705.791336979113,762.006645740483,572.069163384838,652.091662938393,728.787318694098,601.808093653281,681.059543607884,753.800518269422,556.93380833789,645.023816142419,708.746767763618,576.375717002015,668.908096316929,546.191012811261,705.349317280838,761.448454121423,689.023245026141,728.09742168037,635.203347226246,785.641270596102,698.551553931421,775.017816467159,518.029612223408,-30.39157296886,1463.68802569107,104.405483240482,1087.5726273394,638.569141725591,1535.93760469993,2960.72828563994,-143.566451648694,2462.06388973858,1421.11677790781,3446.53352820997,2054.35207776329,2044.47995849653,2298.38163790052,3130.07899572679,2062.10035189626,3224.90411894989,2689.66017598069,-678.732326519905,865.958298208701,850.51125396042,816.874269861773,814.739288618886,834.282117062144,766.361239835359,811.517496941305,680.202856576992,734.730156581615,786.711609794074,772.961642510564,671.109942032373,768.53387522028,602.432679748157,675.853083632106,722.809686620939,746.588675450612,611.848640289884,730.72619371859
659.300099483638,704.243162743413,616.679783111683,699.193618464693,742.879569982826,566.746675458217,643.864746007107,721.360645986382,611.960403971043,685.311898217448,748.456885954692,578.43036014199,656.800004763477,720.371344544261,602.853872972676,697.377011918963,563.324242603496,716.821443047989,808.184654744954,725.432535502543,804.964196875876,624.073594218574,885.652460006037,891.229028247501,961.886475930797,769.107052951775,-185.130028311081,1722.53029131377,287.940243117678,1530.14312181625,244.802668316449,1274.19142064839,3124.02672167459,-43.2916025406812,2045.04609069904,945.323672587879,3036.75915551581,1825.51226808205,1867.44282061401,1690.27911774086,2119.68602248464,1417.16051883418,2535.3754538276,1921.00499449318,-1019.81693622155,831.602224477148,725.616796172005,779.555566726318,733.096193343534,734.746237547983,756.43665893796,739.143056119592,689.765520208423,717.434814688742,739.348505133417,708.241065412464,664.2038575056,726.867393075182,613.428522266549,667.802102436442,691.707318782336,708.951418840696,609.899642075207,702.168432561802
638.052486537006,669.144770989487,598.900330357833,667.16512264697,702.479547997732,543.5174360443,609.524222872788,688.876067731635,596.121021711005,660.870629175685,723.865586003893,567.295701663271,638.604311694839,704.776715536825,587.974025623091,681.062164985624,542.387742371374,675.550147744906,797.95881735588,672.401153298712,806.025629627452,515.091030118037,821.94726184811,991.189034108685,895.137231153497,839.413936651264,-304.298805522436,1436.82606408542,594.630771887304,1720.06075839132,2.24865005822824,1002.03063523749,3067.78374109572,145.927609026849,1552.37321482859,694.44689363449,2209.03514143312,1665.47961178431,1476.55658097054,1201.01025193117,1097.13343725779,528.198419757445,1705.26511640376,899.469559509256,-975.36273508818,724.409513958868,577.064774557757,690.003260939507,627.039171888492,618.513925929276,697.894450328621,647.097436013595,652.793912554766,660.36431156103,670.013628437285,633.201019228073,623.240394230145,662.442981235234,596.501684557065,627.200180534271,639.826420267729,655.538114880932,582.452751930729,657.929421761801
748.796573076372,803.688255313895,715.343032206682,797.145503092556,853.596669904622,657.298018271182,741.814045026245,839.427756946281,725.207466484243,810.108465370406,898.287648132185,685.067845842696,784.462745412714,876.332396129686,703.44692364387,831.956354571196,628.700839664236,805.450660784037,994.501855381051,746.49548202299,1009.45196434046,475.927654670329,944.024591258775,1308.53364204393,857.570884902046,1171.16929549794,-291.294650996412,1106.64162482955,1274.81377995892,1927.99230293208,221.486159713673,1409.10139915112,3156.82854317712,396.784096951386,1530.60009659213,1000.27649034649,1638.89063963569,2063.09377698549,1204.22535605022,1305.42989254698,765.590523060344,119.354878232062,1290.26237025071,262.714872346746,-264.699154286851,713.476342773474,657.423221588108,734.565911389248,712.40191049244,727.543460892955,745.573593666542,760.229837099994,712.141475317676,739.718178518233,776.743689068158,766.091403902005,702.710345749875,787.529654498665,690.397402153768,727.006943396199,760.027907951417,795.902267217103,683.915075801039,794.815577957525
1049.75143120512,1167.51398179985,1020.64284916928,1149.5955028387,1257.37540467491,950.362144696947,1101.43285296104,1239.88472846596,1052.01938569625,1198.22255901202,1335.43026909458,984.732642822394,1151.73061583027,1307.30007508039,1006.89493226671,1218.4741966391,864.801425218558,1176.25902558712,1484.20690173316,1039.52334168061,1508.75551549179,605.602740296768,1389.07488714702,1944.89787780602,1084.92893895676,1903.32510342002,-23.7582884596762,1101.73935150498,2162.71364046802,2542.80362224009,890.964347688936,2405.75001393549,3610.5005462634,865.687961183216,2041.95548663128,1652.91546713956,1693.97567712956,2975.23273525714,1318.48498864596,1892.35782809972,1015.19260962619,529.269873631377,1433.67310124215,327.283919346618,1021.35387376816,876.414408158881,1041.88866510204,986.35992161227,1056.62250056761,1133.60918972771,964.719122504857,1143.61242434367,923.750546581491,1021.58265792084,1122.09685537198,1168.69762887056,955.721508986728,1166.18648494086,930.798427963289,1021.57133734876,1108.27761041804,1190.13919572279,954.637872049175,1162.8401382787
1455.84739387755,1647.62569014203,1419.44738916966,1615.76466167037,1786.87244883135,1332.70899206529,1571.61194177148,1769.91383260834,1477.36305721797,1700.33318516569,1900.89551618514,1382.550854066,1622.66257094125,1863.1624545983,1411.24112262996,1720.27283188409,1201.44811360847,1671.96348409536,2093.32184475861,1470.05119579626,2130.58708134084,901.642853071816,2003.82803749715,2653.65216951242,1592.65840640487,2713.36811027097,465.986242717947,1613.63928635274,2819.18210395207,3532.8513588886,1788.61076234676,3400.32680929141,4241.39460374463,1481.13052421825,2728.83946791007,2393.53718943084,2286.17084961848,3760.46656403645,1779.05876292416,2515.26545681441,1293.46597570345,1399.10667059103,1826.46817773399,830.559095511172,2526.00273223794,1178.3533081155,1612.06536755845,1374.13203172498,1560.03475040033,1716.68267115872,1301.72671210942,1677.30218695274,1224.30641738359,1421.15252719452,1605.9765930802,1720.98315702118,1309.82259399469,1678.24170709546,1244.351213849,1416.48980654445,1576.43097337112,1714.55915700301,1309.06056590175,1648.12095612596
1804.20127195918,2047.21685932179,1753.58875803797,2006.80664350062,2224.02849182132,1652.32794518774,1959.21552880005,2208.92830968636,1840.88167650907,2115.34706530422,2367.67338294651,1735.31252925397,2021.12643596471,2321.37387788987,1783.51430194929,2160.59396642052,1546.44190431064,2119.24244530648,2588.88932641617,1899.3840306185,2656.00320701487,1282.004704619,2608.24399429098,3178.26287840532,2173.98555817785,3350.61843026285,938.971087961204,2622.89099019613,3114.37378663051,4284.49281636469,2593.12997437112,3911.72208343521,4532.09641299679,1860.66029883981,2994.39093112833,2970.05708280485,2717.63895221891,3943.86985861258,2261.25970688553,2779.1871310612,1128.74639756136,2137.13352411448,1949.417098723,1050.54870037922,3822.03633514625,1485.0633721138,2112.18684693351,1722.61515959167,2002.10776368793,2213.74028402461,1609.24080283916,2122.96205769122,1484.00846975018,1758.7603366187,2013.89514914699,2178.6167847052,1613.86197277287,2095.36818071422,1509.18241633548,1743.55821124571,1960.79097356681,2139.93807113243,1604.40663920708,2044.94681858723
1879.30409409706,2118.78828002771,1829.08701119849,2090.82973109218,2304.92241665663,1722.68475804437,2044.38883709813,2288.64628663156,1944.88671390913,2213.84742189527,2465.93846737994,1854.63161012691,2140.59025658686,2431.19170020787,1950.37538645406,2328.29183041915,1736.5455640261,2310.36273245306,2746.03381624619,2153.40745697258,2873.43600573168,1616.92408849242,3002.9976853067,3352.86556857016,2606.51255209967,3713.43909541943,1350.57395682107,3555.70793793603,3159.72587948498,4193.8211582259,2879.49565557339,3640.83399828853,3941.03571304746,1770.3352622369,2337.47186216765,2919.05284633242,2063.26709584068,3535.45462968057,2337.79395259953,2390.95161259552,375.758776135009,2376.00799799129,1404.77625257625,566.957216749395,4391.93574215025,1559.3361807526,2195.30531985422,1774.84104471594,2070.3913047139,2272.90523886752,1659.94110297743,2169.8797852864,1520.97672661513,1796.31903010942,2057.23437792666,2223.44558540097,1658.67808605806,2133.20644084729,1548.30317670773,1788.04281168879,2002.84197662896,2181.1382425198,1650.32110983631,2087.91357533276
1564.74593918906,1735.61391307702,1537.46612299033,1747.73401852994,1903.52692040926,1458.06095632755,1721.46861736629,1893.82511503925,1675.61931779909,1876.95348254824,2066.73576673041,1628.52823036939,1860.3438050399,2072.77569388464,1792.15199615657,2090.62954513232,1656.66831391995,2127.12342996342,2443.2056520401,2117.42708616778,2647.14406773906,1847.16239271947,2995.52738308483,3054.21690746773,2928.12765304341,3632.01842589872,1984.73839194139,3770.57365909059,2873.34013326779,3526.07548097753,2543.96339126962,2622.71557623518,2461.79649937787,1481.12850609488,1158.25671869548,2144.41007736039,463.857344632445,2792.27790127422,1907.94239682865,1444.16494091116,-480.331026644654,2124.3960388911,379.407514911025,-114.392739779023,4037.79146275608,1253.0135588232,1697.34663342244,1391.13781973527,1608.32410289618,1739.38333522829,1325.29525258077,1676.5252705811,1225.70932944958,1416.90269884378,1602.87097992476,1715.88013591846,1335.73238867628,1665.68934410796,1254.18454096551,1437.6828368947,1583.73218946933,1707.93290624454,1341.37157167782,1650.14130923213
984.702648307792,1047.8780618783,987.121331401473,1112.18639329205,1181.33043139258,978.339307097706,1122.61186922474,1201.02208001562,1140.75682156877,1237.29693041897,1338.11549729922,1155.45171383312,1292.76817915086,1400.48095966911,1390.33676950124,1557.8405225818,1382.55619426295,1684.7061735966,1807.45747629,1851.72098272031,2085.45199138941,1985.0952186321,2623.1979122185,2361.06819279129,3223.04951251127,3098.62240967609,2816.83573387723,3417.37955435232,2188.49426941017,3056.5725096176,2048.04466800582,1398.17512039432,753.057623092742,1479.01941698371,593.715252454058,1265.68841884993,-768.290930450363,1808.53253172468,1361.12744876561,555.451596849667,-719.340794801586,1612.57551433549,-510.411224827214,-317.978525585561,3149.02043630673,677.364971369773,830.517881068175,716.937130610203,803.943082561437,836.008146461096,725.368654752783,838.670720702157,692.566015299466,763.516881416458,829.732658753183,859.488619798582,767.600004271317,873.19119546292,731.711440306858,817.511670406398,863.613155128135,900.349447770992,790.162812435571,898.498654744337
354.706269899558,306.281158359683,380.007860692416,414.908873209796,397.865782314824,459.984194960823,469.03901699819,463.740387192027,545.100301754491,530.799368323384,549.551179899748,623.310004206491,656.795678111953,662.996002517741,921.57212297715,953.09197373823,1055.62705266092,1177.17110666037,1086.72917960266,1478.59170285684,1430.85584038779,1988.71728927593,2097.82550255555,1555.33566955313,3260.35493960713,2409.09169111596,3356.50745367078,3011.02237056227,1423.05110452924,2928.92364191161,1810.3375454672,539.565879897897,-513.684536165449,1877.59311094899,968.011088782976,859.514410243341,-822.072866699419,492.194787007257,1072.49631198861,229.698090284229,-292.083473180602,1030.9259041408,-955.889652483089,-150.994439534143,2203.01310323775,51.1444346725131,-68.2012907340139,6.19076659030751,-37.7136746164071,-106.331826983068,76.4730411107181,-44.7097032361512,110.322420400347,67.4701763968662,11.4059464198234,-45.7342235572751,156.561990716168,27.9128001337373,173.189715006363,143.076862954745,90.9150447464946,38.7592978799105,193.671055631334,98.7042562144135
-198.290025438823,-341.589094852936,-157.633344454275,-203.343564912897,-289.569306695227,-9.17857694843483,-106.90845362519,-183.202613087249,11.0371619332821,-97.7462085960552,-147.218858992745,137.96648701123,83.6131963597438,-1.60577815456854,469.82718373371,392.536018487425,714.326737155481,680.358119900581,435.321976028321,1044.4521174463,813.575270984804,1782.54789018263,1538.76204542295,850.138679059537,2782.85637998399,1803.30874340576,3328.42261332688,2566.73963670599,925.431050869409,2669.85375098816,1750.54524191763,178.715240860545,-1091.1502299836,2265.55342564067,1416.14848216163,890.453527063986,-154.06952531979,-704.286434606067,1000.54003830797,361.1310416048,269.373473577971,648.600247029704,-1063.6709602206,18.9437986969474,1521.89051040173,-482.69388099217,-796.770952897946,-583.658367927076,-733.352624953765,-891.207754817286,-480.901887579144,-789.739711661146,-391.142985759787,-529.430964832215,-684.222296158033,-819.731748538591,-378.54959808872,-703.29116596658,-309.515043359568,-444.040743775244,-577.58979095203,-702.860366761156,-327.318303123163,-588.491979677929
-628.486762729986,-837.462058546155,-582.733958301065,-684.526070890612,-813.661971169839,-403.39452034729,-559.781985031184,-689.640677024599,-428.288421092691,-596.382940369746,-697.209697111477,-276.826595746736,-388.661852473779,-543.602667720123,35.6788096200825,-110.334144768665,331.978213856057,191.835899392231,-108.832690199865,553.330709278593,240.246549413528,1361.51405348133,940.229210819108,266.438110035604,1932.45715527503,1240.3825112189,2842.91147548303,1872.24884959444,628.294042266157,2057.06589224054,1595.99552030415,137.988426560937,-1004.00753425177,2168.60806766604,1276.75605107925,984.867976994292,523.724703211632,-892.820439969498,884.316046608648,493.404668821684,587.510998481208,806.462902477655,-994.139401079695,277.805075867288,1352.91130942977,-867.370115237267,-1285.16218398034,-994.997336951151,-1213.06692280415,-1428.91640520791,-885.41180677455,-1309.55038286889,-759.179297508942,-965.334675139728,-1180.35226133151,-1371.5082320096,-789.499423259195,-1235.34644014792,-680.514683043636,-878.877158205644,-1064.21840950765,-1240.40604013636,-723.72868256938,-1096.67540445084
-937.246407087874,-1182.51151259574,-903.764194852524,-1027.10115102264,-1175.56405134508,-725.850388139025,-897.564479627148,-1058.88686874123,-785.456393932768,-971.941205597668,-1096.89054162391,-630.711379912358,-767.981766558519,-958.878317689374,-380.63861806111,-558.406852891787,-89.8389891310935,-282.807633280823,-566.60646184597,25.9025900432896,-299.31542297978,786.800340168651,301.451813136827,-260.794961345122,1064.58956989822,591.832566085072,2007.2103449636,1056.1169457954,267.786643151888,1231.01037002907,1240.38416972351,128.101906391297,-488.83897429978,1548.54156250663,691.523807555251,830.74984324241,995.30700879509,-101.181080621652,535.635797422621,263.10587738058,586.128460431582,1367.7641052039,-949.896400026857,713.340484155272,1566.2344317755,-1120.61055723713,-1570.252294722,-1254.49328852325,-1500.03686246905,-1734.62501315051,-1149.84693177259,-1617.77245312331,-1008.88422983685,-1248.77480406537,-1490.80662653364,-1703.98222734479,-1077.13380634707,-1566.53167248237,-948.464340832868,-1171.57701144266,-1376.98653579883,-1574.42926440201,-1002.23351375832,-1432.54994790444
-1135.1358988437,-1403.21329920278,-1131.69793206567,-1248.20090424604,-1398.90233802699,-974.62680185841,-1139.12714903493,-1305.81180366072,-1063.39696662675,-1241.13636430992,-1356.37497583288,-919.709273996111,-1060.43361394643,-1253.48719078172,-740.469323725045,-924.365057328291,-493.853971604198,-706.356467364091,-946.044116484826,-474.334449472726,-775.875540704702,168.367817137097,-311.712873762721,-752.314874127497,374.951445135291,-128.844907160222,949.463674921058,360.849621030494,-222.711875375098,254.71149238872,744.836557557032,-149.105400026202,-1.47347136840463,751.031858980658,-77.1040321091372,353.847113309435,1221.74342322782,660.519462530149,-50.3859728156933,-357.651353137409,340.283675668424,1714.67324754616,-1114.57035590087,1009.63493739013,1676.8992158933,-1281.68278747366,-1729.28920622286,-1416.12874135532,-1658.0300197415,-1890.70358134311,-1314.32796827053,-1785.5779251266,-1169.30236718542,-1420.02307201244,-1669.83786601437,-1879.5170348855,-1259.92818536737,-1749.44045879479,-1130.36384238885,-1358.02827992439,-1568.09474962706,-1756.28160657215,-1187.36826217751,-1629.58266987817
-1186.30675137865,-1465.61593230403,-1222.00932138673,-1314.44355654362,-1444.89636273581,-1095.00604116167,-1247.15655942949,-1383.83714273522,-1201.38951665813,-1355.37649446519,-1434.12888345648,-1083.24560621726,-1212.20924237748,-1379.79470502858,-965.32398328353,-1134.36700269698,-782.237797796706,-997.297502403622,-1184.77811160821,-833.055208509477,-1102.82297992181,-321.285514857864,-779.985279326,-1122.81009229243,-108.280704356999,-751.615347689795,35.3118244684802,-199.056152091647,-711.924837266361,-814.906596988783,187.466916729521,-693.152285277194,117.777332383644,97.3898526481854,-879.01184876812,-258.4256022274,1100.05219236299,778.166968267535,-665.044720297569,-1054.88079908351,60.2687007074317,1512.67872832142,-1378.65969194639,921.404180558874,1405.44872398241,-1313.62923562901,-1743.0446419826,-1446.65838682421,-1669.05096128467,-1889.801439591,-1344.88103259189,-1795.78857052626,-1202.66974146605,-1449.65962727203,-1687.82704144961,-1878.13086996458,-1302.91634241877,-1766.01775254853,-1187.42536194821,-1401.74755195063,-1606.52082205968,-1769.37316820399,-1244.1794588826,-1653.70498361844
-1061.6964592143,-1318.24740643828,-1132.78319136257,-1190.10630520571,-1277.18953825322,-1044.48464648323,-1174.17782567532,-1253.22465241905,-1145.26808565936,-1263.52163733044,-1294.96795777283,-1069.21413066035,-1169.58167662236,-1293.59325885171,-1004.03048294568,-1139.40558521507,-884.706466255905,-1082.74104907269,-1218.67920426395,-961.791754405937,-1200.37921514305,-546.700677619379,-1005.48327125793,-1257.24833924806,-373.864167349568,-1112.23491462408,-377.289809097679,-658.388554876328,-1063.20428414469,-1635.63508440707,-370.812336666841,-1090.63141655422,-70.2143189447274,-298.322037405278,-1404.74872040662,-684.527722541153,706.36940110985,434.63749807229,-1017.92949166034,-1430.94575548969,-75.0773240449739,975.596283933904,-1453.85340993338,584.611183752353,836.603914863714,-1146.8208167716,-1532.35689972826,-1273.24362269357,-1467.56057652723,-1655.53671513097,-1180.56450911901,-1574.60859210965,-1061.08038268373,-1279.55825973375,-1482.39645759264,-1635.99343812211,-1159.56774309729,-1557.14425905091,-1072.00515226969,-1248.99078190935,-1425.26526974771,-1557.9373765508,-1126.05006877955,-1458.13983127363
-842.93337506401,-1041.5391457422,-938.050798713479,-953.750372642795,-994.209584645825,-895.804009743134,-985.726820867109,-1004.47959517935,-968.516944974316,-1047.39950109906,-1034.21826232498,-941.43393223878,-1000.16091157205,-1076.0604109758,-912.675660321425,-1010.53143683995,-840.064067623857,-1002.62728486313,-1102.81418468546,-910.039722420043,-1113.2810545447,-571.309030665143,-1025.41962579702,-1179.67015364961,-489.176706736225,-1206.41127796084,-372.506745998738,-952.932153922441,-1218.92597637654,-1906.55867178004,-791.251948309215,-1043.36200349124,-349.205483469098,-449.403365867223,-1427.28486745717,-738.765461580066,275.562913574088,-81.757508711554,-1019.50321722262,-1362.55389386465,-121.776409495854,396.10263815064,-1264.19645589667,189.118897459985,156.419572951344,-844.345517195219,-1154.20043902898,-960.128338306283,-1114.81499285932,-1249.65699405295,-894.746496285462,-1190.27613062196,-820.559735413066,-982.854828447471,-1134.92410297593,-1238.68182462969,-904.906955706831,-1199.50430072571,-856.051663089605,-977.000382596688,-1103.15305451418,-1197.07659753965,-904.471564707473,-1132.36484378153
-665.753595001454,-808.414982315353,-776.817946728997,-753.985483104493,-759.841639190267,-773.103615128107,-822.49437805476,-793.024139106454,-819.383271596478,-863.297544009344,-818.010859865471,-826.458282117295,-847.509774306929,-881.793910350712,-814.836039848086,-887.435843654335,-770.728438649913,-899.640773722438,-976.426804896773,-842.152141538803,-1000.42332051509,-611.197608621334,-1018.53849492306,-1057.21726364945,-690.310045395287,-1189.33723431021,-411.449546374992,-1129.51983488161,-1185.332651028,-1846.99431383305,-937.145145405711,-780.082436600981,-664.264038190264,-462.273999028629,-1189.79575804422,-564.500783013254,-89.2861831211897,-648.991487530935,-882.469095701463,-1087.33863029737,-242.737709360364,-163.318583994877,-989.242077918867,-208.090399107771,-469.923940393226,-601.677129914346,-811.695038628886,-697.454872622812,-797.603014666391,-877.810617089867,-671.417184077963,-846.508325229842,-640.09014438832,-738.52439699539,-836.684833174088,-891.611048691412,-704.301425162585,-884.727875627557,-690.130149280576,-754.264923464617,-827.589908717135,-877.332944849548,-726.669695597284,-854.269643229993
-554.532148918395,-666.471851986745,-675.000536404602,-631.250288203694,-608.650599725581,-695.417416881793,-720.372713484737,-658.227885179607,-734.503200790857,-749.712823178698,-685.520084196991,-753.070060936831,-755.947896037397,-760.371730819423,-762.575485440257,-823.661040861662,-746.681880916162,-863.776074533129,-903.330720206353,-865.256556421815,-970.777725673169,-778.781262779686,-1137.61482964508,-1005.79148031344,-1162.53583870341,-1264.2429350696,-783.956034027829,-1418.45241985394,-1032.97084401061,-1867.45119124958,-919.604884366394,-618.939392556327,-956.735139064286,-515.894298882177,-1084.14759878536,-486.855123028799,-370.455758523013,-1041.7923164865,-858.661590268914,-891.442862816019,-457.329032919327,-699.668551556203,-795.699883777973,-513.055189917271,-909.524033589925,-515.026441882531,-612.204120989915,-570.350155754387,-608.3870049367,-642.435591557638,-575.882346953191,-634.270934316062,-561.557251955876,-608.62195950658,-654.102903623608,-669.063263977189,-606.342376970219,-684.521044681073,-605.599346433894,-630.202661048747,-658.089953791981,-672.485511210215,-623.824991497868,-676.145596155991
