-5.87221147146279,-5.36473640602774,-3.76981477180328,-6.37968653689785,-5.07475065435056,-1.23243944462799,-4.71226846475409,-4.42228271307692,-2.89985751677175,-3.91480764764186,-3.76981477180328,-0.144992875838587,-2.60987176509458,-3.18984326844893,-2.10239669965952,-1.52242519630517,-0.869957255031525,-1.73991451006305,-1.59492163422446,-3.62482189596469,-2.39238245133669,-2.24738957549811,-2.17489313757881,-3.11734683052963,-1.23243944462799,-2.10239669965952,-1.73991451006305,-4.13229696139974,-3.33483614428751,-2.24738957549811,-2.24738957549811,-4.13229696139974,-4.71226846475409,-1.66741807214376,-2.46487888925599,-3.26233970636822,-3.84231120972257,-4.42228271307692,-1.59492163422446,-3.11734683052963,-3.76981477180328,-4.6397720268348,-3.76981477180328,-5.36473640602774,-5.94470790938209,0.507475065435056,-4.27728983723833,-2.89985751677175,-4.27728983723833,-6.52467941273644,-5.21974353018915,-5.87221147146279,-7.32214022984867,-7.24964379192938,-5.65472215770491,-5.36473640602774,-7.0321544781715,-7.0321544781715,-6.59717585065573,-7.75711885736443,-6.88716160233291,-5.7997150335435,-7.10465091609079,-5.65472215770491
-28.0085023466172,-25.3830554242736,-17.1627207131588,-30.7064457068802,-24.0070796479388,-5.6304077356648,-22.3596063654397,-21.49110565454,-14.0497435150247,-18.0681979150841,-18.0326779681903,-1.41295226736031,-12.6012713007706,-14.9907406638436,-10.3383065680234,-6.57140488448378,-4.20042376692354,-8.47334397176637,-7.35037745608324,-16.6922221387493,-11.424296592681,-10.3013300769978,-9.59485394331767,-14.1392716543249,-5.77540061150339,-9.90332794050763,-7.96586890633131,-19.0276833094158,-14.9537641728181,-10.1563372011592,-10.3013300769978,-18.5927046819001,-21.4896491104081,-8.12935002768268,-11.6957940988454,-15.4072310458466,-17.7967004089197,-20.1861697719927,-7.20538458024465,-14.64674671976,-17.3802100269167,-21.3631444800823,-17.5976993406745,-25.5280483001121,-27.4825390356694,2.5529504844244,-19.425685445906,-12.2373325670423,-19.6431747596639,-29.509526209146,-23.3176352156396,-26.3410842744735,-32.6409916527929,-32.6594798983057,-25.0916131284645,-24.6580910450806,-31.8449873798125,-31.9174838177318,-30.7234774082612,-34.9949410689722,-31.374488805403,-26.794551147502,-32.3339741997348,-26.6140383247697
-53.1820471037377,-47.4595985822137,-30.2125144850882,-58.5960216280717,-45.11074419026,-10.11059234026,-42.3011808306441,-42.2152911714378,-26.89441995761,-32.5639163891546,-34.6304275657696,-4.61436663681362,-23.6940965561378,-27.7592821884157,-20.634071447983,-10.8304616952271,-8.33301081289501,-16.4300440665193,-13.6266318335563,-29.3451047421696,-21.6794465015209,-18.5860485168807,-15.6988936951195,-24.8366074197608,-9.78363009755728,-18.4251149076423,-14.38456864753,-34.1265561148746,-25.8562521331521,-17.825564190794,-18.2960627652036,-32.642563953727,-37.5207855603662,-15.9153269064502,-21.9226661554257,-28.6179932925685,-32.7556753627657,-35.7334144262542,-12.2136795661959,-27.1720685904273,-31.3169927552586,-37.6755680429518,-31.4790173324782,-47.4951185291074,-48.7713761176902,4.79848307408599,-33.997503972436,-19.0195357347107,-34.6670036150907,-50.3191312124377,-38.6618398798576,-45.4151792656515,-55.1324640519423,-55.7577451089374,-41.6791029464845,-43.8746662655382,-54.3031217680304,-55.6620658429843,-54.8167828256725,-59.2342605990953,-53.6532013388697,-48.2494168629873,-55.7233161300248,-48.3955007068068
-48.0222115527704,-41.7885316146864,-23.7997938518559,-53.3420812263141,-41.0231137333298,-7.99211432852746,-39.2772150672564,-41.7168151698932,-24.2021392287733,-27.6833298244959,-32.7298078694858,-6.50858245327932,-19.7890821995693,-23.7612484473526,-20.6734057728377,-8.45815729316422,-8.73282083561116,-15.9533716578147,-12.6976642542826,-22.7899846141357,-19.7964453959202,-16.034719471085,-9.15851943674421,-19.9665097204971,-5.36557643820275,-17.1146042380138,-12.4029031856059,-28.2312987593331,-20.3180250992026,-14.5887947689436,-14.8762330085081,-26.879997220719,-28.6272313292072,-15.6166601756042,-19.5999514725492,-25.1201521550676,-29.2188230331763,-28.5385551851394,-8.01080117954945,-24.6029682173638,-26.5578965311782,-28.4771837963822,-24.2641064340588,-40.7369705689418,-37.8184122258767,3.5469827286998,-26.4279061573436,-11.3668170856762,-26.5420736688098,-34.9980806608791,-24.7626211803378,-35.0592938113661,-39.151039071382,-39.6509119677172,-27.9435584721399,-34.7934291191197,-37.3079293624297,-42.9285474913481,-41.6933674307833,-40.0602781261183,-36.3876482640101,-40.1329183733969,-39.5610641211908,-39.3170151796955
-13.7965943100892,-11.6476555951787,-3.8122610407304,-18.6191970875623,-15.3030010547898,0.987121294010161,-16.5773047738847,-19.0213644175225,-6.60285234342959,-9.68156890956094,-12.6052411953989,-2.41354556562655,-2.22605881823609,-4.83185558974429,-9.30346960479525,-3.20034289865473,-4.46430226225394,-7.93505022572861,-4.66878321364682,-4.76792599700744,-6.89990383055701,-5.63019906928455,4.54720270227925,-4.87932926994011,3.39326778568331,-8.37319479243442,-3.93711327055977,-8.35421737869411,-4.7409698587964,-4.38805075238639,-3.66085856830839,-8.10064943807123,-3.68831362256105,-7.69411256940915,-6.32384182351035,-8.17994452645789,-10.0509873120245,-5.02409827766597,2.61877181123287,-11.3000735991147,-8.95756491099898,-2.00897269872277,-2.55719744804403,-11.1271070156855,-4.70050069698038,-0.351019312296574,-3.82093743316875,1.74352348142493,-2.47351884908233,0.798176485276664,3.289572080069,-7.6163671151201,-1.55728080126997,-1.01571028960703,1.43245904652799,-5.73450743315882,4.05511820483378,-7.32848818393674,-1.7245306258452,3.65378325560151,3.99732277969544,-10.2836113058217,0.907161671587608,-8.16460549571834
12.785569047309,10.7790727410835,8.4433167352914,4.19775328130943,3.14260248446994,10.6397468890349,-1.00711237959664,1.42284823028135,6.93253642161828,0.38789208098369,4.24768512710879,4.73573601500405,9.7021226667309,8.96897830781143,1.58339649285029,0.790481685233856,1.49797219682213,-0.734824470326753,4.31337559108303,4.01146280426058,3.54121296370515,1.13129302251804,9.15250662950833,4.27055241254022,3.89269865015689,-1.47919004997084,1.97257204481309,0.636299699985295,3.84242961608654,2.24856420781575,3.44850492042086,3.09057740720939,10.13854564159,-1.65980449002519,4.37402277205043,3.24258426149599,5.03884748450698,10.1639855982806,9.52309129504176,-4.38575441495244,1.44025083430697,10.9637976341616,8.05073452043261,6.56774467973301,13.6914254555941,-2.28743591118662,9.89710905983635,6.66824223352741,10.7505625089426,14.4732218978158,12.3826661387667,4.86753507773354,16.2595747650218,14.8057044679398,14.742349986189,10.4998201350412,25.6803084554954,10.8130585188232,19.9018600301719,22.0289183410434,19.6901951757161,8.55513448447724,19.3168423467975,8.25907793417126
14.625235841986,15.7155936658886,8.9308667505197,3.84293217304934,6.39165466484066,14.5420912987231,0.324064697576019,6.14482559930974,6.93773594181832,1.49110284296495,7.51320327528604,7.55172242606839,7.06585075448722,8.93163424007742,7.34646501560002,4.74029465187723,5.13657751305307,4.06286515577706,8.66172883586232,5.2682966989906,7.60312009508992,3.22078448599765,3.03921602675444,6.19663916307525,-3.27211970666738,2.00388063276052,3.57110134513162,-2.10270455472924,4.19854686447511,5.75599023980515,5.94262366131368,4.97787343739291,11.2098090521275,0.630858131898799,9.01109738600583,6.17049990126772,9.40572142030916,12.1228807317428,10.7753715470805,-2.20862594553148,4.54984437448291,7.60819894569696,6.93596151655079,7.72108598031495,14.4345659088259,-2.45703403559205,11.1217900088847,7.01254075116345,10.644073003587,8.24252307830196,9.21781856207924,3.33010440824739,16.2625580021733,9.90006857094894,16.0274425047197,10.5768995606557,25.1928077497833,10.9646588066679,16.6344804192159,17.6660181442853,12.482367427566,10.7316668209695,15.064989591561,9.13571345237528
5.01620771213486,15.9602906181551,5.79380183757689,0.523773113165539,5.50659658192139,9.37190605129378,-1.6363302758708,0.695485771818121,0.0989164095572366,0.756944591196688,3.71165175468658,6.42600452435862,-4.25842646717535,2.46451350911748,11.2676424736375,3.69693374872546,4.18609399027363,4.92845500677523,3.9490894130295,6.92875299908994,7.91354076371163,5.02021064381702,-2.39780087631869,5.6687823094805,-7.30668902257001,1.23153769602138,5.54852975850849,-1.56333992331088,3.22993732641494,8.32814216089812,8.12332860650497,6.37363232414437,10.9814258800727,4.37364483558534,11.0887208459869,8.59424675026766,9.53365165691704,9.66927903266001,11.4095322956995,6.12674326095594,8.54122285089781,6.46233900913227,8.30477968897492,11.0020979774847,15.2447709978211,-1.79064942366388,9.65014897175272,9.9830049818537,10.8077863848874,8.84319972501167,13.3724804123513,5.36931638610818,18.3172803763367,11.0551930929724,18.4906654757974,12.0245888753467,21.6102372954827,13.1518138086682,12.6505072131253,18.0674367132656,12.4252889549652,9.40597232740688,13.9548461978153,15.2183465174124
-0.426124853193842,15.924772568424,5.46306876815441,3.8397959714082,5.80280089457335,1.71018579122599,0.0370953157191557,-2.32131716089366,-0.283164994217371,-1.96044862150176,-0.13545555727188,9.31653598152997,-16.2646932724865,-4.519495214137,9.00871483382865,-9.58416985988432,2.3287057147066,-2.84566401983617,-8.02351848162841,5.97409991986847,2.51390969912229,6.39786455079687,-3.88335173910555,2.50571011906434,-6.2818178887079,-4.78701125270315,8.45560713614623,4.27981345911615,3.58195396100406,6.70287250318349,8.84048823072119,9.03538877809892,11.9552646695858,9.92693694003728,10.1829124400251,10.3897018491307,10.7261378186035,8.12846186511662,12.0060118654306,15.8201962158754,11.2898263671155,12.1012413656951,9.68285556251249,18.6975965658113,16.7764319024356,2.91784060351114,10.7244472187418,13.8188440864122,12.9835419080106,17.895185903144,17.9698513688792,12.3105655689533,21.3154305603247,17.9815763793872,16.9461012924811,17.1445453455004,18.4955733634783,18.8989020450032,14.4564833036536,21.9020802556707,19.3552627271153,9.20296615612239,18.2535005829977,23.8674016477895
5.29167709473314,14.2039796541685,12.8147137884407,13.4806144137857,8.41074928506124,4.77539208581067,9.8040274262465,6.28397411815886,13.725250609947,0.460965007545224,-2.33484606917418,20.3974485561502,-19.8090040148189,-13.3104251883491,-3.13847507182723,-29.5970758039056,3.30753756156555,-16.7163656780912,-19.797338129551,2.02279462812204,-8.71329829101145,7.181356800861,-7.9002012776521,-1.7069217281592,-4.74913446994335,-10.5454597010468,7.4486218038045,7.33374753312641,3.37008434496721,2.5941973033949,6.41652092542609,10.0302456386495,12.47264690411,12.4158242421736,6.91201660734671,8.19120857202652,12.0783372177721,9.21020790663953,7.62717130740301,15.7959639406042,10.806354727499,15.009613757741,5.58347238069458,21.5274457698738,13.3153248883744,8.19072264093837,14.2043787316069,14.1238899756904,12.3248659808804,22.2865595810741,13.8663132872856,16.0435919814208,20.5762982651941,19.8047324915793,10.8402765171131,18.0099748961904,16.0199342341449,21.9955123073928,15.2111669784584,20.5684406431917,17.8346116742735,10.2926469172346,19.9766276632424,23.207560800461
20.7969057885555,18.063658088016,26.7356248012965,31.6720509522233,16.2243265163269,15.5939723073002,31.036522606924,25.3377704724834,33.8929271697808,20.4126304614019,-1.27219295187879,34.1742228069015,-7.28754689271865,-19.0014535919121,-15.0063326831132,-42.1845734430826,4.3691661201435,-28.5469666583802,-27.4127758047502,-1.42221596490646,-18.2492635763615,6.92259798383878,-15.1093625747827,-3.88820288265866,-1.94470982978686,-10.8050570265084,3.17010565933518,4.58152252847802,0.505694108154935,1.47060836935168,1.55592616416104,8.48575561395994,11.0184749042946,9.65652055121179,5.97569585189074,5.47993766808716,11.815706404281,11.6823778027213,-0.291198293838239,9.92665379274898,9.89058859888395,11.4172530125132,4.81465857495628,19.4853228909419,11.7251061668929,4.57143581311189,16.7208595371619,11.4716975236919,9.77038180968237,19.8322849417616,8.86519443937674,16.0712492608477,19.6865162439703,19.9695647721026,9.93584509839503,14.8476862196968,15.6934237377689,22.6117055550092,17.4264468416273,21.173033090047,11.2935774969701,14.9262549583871,21.6336382877001,17.6585661042595
34.1683173837811,30.8452366630048,37.0687035407786,53.0930692642216,28.3438278248787,14.2572910902749,55.9444524718407,48.1566958674368,44.1572397297452,51.8858585357748,7.15102057967041,40.6656186904627,15.5876869147271,-10.6205578952826,-19.0839464583381,-42.5148408055937,3.37783830203624,-31.7441393703899,-29.0889357883875,-3.3621197540785,-19.454972748607,3.08345464779409,-17.654462919045,-4.26019056725303,3.50770240321365,-7.72662962962126,2.71617056045954,0.186140550031439,-1.40531095596517,1.25062922811439,-3.57651260160228,7.02755973835866,8.00715387316771,5.31281829161158,8.05762332892349,7.33336732362043,12.0448719843214,12.7833156837072,-2.998463182086,9.3556073480799,8.77628920385492,8.09331368451486,12.5814801619891,19.5197215066794,17.6058773133889,-4.69866308204936,14.8821477385284,8.9748933838909,7.51620372534199,17.1842161101396,8.08317920797605,15.5384614980565,17.7046539255324,21.5255986051485,14.3601222339462,12.8854734896589,13.7794461333713,22.3973899099108,23.1442423519969,26.0784565318198,11.5984565309433,20.2406363797336,23.6308901163909,16.1027286162386
37.7990799060614,43.0853246569862,38.4382156567173,67.2230484695153,41.1298716818709,-0.436967184860463,70.3721069507623,69.3589103928541,42.0780640545587,76.0034057855082,25.3971763266318,35.4551763432434,35.559791939399,9.73188923048833,-18.5100746506626,-35.7240176782167,5.04297481522208,-22.4508136484287,-21.2848319045967,1.00292873185042,-13.1351265909308,2.01061784391625,-8.80848311660083,-1.76494546325136,9.89266758347255,-3.03814788063454,9.39777020885936,1.87268401995981,3.61352304269393,1.33386572273236,-3.04489428390261,11.0781306267789,8.77730577088314,5.22342648786566,10.1833829110378,12.2719724135502,16.3343354832179,13.6344200750387,2.81723259992957,14.1556535793015,9.72600190286569,12.9406990263792,21.9724990218736,23.0207928827215,24.2728931232002,-5.43857682263198,11.315719597334,8.00748533495568,7.35342677736246,19.104884414382,8.07751899434636,14.4047686119572,14.2016488449543,20.4661128586299,17.9523260628494,16.7036131171454,11.2488205335671,23.7564282202762,26.0545161855256,26.6204126343329,19.1506475341342,23.1081840175272,21.4322558095537,19.7816844780043
40.6232967441941,47.2108413413889,38.4587636996691,72.9763309787004,52.3396508065207,-3.94481279716573,71.579169220949,82.3863749311131,40.6518790847267,86.4774228644536,47.518329950206,27.3037596057546,49.6718134503768,28.0715988807703,-11.3650064758993,-23.5656994005005,15.854860407903,-3.23528317804655,-6.36887412552487,16.6168913747568,-0.852256480174677,14.855240066512,9.14035011612368,6.61198832286237,18.8767619461946,8.73915748268352,20.9100871472433,14.7546304352548,14.110364617356,11.3223830076817,6.72022320716311,21.5196390195624,17.730377113173,11.0685836420806,13.6494866332756,16.6532684073879,26.1226629409021,18.2244281652816,11.7515675192812,18.4512039127704,18.4484950471994,25.6640989507811,27.9634157983772,26.6547811141517,28.261970127685,3.15241856113741,12.5090107482151,11.0122525885455,12.9532715598908,25.7916446920895,10.6796796500791,16.3148422485626,15.8712878358516,19.4967871982068,22.4908741069774,28.021500595301,16.8954313751116,30.2785568252275,27.002433140529,25.471324538734,29.7676734917263,30.3501865342925,20.5345536894428,29.8116048152612
49.8428893312468,42.9107176270732,42.7353094655025,73.6379553599749,56.5804242431879,15.1660128145269,67.9076433974946,80.6382608544796,46.9214928936382,85.560483103627,61.6373956516208,30.5815747219534,60.2901670645109,36.1908576247848,6.0991589474301,-6.16048577835579,33.8270718722602,17.2163228128015,7.03016691547847,34.421008901145,15.4728179740745,35.2467162078786,24.3925304430421,18.4446776441336,29.3682510376696,26.0976384567044,30.4807927768127,30.2366168606847,22.8289315383108,29.1901166370551,19.163308276124,29.271262784191,29.4198168583466,17.1376380149101,19.8450353821643,20.5874800736027,35.4101591833924,23.6143075889601,15.9910610548988,20.8257970313937,29.3990073893621,35.8032525564761,30.5209632093456,29.876002273585,31.3572268813923,6.13467882015855,16.8727339238771,17.0848536481613,21.1577689035837,32.2134062207117,18.2313391463323,25.0313803790812,21.0312834573762,24.100193602223,29.1163945904778,38.7160708157466,28.5538862489507,38.8734564243796,31.3725522923422,33.2058065335929,40.8179381458021,44.6811858635908,27.7779147927061,44.510377149241
58.9946336479928,31.4266930657343,48.3949159293493,68.2981570758208,49.5519682578255,39.0996576900745,65.0915698725977,69.1149591888202,54.3328069270725,74.9050769866337,64.0749224490309,44.5002500697257,63.5914734994318,34.7095356774078,26.5106418228518,12.5631146120475,47.0003759534006,32.7030880259704,15.8207473860645,41.4853495750514,28.3900507611798,44.4957225767057,28.7801727463744,27.5548441097237,33.4959832015086,35.119035591172,31.6203192422987,32.7782411140168,27.3984016559453,36.4785427579983,26.5261377673087,28.9832435946807,35.8565848614948,17.9945064980674,25.2222324783984,24.6313124008556,36.0673872526285,22.9025089464946,12.7439242591473,21.6935870204261,31.5093418547274,35.379421915961,28.999134751597,33.040935824864,31.4300940137492,1.03021005388982,17.3599494867683,18.2269220645656,24.6047066096388,32.5153570488608,24.5597082694919,34.9005549674351,22.1851648648987,30.835543743324,32.0707568120411,40.2608867022956,31.0874506426598,42.7278778360953,35.0637869244592,43.9821330581925,46.8766099550746,54.9117114062744,34.7928316953703,55.0162783065026
59.9859417108293,17.134868424815,52.3079818086185,57.9531766731763,37.9934538669846,49.3104124153003,63.2835928370428,60.3753324902628,57.5426288703828,64.4137528283757,62.6427477780356,52.9579696454763,57.9478955711651,29.4052227278621,41.0149024765534,29.1515505788437,47.7029239313253,42.412754196802,23.3538873965953,41.4315941950679,35.333609002755,40.5265684547293,29.3374600807162,31.7063753542147,32.1195157490423,33.4726280224556,28.571505522379,25.2021098528273,30.9362710044185,31.6110509452976,28.8854030481154,27.9567807737508,38.0935540862506,18.27606059096,27.5913112635754,27.0343996198364,32.68484052922,20.1411772128809,8.00985248431229,22.7770651648897,30.0884250526495,31.6769023903727,23.4114586181956,35.5237476277563,30.2256331589774,2.2624704546046,16.256564675339,14.3201779504067,26.5577313427252,29.8873380649808,25.5450700635047,39.4648166546665,23.0243113011446,32.813907340539,32.9769118583997,39.2919570690322,23.1957670729191,43.3884729957434,32.9259947514615,44.8033997313669,45.719632234838,54.4291973781545,33.5908382706045,57.2983448539605
50.7609839009889,7.19753650451404,49.291804926327,45.4997960287955,28.7291118574531,47.3879894235707,58.9036914870596,52.2337601796651,56.0290649626183,58.4211478342672,59.6478088485959,45.6543294690063,48.0207080681766,25.6268004783769,50.6466300406685,40.9880642511273,42.0932179947169,47.1260200349611,28.6161641238243,42.3856220587449,41.6216236941894,36.7052617180321,35.7428703976318,32.0085162616295,32.920737153742,34.4598109008729,29.6059054261098,25.2117276737125,34.7438640486362,30.5768888507234,29.2998915291544,31.4191046351291,38.8187576918995,24.096032940009,28.0517527251256,26.6945808571552,33.9949458133303,23.814207305702,8.87372517986735,26.6094020343986,34.6795223471049,32.5362715054294,19.1779716488439,37.4079551772146,33.0544909219966,11.170740964541,20.7262959064762,14.9943873327978,32.9853901374916,30.9804359745772,25.3633017773172,40.4980329893152,28.8679838145413,29.62837216217,37.0280793698494,42.1617961936573,19.0860401535367,45.2165550845021,28.286012206197,36.7726863564431,41.9117798940549,50.2900720008274,29.0302537619007,53.0363519912042
28.7044276739795,-1.68046117086657,31.0351470950103,25.5365852716723,12.12493391737,38.5505764160774,42.5326025933505,26.8150862546536,42.037124312868,38.0775080902684,36.2754563042073,22.6815939491023,32.5600914384661,15.034037133457,53.4613842617263,43.226429828305,34.4427165876304,44.2156213421886,25.2469694633022,37.1463185210932,42.3758200621568,31.5345282811595,40.9885482190818,27.159340107717,28.9049195059435,37.6108137854115,29.4301307224959,32.2424721369915,33.6415416268979,30.7256058781569,26.0676435574364,32.9013459558373,34.3639027226097,26.6064214576988,23.9233982153124,21.8112386062561,33.238731702462,27.0656771446685,11.596244342611,28.3937741404514,35.9727367866215,29.8368000514149,19.2232272117542,34.654911246714,35.1553849992118,14.9860566837405,27.5261105864479,19.8734878453648,37.1561785631817,30.9585178893955,25.5815010953267,39.1112437769517,31.262944697052,24.7368994025141,33.7635829005772,39.0214000058401,17.7044472648383,41.9190149277106,22.0401126642226,22.9655779592964,35.143434662544,46.3695865443615,18.5435490828549,38.9623996295887
-11.9520216386842,-23.9516988560103,-4.6739554438772,-10.8338040933189,-24.7429477154779,15.4096507336333,5.24497934078011,-25.5380188484562,6.22879820129647,-10.6130295101927,-31.0919298249292,-11.7225318542177,4.96257641548406,-16.4481014705874,37.1989965184514,31.1251925155522,12.3263933510657,25.9759343819461,11.1509419625805,14.6911434085437,24.6745375818068,9.14585202404834,27.7417007953657,12.8057048652596,7.15971866917622,25.7886736712541,15.0305248424179,26.7917045849233,19.301071349756,15.249821337214,14.3126013407699,22.8068680892941,20.8536700649117,13.2414582022868,9.97157295547803,8.35956644123837,18.745664936033,15.6636712201001,6.43256125214757,18.6055947677818,21.8760508839434,15.5222016810055,14.1104367810132,20.8040370420798,25.445641410398,12.98543081877,26.8460004401922,20.5218879062822,29.4332894737819,22.1527864043031,21.8864332870596,29.0327944658816,20.7056911798668,17.6322429469193,13.4471375300266,24.6587643733905,4.7825848167197,25.3105785784507,7.66090480713234,0.286193258262361,17.0196075498546,33.529731359175,-7.31085813209537,12.7101846140778
-60.9810208746733,-55.7164390908392,-46.6093054547519,-54.4549986747837,-69.0583518699885,-21.4712749212265,-43.1781879527268,-88.132724480699,-39.8522586820669,-68.9994098941385,-122.610997043055,-45.1030757514494,-30.5149876966294,-57.9614144832484,5.47325962733208,11.1424291718823,-29.4725282685854,-5.53567096098039,-7.15061127371261,-19.7076489403169,-5.12133182792729,-27.9294498557501,-4.80321443806191,-8.66196783943791,-24.4740731785308,-1.29622969444425,-11.3273999145479,4.99213832042054,-5.15847825153672,-11.1983951417613,-3.5807079416135,1.05621815407788,0.815958658032809,-8.34379456228503,-9.15867012903735,-8.08314289243942,-3.02237548897148,-5.47770300681005,-4.99524619330241,-0.486201346682177,2.4346714272709,-4.18174583737389,-0.309548197222715,0.234187252158516,5.42236628152383,16.3237072484791,18.279751094296,18.578569644554,14.079814792582,10.7978719873557,16.4662581828164,10.9791074626813,5.73243325500421,8.49748690376995,-9.47773170979479,11.1573781101955,-14.2666752405653,3.01273560599466,-11.6702162228951,-22.8096430917514,-10.246549259607,7.62622270203923,-36.6438441820478,-15.4567746581118
-85.8837617545304,-67.1558014686212,-72.2957224209476,-76.1136964832188,-85.0765937910508,-48.9393079964531,-74.3728394770875,-123.174412437162,-68.4716573471983,-106.629615363756,-167.276828413467,-60.2070101206966,-57.7863848593608,-72.6587626886361,-10.3340807848794,7.28624120190968,-61.2157399438301,-24.1529352329574,-12.5054141700317,-42.3155989637879,-19.3313974715227,-54.0929542623599,-29.7568270206563,-20.0854548265081,-43.9069696701797,-17.2123484186105,-31.5471408360766,-11.3447112148752,-19.4541937046002,-24.6092007607857,-15.1165153469374,-14.923505792578,-13.7881671459116,-19.4577847958381,-17.8046690895937,-10.160015885639,-12.8280328924943,-13.2736619835904,-9.58425236341458,-11.8127122485001,-2.29427430334922,-14.9530624513245,-8.94217935621107,-10.3646459575218,-6.56949905413829,28.8923739494243,13.2138771313703,21.2782322137744,7.47039697710681,8.64208753229118,18.5675718013664,1.59491558275276,3.31929788531373,6.47980544175821,-15.4833003785033,7.10942687273783,-16.3944823030393,-6.9521996325571,-18.2480323274906,-27.4025672533794,-25.1476098621484,-11.0561617930022,-43.0446547335301,-27.9723482923847
-68.6885757683464,-40.2424527529249,-67.7679844038175,-60.0500489927866,-54.1312818373783,-51.6353842353447,-74.7653736618346,-107.455640173954,-69.8741338477758,-115.082120204062,-118.763618630243,-60.570914401141,-65.8755110576926,-35.9601242286246,8.445615006806,37.5943105239502,-50.7171172058267,-4.99304355538336,14.5594195310626,-31.6749711007675,-0.0483199900485647,-50.0690942280642,-20.1028647889389,-4.29226822883414,-39.255638646437,-2.33767212245933,-34.3918208050505,-1.51848368551964,-5.75026112205284,-14.4537755926269,-8.21101247002408,-5.06941914595871,-7.86393264879931,-13.2885518556618,-7.53158619139368,7.45844383646592,-2.56627816338043,2.88419326773089,-0.861806291815345,-2.97331102211403,10.3444727157049,-3.90782026543838,-0.587117530822177,0.0556949075410379,2.5043963885347,41.7400669697383,20.9549194263046,29.3046267222166,20.3726682458454,17.7617539932627,29.6114767735249,12.8543520020963,18.4520342828594,19.9680197124845,-0.978542152525801,11.426083700783,7.15268656323745,4.64347323417708,-1.86508756388279,-6.47801817358296,-11.1207787128984,1.29297825762349,-17.6077396672063,-16.0033966119737
-31.3957598534071,5.71285036462378,-51.1642325062331,-29.5634901582169,-0.575080718136375,-46.4596311900119,-66.3361184440696,-65.0327834126898,-64.7448813276189,-112.630533932135,-14.5396441914325,-80.9131983567792,-59.4956013075349,34.5835872554773,37.1467864551229,85.3570014055294,-14.214549393156,37.3948527242664,66.7907382892773,4.19745703712541,40.4586954550613,-21.7705506194922,16.3042427859705,31.2684487232667,-15.0533467561636,31.2231213466954,-24.779397263545,28.7704805774249,27.3854061952245,5.39957001683101,14.4227514320241,21.9191985694132,15.6490017241328,2.83908960112872,11.2489527215677,27.5650339353586,15.5900862180902,24.9342620454306,12.5371059924203,17.2094787901808,24.4203050669711,20.6168374130753,15.7586843853255,20.046894621865,20.6908955178536,45.7803858795008,36.1567876035078,39.8315294567528,41.2403304074524,29.9274761291115,40.0450136227507,33.2721197333285,40.2676000554171,40.4900674865839,23.99222150116,22.2263203626327,39.2364351785281,26.5296209959937,23.406964268227,23.7028291890934,17.9385491621809,31.1691345654663,20.2541168149421,7.29031308955114
-6.74596024414566,36.3060511791961,-52.0544992972332,-17.0189668582026,36.7900538762854,-55.7547096455664,-73.7602356482501,-33.2308050718483,-74.2802311597375,-109.11120998889,72.0253226216119,-136.390292789836,-48.9827947801605,96.9082661988332,43.9281955257558,116.744583572152,8.61956627242908,67.0787276686303,106.238188999826,36.0443314738296,73.117928333786,10.4495859282982,48.172510037035,59.169747516562,14.4778734398467,58.2561468118291,-9.79122799667194,54.6154471274569,50.2784554586237,18.300087811733,33.2745759417406,36.4358879266701,31.4801585331989,16.7465955000822,22.53360819657,33.0870522655519,23.0156031932823,30.2993715162241,19.35618003598,28.8497912527362,27.1697938275439,28.9761465337735,26.2237779264291,26.6897205918158,25.6574726212269,40.2187241501478,42.3162593697552,45.8963358105189,46.0917325194747,32.6926481129923,39.5973891319806,41.4535295740714,49.6607827846537,48.8011314007251,38.250279174758,27.5454037470344,54.3513167416124,33.7656068347597,33.4935721513551,37.0392258701825,30.8929617276001,38.5575366454091,40.582206697849,13.4282221149829
4.72870027026143,45.648844841548,-63.0278006114974,-14.9592785764354,52.0536271782497,-72.9175616311837,-80.5512071311272,-5.11859739352263,-89.6399235804635,-78.8323194935498,112.149499710086,-181.375913603228,-30.3785260010702,130.085440752561,32.8865344469323,119.929961238259,11.506250551471,73.9583540150954,107.843629227039,47.406921338737,80.4754607862288,31.3519716176206,57.8569921631996,63.7733650503404,35.1225689768788,65.0846302626075,7.79588302679703,60.2771310745124,46.5848592665407,22.2710066670389,32.8237449882431,30.6068254999802,24.2789503879148,21.6455091125817,22.2039850929809,25.3061812768726,14.2938972074782,21.187589051767,18.3764976249093,25.219001376913,20.5083230796192,11.5452003215237,24.963035551401,14.112733622244,12.4416193988879,27.6566307054849,29.9256692341694,37.5852566122824,29.4657073416087,20.5104497710111,27.6637684605465,30.9854866173297,38.3845522530416,38.8840905385326,27.8190311674024,13.2505770157241,45.3747515426254,18.1023006476589,26.0742461641416,28.6385460219185,20.1828363985075,13.0490320524081,37.081019301883,-5.27092376443536
27.1935446383023,57.1894642751583,-53.9816375397501,6.57564440452779,65.3712492769211,-74.9166137792964,-53.8896241848022,40.0954244977584,-83.8936381203079,-8.70824311669655,123.169350870891,-164.808490017743,6.26053234004368,141.398194117515,27.2393365205322,107.33153654456,11.4603537659248,69.7761975321853,85.8734462155681,42.7066964628088,67.5923243664793,36.2360563364205,47.6411637370442,52.3613086769237,41.083472357823,51.6742720065296,18.5183750388607,49.5231764341655,28.514823604857,20.7008592995817,18.6119658793695,19.8205871280303,7.01758227777403,19.2100314338612,16.0097167426742,14.7487182624323,0.462132113302623,11.7550389283634,13.6411997950713,16.0225027552309,10.1310545453867,-7.37244183231514,13.8993839630964,-2.44983677042622,-5.46298022235533,11.9653232899882,8.19557996257376,16.8127588194377,7.51845222849245,3.76402606855645,12.8518846061288,12.1269669602975,20.484928744606,23.2238740682864,7.42142913493108,-9.57160666279234,29.4510510427184,-0.863364134209469,20.4043020382592,18.7234660316598,8.63395666161532,-13.8083293779849,32.5362215643193,-23.0560147876272
61.8793934919101,75.1556314221208,-23.1947675364157,42.7402367041565,78.0450207304791,-50.1866292386486,-4.10219146861081,78.652491853785,-46.220838554667,56.393208186561,117.895187718652,-91.3152578430475,46.7474657150096,134.635622114693,32.3356063386362,91.4540923857503,14.9252898373226,60.34366478149,66.7714746593227,32.6644291208433,49.485325853576,30.8592247689688,30.3287296142398,38.6395632631023,35.8930379274752,31.3574858413422,16.4033687389988,33.7628379515989,14.3404753376246,14.6543403219499,7.25607911085061,10.9014447951712,-3.147101616006,15.0951165999704,9.06842242549505,8.2882299802641,-5.75491629883018,4.96449940428409,9.98869306025148,10.3013133339923,-1.15535939428562,-7.66706124904207,1.42609067662987,-8.67683403738535,-14.5186074392925,-5.04179961048821,-9.25989279676886,-6.83648503856617,-9.88654010962696,-5.96555514982974,-0.427947984841562,-4.73539829503767,9.93116779145822,11.0132219134559,-3.35111713225151,-19.9944313389495,22.2217227501805,-7.51029387224394,25.6224536893712,19.6624716033922,9.94080008837581,-18.0753339137109,40.3932106072622,-21.0765992427401
80.1215095444504,75.4919593941025,9.02236637111295,59.0591665879676,70.2621560591347,-6.59982262560752,28.9263292642948,77.5437799344523,4.21701552596422,70.7088274177519,93.9565426499684,-6.4693679534347,63.1298936854978,105.60090100788,32.8450288532246,73.1357095769476,18.7583747654626,46.8454719123887,54.7026616268069,23.7148374438012,33.4527704110857,25.5336427911638,19.0012008718491,28.2086689196727,28.0264860310795,19.3846299773408,13.6058304254361,20.1092458520766,8.48465935999009,9.014888083956,5.25428153421514,1.3628583496271,-6.63326707767909,12.7375250890142,3.42540964370961,6.20119464917613,-5.56760503832194,-0.775370045321056,9.75906391389087,6.9884848780519,-9.35458435721369,0.393193950324003,-5.04693685355332,-8.27997101235509,-14.3173842040241,-27.8438999644699,-23.1867831257676,-33.6244577292308,-28.1800028927376,-16.0282780997454,-17.5020726329305,-18.191990867948,1.03083432564549,-3.14641571785959,-10.9568835501893,-21.6453297544621,17.2113415409758,-10.0558663875561,31.6713273026806,20.3756096231821,11.1951717281456,-14.5133542538994,44.9795827219216,-11.608176517872
69.2585300024511,53.5174662054277,30.1603631521774,45.7984380143755,42.0982278295135,30.8946552257126,34.5324065354324,50.0303454333985,35.8938955129569,48.4836237035378,58.9538132931188,44.4449332032194,52.5542347097105,63.3696527345862,19.3394200885287,49.336523379717,17.5653653730309,30.748783925508,36.1465057638394,14.8008305483775,15.7159036250338,20.5316391002372,11.2175526828648,16.9141737302664,24.1399142741637,12.5176054096614,17.185849739813,9.92206584622595,4.51532645535243,7.61384844110611,4.36899685900446,-5.27993838244512,-12.0681569388113,9.86517997290515,0.536606524319368,4.04693029679604,-8.52226945906224,-4.99831045336548,7.1735054062812,2.25839239229321,-12.6371907010589,-3.81986773407948,-6.66340252469785,-12.5248535469966,-14.666151906591,-51.9679701043105,-36.0068699241456,-60.9674992388047,-47.578292004769,-33.795766980074,-38.0086724339421,-29.4620707541896,-13.0489264043689,-20.4640701553996,-26.4571523275107,-29.0021828252676,2.41916195505534,-19.695412465276,26.3731254535943,7.89636335290869,1.01527757656913,-23.7656583422359,31.7277085696282,-10.0692889085521
50.9390516365988,32.9878636157274,38.9758281349094,27.3314345673735,19.5017992178824,45.3639785944074,32.9234088456797,29.7545806118027,39.2451080730555,29.5291888716801,30.5813931535226,53.4135973749824,35.2272183582853,28.1493527379738,3.02621592887753,22.7330644111724,10.1683535325671,14.1911920274634,9.96498577919094,5.2205667826512,-2.23582778772602,11.9619667626334,1.24226196240046,4.10784201853848,23.4508113108845,2.15200274305521,17.528594090097,3.69388360151259,-1.50293684993121,6.05204036537057,0.310216559903254,-5.63698250620465,-18.7687089219486,5.82544170018385,1.96470668056602,0.181651299636179,-13.0240000947557,-9.0834612458727,1.65543395824676,-1.19601470273903,-12.2490814261434,-17.1128026655075,-5.98811600931712,-17.0313946813451,-19.1331179306198,-56.0994661751921,-38.4435431978067,-70.5848523937716,-54.7683197238024,-43.5454525072811,-47.4696503518119,-34.6475656089665,-25.1958732440911,-30.3323988460275,-39.5974776113331,-38.8104584737766,-17.6634338955532,-30.9154568579288,7.322774951253,-12.3501969260089,-13.9812598105616,-38.0849617249895,10.643684953102,-12.6918153165836
38.6771340790971,20.3209633235338,37.6076127647943,15.2274922462369,7.6555111400901,44.3198805852549,29.4843150573989,19.0514116154138,29.0624374469968,19.9620344718229,8.54725080571496,45.8001483443804,19.4201486671317,2.94111765541752,-8.7079835949822,-5.38498124606883,-0.784909494346463,-2.19412542353219,-13.0114776844493,-5.17850958745485,-15.2445568145249,0.93546851219467,-8.18676637755509,-7.22900851395686,15.9429748695964,-10.789189307511,6.20501683693439,-6.04533876501665,-11.0651739814867,-3.79398365491729,-5.12298969491531,-10.0742371417025,-24.1196737223939,-0.264580706051495,0.140262815293429,-7.57365888037139,-16.9126915426434,-16.8989118283495,-1.48767278106552,-6.03033608121155,-14.0301992316423,-24.726744866611,-6.70185873939475,-15.9384722758193,-26.1192631012669,-39.7139863375743,-34.4057614932182,-61.9153962550403,-50.3424170435817,-39.8369905342759,-47.6228174774947,-37.6008332379546,-37.6178306968186,-39.4827830017386,-46.6026080317665,-46.5016614666062,-39.4785186168538,-41.8055338815074,-22.4862666073939,-34.6089871405378,-32.6024952591282,-48.2740289085164,-10.0987694406782,-19.7360546815207
19.6950034824746,0.542406910959729,27.1245243515776,-3.7337139301802,-11.8875572865824,38.2720862804471,12.9615779001072,-0.211366087203817,16.1439448115831,2.96631567994746,-20.8572747321574,36.3560662394738,-0.472434199797855,-26.9847534813235,-23.5713337677885,-37.5263326303214,-16.5124729615617,-23.2215069130962,-32.8643528371699,-21.3874883335039,-30.7426349718712,-15.0320997972947,-22.9329780044318,-22.833630034636,-5.7932927515398,-27.0016882301146,-15.5490312106168,-28.7189379079613,-28.7912917661879,-24.0080651410271,-18.2779940038824,-30.0469275088108,-34.193736639113,-15.4975482620152,-18.2342924099234,-25.2782673750797,-30.6921160352206,-31.3035922295314,-9.04644183392779,-23.1546108981756,-27.5735340327487,-33.3214071609012,-19.2481312918615,-22.1316790699844,-38.3317801457571,-35.629896225682,-44.5949991860955,-62.6687697139136,-55.4281474243979,-47.8382296309195,-62.1649870758704,-52.4597665580582,-63.0419514776055,-66.2060472057324,-63.1398032033047,-62.0032115153559,-69.2840887944417,-64.7413835335768,-56.5996491113281,-65.3576493782725,-61.9807498831726,-64.9270628668512,-37.3218105996661,-40.9145451452158
-5.45140656101856,-22.038961879342,13.7181600842392,-25.3339830868453,-33.8811860134889,29.6208875024933,-6.35124355103334,-24.8057881269445,5.88347937644853,-15.2411784711093,-50.5099850108688,24.1604464334903,-18.3919782582436,-56.9163637637158,-38.5230439705231,-65.3118264554631,-32.7629405139627,-44.9364903290776,-52.708121483518,-38.564719028254,-50.6783139060775,-35.1102720970719,-46.3009534887498,-42.973226181647,-30.2329121809941,-44.8910275784024,-36.1798057798199,-50.4392019697191,-49.1336792665085,-43.3106916832309,-39.2621734229974,-53.1975410789038,-47.4670439765967,-35.467640490478,-44.424753409778,-45.8278277444389,-50.8762294785157,-47.0279002381853,-25.826366123091,-45.3390228628427,-48.2552619877437,-49.9201985091449,-42.7516537280677,-40.4886546099729,-51.1779063803807,-52.8360088539776,-66.7075351500934,-78.6144364024472,-71.8281113402143,-73.6866177326064,-84.5654299623137,-72.8272184156411,-86.1287048381086,-92.3344891653935,-82.9812847314174,-82.0627695607705,-92.4228691345738,-89.4482561477009,-77.482418594392,-90.1760376029634,-85.3150563513597,-83.5045991321021,-61.1262795707915,-60.2823369639003
-18.9820174901148,-29.9678039580468,6.15165793079965,-29.7577182061299,-39.5391200292524,19.0502407146902,-9.31752784173036,-37.2101472643854,4.45928438523606,-17.1917020520206,-61.949553217479,14.3116602841217,-23.312342607189,-65.3981270088941,-41.2649748698986,-74.9435403136529,-38.2245564662584,-53.4106115712277,-64.5118840732714,-41.7813172089795,-58.524582898899,-45.579949644168,-59.267323222892,-53.1235885183214,-40.0420143103615,-55.1430514727788,-42.7630228772587,-51.6674635181585,-56.5904706859686,-48.1687303920257,-50.7512209862627,-57.7932247159279,-51.5428660268807,-41.9403020843421,-53.003077643726,-51.6336587938157,-56.4396786343284,-53.0609698062717,-39.5500861329707,-52.1211399580608,-57.0990708890119,-57.4061814066275,-57.0413439810994,-51.1303561199253,-52.4393321427478,-60.5245888118213,-75.3986980431377,-83.0876203480887,-75.4177742460682,-84.9800529352806,-82.3511168628141,-73.016546620814,-78.0698575458026,-83.3536717046724,-77.8954025038264,-82.3802938387096,-84.563761540813,-85.2408968667242,-70.9390573750542,-79.8275529032052,-77.1031044486022,-79.1034994805349,-60.4507793681148,-52.1909216291761
-20.3788057029782,-26.4020125074242,3.51659295852175,-21.545733729063,-33.1030167772968,8.64419227729162,-1.68170662807106,-33.5723500511538,8.37992635827596,-8.93466613143863,-54.2291442148836,13.5543058801917,-19.3527156882417,-54.61395943847,-32.6125050665015,-67.3823089573525,-31.4891275031843,-47.4733135477377,-60.4075893445584,-29.9322156043753,-46.9018524550865,-36.9610958663772,-48.5512002115619,-45.2457601995481,-35.3561450233275,-51.8836734181972,-35.4628124360656,-39.0591321179182,-46.9899070694981,-39.3472739401087,-42.4858673729872,-43.5422052769514,-43.0397532965263,-31.5452668865844,-39.8723718067904,-40.4525912309235,-44.0353336337187,-43.720492167246,-40.3620376410973,-41.3386087492922,-46.9288842852637,-44.6563882036527,-50.3416584367577,-39.3597799900709,-40.4731085928174,-44.4067814085936,-61.9048334883776,-64.8876640750925,-56.7182482905562,-62.9309132820915,-57.438319755606,-49.8417024644487,-49.0298124145928,-49.5096675223635,-48.0813063917843,-55.9496806070634,-56.1314290281146,-53.9998926855191,-49.8358764798003,-47.2003236191764,-49.6137000483341,-50.5057317737871,-44.0091170691028,-28.4515022278417
-26.6743609082548,-30.1109089991232,-2.87444449707278,-23.0893392410478,-31.1928726464364,0.297766656664892,-0.421593109261393,-26.1639825308908,6.05669727780614,-8.07877496648405,-41.7300454651241,17.6745662963454,-18.428730451743,-49.2682255735745,-25.6635740279185,-58.8352798895281,-25.5204003610291,-40.870845172894,-48.1733491000636,-20.6597368818272,-34.6800319859285,-23.3076973596943,-34.1034539639796,-31.8007734041717,-30.6080958799634,-41.4214573139718,-28.3397468697592,-31.2044970720274,-33.5351950254929,-30.6532043204039,-28.7332734786558,-29.0942467186083,-33.0203730825687,-22.2362905194371,-26.9690063705667,-28.9542711859766,-32.4547522119268,-27.4939154928665,-35.3860210418205,-29.0414908466293,-32.7533967005652,-29.2679522678048,-36.38495780559,-21.960554530443,-28.7706350082907,-26.9820965164303,-42.1518586045133,-43.4514674212873,-35.3564322309686,-32.7120148354148,-41.4190310279768,-29.0339085666475,-35.6398441676604,-31.2194091221141,-25.733961182505,-30.7963694157946,-40.4616955254289,-30.8616148989761,-41.1225156224238,-35.675948287564,-38.0028097617235,-28.0119119946248,-40.7210096131987,-19.5886856853285
-45.1520339349875,-46.2974472926533,-14.6968768882712,-38.3721845643717,-39.0867038769936,-7.43249678508807,-9.31335704309264,-28.6689875535541,-7.07290905459262,-16.6138825255536,-38.4802593124312,18.5963105227695,-24.111037012448,-58.9426594263188,-29.7401076666033,-60.4916972728198,-28.0141996499196,-40.5504230177393,-44.2141231619777,-25.3976580727107,-38.9034282177344,-23.6022350310064,-36.4639405550807,-28.4400683060749,-33.3345978734957,-36.2195039903064,-29.7781065918215,-32.5005707777888,-30.2960258860373,-30.7701808163629,-27.0645848138383,-27.3666794850731,-30.990842489206,-23.9373545064673,-29.1180087835119,-28.2302814316943,-31.2783420252669,-19.9742289995483,-34.3327070310101,-25.6419046545542,-29.0849552323458,-27.3363439346926,-32.0299489543682,-21.0888977150543,-27.6472259960118,-26.2351865572245,-31.2791184701923,-35.4250337353124,-28.3877146782731,-23.310954209851,-44.2793098503806,-26.0631667768702,-46.5305859200773,-38.8033775760428,-26.2510059204207,-29.6829981731404,-46.7985939824339,-33.2273123692169,-48.5688010379748,-50.4466523617371,-46.9293404474767,-29.5209258591767,-54.1448640878032,-28.7945173255456
-59.9841336810736,-58.4093141348754,-19.9175450748559,-49.2110030555805,-46.6830810009092,-12.7010883000334,-17.6833661859486,-37.6681397502013,-18.9562746291714,-21.6857656039307,-43.1253459350441,18.413352480202,-29.3837354245611,-67.0322918569183,-37.1179970039483,-63.5590202425381,-28.6571681664308,-39.1784309013129,-48.8419064903585,-30.9952704794974,-45.7531673372961,-29.607298232772,-40.6402546503877,-31.3435165998365,-34.3043892946583,-35.6358389619082,-28.991241516579,-31.9719491309275,-32.0838969982991,-31.5735612697086,-32.7399933020067,-31.7758516451247,-31.4761455554727,-25.6049891089274,-35.2270368268141,-28.9854953611348,-30.0612866748952,-21.9683478960124,-34.9195157387112,-25.0909640592753,-29.6672074942903,-27.9366012349416,-32.7138981523698,-27.2012301954011,-28.6898171560183,-31.2065761745387,-27.1564776247238,-35.2360601913529,-26.5691374782366,-26.5223991074555,-46.5246844190044,-28.1146945387091,-55.6034045390741,-47.0081793085007,-31.4882375158191,-36.5999204839854,-51.9548639308759,-42.1696933722043,-49.6694976579423,-58.1509423834035,-48.9059893246324,-37.6923973929166,-59.6036186829774,-35.2695937070709
-54.3417997505093,-54.0942890610223,-10.8828008858952,-43.5869562255198,-42.9805121252005,-9.12516581520746,-15.8172821396464,-38.1754010971335,-14.2892395543482,-17.016589355004,-42.9084797727737,22.0057644180694,-26.339140208426,-61.1442599413249,-36.0748591443162,-56.5533226994314,-21.0115929586334,-32.9440653235374,-47.2109971516932,-23.918314740477,-37.2282619678869,-23.5733986101827,-29.085718119706,-28.8738729664744,-25.3668096620564,-29.9784784610261,-18.9927293023628,-21.9436615505778,-25.1668327031863,-25.4653062833194,-31.3005441897315,-30.4322070471609,-26.5258555504974,-19.1334497008656,-31.4632809752977,-21.0957147356782,-21.428828413013,-20.8882183941196,-32.5929983488435,-20.6141723757584,-24.7007295412584,-19.7195122275679,-25.6368400219303,-23.2537153229004,-22.0005234665169,-27.9659976097122,-21.0278458238313,-31.9599155429167,-16.8656595596977,-21.0403725095063,-34.8014287813798,-21.3512739639768,-44.3482565951014,-38.99476817114,-24.8865148442163,-28.6873862554321,-37.4419814683112,-34.5749844246877,-34.7585034906851,-44.7231604583197,-32.6838119594959,-32.4848087366648,-44.6290103150732,-27.5041641827177
-39.6572276816884,-44.5569603351219,-1.04411591524229,-30.796892441498,-33.7047373328659,-0.522433821374191,-9.10052314180171,-30.3666300533145,-0.874089227239142,-12.0923369911918,-37.0481717227001,24.0509042682305,-16.2608438932084,-52.4224319738097,-32.7230489453843,-46.6416287791999,-16.3998429088372,-29.6256787852678,-38.3834702207751,-15.738492813712,-25.6216997566963,-13.6329888356268,-16.5777264159581,-26.2667497280245,-16.555648407063,-23.0478132017718,-11.9495027912051,-13.1262061304117,-15.7949664288829,-20.6495647862052,-24.8938875430402,-24.4745727881828,-21.0435476966801,-13.5453168878265,-24.5287333523404,-12.322608213462,-15.3889142662304,-15.5086770144003,-31.4854265606593,-18.1477184008512,-21.3124609094838,-13.6281306189479,-15.2931146245949,-18.762523400807,-14.8857981630412,-23.5303185150098,-14.8331261025294,-24.6011449839617,-8.75920766875598,-11.3229010296299,-19.9472488911772,-11.9086977183509,-25.4844113188833,-25.0410867806676,-13.448552662242,-14.1021059677297,-16.5396697723167,-16.8535042686633,-20.9362273508773,-28.1978300381948,-17.5226541382284,-20.0212433074681,-26.2792677216699,-16.3209933904576
-36.8839597170397,-43.20578801027,-5.11041520695153,-26.1215952363369,-32.2405963905069,1.16131974182238,-7.85566870449139,-27.0108137779044,-0.132595211569924,-14.8374045525606,-34.4860159335342,18.8742218803153,-7.66733972624729,-49.9997404470347,-34.7342214962739,-42.6021425756189,-20.9666328375321,-30.3205612743777,-34.2115675128955,-18.393538844329,-25.6865453978313,-15.1269017486693,-16.6828195928616,-30.7657778791848,-17.6576081608045,-21.8780235914503,-13.7560223014279,-18.4295765576399,-16.8896613843665,-21.868412811197,-22.0870489238242,-19.105806800122,-19.3579167224346,-16.866405395308,-24.3443393329724,-10.9509583412754,-19.7018893962045,-12.6770397693835,-33.0070262299701,-20.6619903937759,-24.3127455182754,-16.2155810835732,-12.550182102316,-24.092857903679,-14.0955961773645,-26.7370867126214,-15.6837060032509,-15.7749630885707,-14.0086568714942,-13.6061584980067,-13.4273772020026,-9.52118608688235,-18.763946192407,-20.212363412244,-9.38238580791153,-11.0519049913098,-11.0808888788414,-11.5047862284891,-18.6618118842156,-24.0060056972353,-15.6258863326336,-13.7833406379254,-21.7841258103319,-15.0229141752413
-37.5874292283955,-40.3645358295177,-11.8190201457056,-27.2512946093559,-32.5116314483843,-0.413643229231372,-7.79955767813282,-23.3985824128128,-7.69998274131259,-16.337574289127,-29.4275280746656,15.0211541348393,-2.63192196517044,-40.1878703776601,-28.261929480642,-31.6322072359877,-19.4831148760968,-19.6897241056891,-26.5987822385176,-17.0248500405592,-20.1645070273769,-15.5313887706382,-11.1140849818648,-25.7243186032082,-14.2205011232127,-15.5385828243096,-8.78722878935739,-24.0105908026186,-15.5666017401865,-15.0345166265661,-12.907563545491,-8.37046467162038,-10.0464013076325,-18.0719360730011,-18.645948088734,-5.1209455763036,-18.0946572043277,-4.30479874751095,-24.1307116261395,-14.4825001361253,-16.0122322601092,-9.36839981754374,-7.11062837062016,-20.9721444504542,-7.42082632612205,-23.2280969404317,-15.8449383258111,-1.47930469820314,-15.78375151698,-19.0973888097899,-4.51984026926585,-6.08711409109198,-18.2670712490583,-18.8642105395041,-7.03371927157916,-10.8691332285679,-14.7517682804659,-14.3775338671574,-14.3866637012475,-23.9112883870966,-12.1928178608393,-8.59953680637028,-20.0077139686078,-15.3505978285501
-30.8678521060663,-30.7420188598007,-10.7296236490105,-27.3277256928866,-24.9049183873513,3.58986829007538,-7.33931149811478,-14.5702274174166,-8.47877440583116,-14.8945043722465,-18.4345471347261,17.0265165584566,-3.16781317086637,-21.4116679064623,-8.87896633326004,-10.0155116728256,-5.63894734272877,2.05199271433133,-5.35815803857946,-3.65094304427812,0.662364159034907,-3.29187440928397,9.30771012146233,-6.15268779801848,0.359936099240791,-0.480672514195363,7.5790429944821,-13.811093689003,-1.06868035084641,1.61972298459581,5.63792129599715,5.91816618250203,7.92653386665132,-8.83574810463679,1.15475718690441,8.47532244747521,-0.330470020264851,10.8240936044284,-2.87934084156559,2.05141092360091,7.36551961804944,10.7585112714939,8.08929199497346,-0.906975365297152,8.05925349288054,-0.582756248108604,-5.51899086727261,17.5296668761968,1.05919772366973,-9.6525213551851,13.1677707655183,5.18876568522646,-9.19332014685466,-9.71236102469526,2.33601624248027,1.27058603619297,-11.0266573562702,-6.97518655377663,-4.27719484705027,-18.4457554729976,0.517673363863042,1.21251727996586,-9.84410425799997,-7.81435731730528
-34.3191478904053,-34.3546563434831,-17.3454755338402,-35.3595984237821,-23.0112438477856,3.25565493209796,-20.3979556976786,-20.9171558811893,-12.6690691746753,-26.6738152272832,-18.3908563181567,11.8949441277119,-18.1988680531818,-20.4943634142377,-0.880969136391818,-4.001319713333,-1.37827222451332,7.68765083187514,5.61759422570574,-0.93127601352707,7.90937325115178,2.42153291687187,17.2197823220173,-1.50669318666675,0.582940605246386,2.31489573633192,12.6948728950459,-4.17625921312114,5.6233355370506,6.91885139064474,11.1272082721122,6.09079815907591,11.7458929139249,-2.59135728085335,11.5114192776701,7.22101853257214,11.3022366868134,12.17659772663,7.78607908829441,6.84516570140531,17.3861388300526,16.340082500431,11.2874694312578,7.49966197003384,10.5518840492442,26.6166997000906,8.54240300739316,29.9350400998878,18.7026220085265,6.82368683150769,22.4588249608409,13.2505027034777,2.34971780782522,-0.458287079296222,11.3802651793321,14.7439533584326,-3.17592685068475,4.65333821770286,-5.90902289447794,-15.6523895092123,5.69595329854121,5.53478082489634,-6.79225956616069,-3.35773052265634
-49.3535348668333,-51.96154693697,-31.9726672709208,-50.4838591025029,-33.7441122278927,-6.31972916429803,-42.9817531617392,-43.8441583562324,-25.2766239001573,-47.012319857166,-31.0808506377968,-0.360529061438644,-38.5539207025524,-41.1728663101531,-10.5908423649435,-18.027067586428,-14.0784106793985,-6.87519105878216,-9.01888414500233,-17.1459603051537,-10.1584416761075,-7.15064994866068,0.274743452309649,-17.4452279084274,-18.5438273167284,-11.029344425112,-1.76087406852374,-10.983736132663,-4.8479753911703,-0.649628494299388,0.0203655539516691,-6.5773813439739,-2.03487867614631,-5.41696051202515,-0.349369526840084,-10.1165123468368,4.74240273278312,0.857142585633775,1.76560092481088,-2.80159366188293,6.22876473614121,2.00121800155741,-4.75255125331678,-5.77138634520841,-3.35402479013048,45.8459247520409,22.5022277080095,36.2368897162554,25.9857211043696,16.5293315968889,22.3697222947229,16.4695766912592,8.66856762106899,5.071548819311,16.9211491744701,19.624629646318,4.80013521061352,10.7211086751924,-16.945625738654,-15.4860195116214,-0.509160456129601,4.05717256770306,-13.1705520492945,-4.01303858272208
-54.1850237958528,-58.8499073567513,-36.2606959332956,-58.1440612576645,-43.8867749864383,-14.9654594508593,-55.8794956977104,-55.5538836318809,-32.2847199937298,-56.7048429081342,-41.3421461710304,-6.26767709415436,-46.7791509544838,-57.8884606054962,-20.5034510010875,-27.7098365346116,-25.722495514497,-19.3484265129783,-25.725860943723,-33.2089330674717,-28.3507763065041,-17.3358336762989,-18.373146484353,-29.3675470525465,-31.0236315013049,-22.3515993713662,-19.1912462463752,-26.0417455641092,-15.0136186999534,-9.12349229673626,-10.630062159804,-16.3363785718826,-13.4449584333355,-8.82906809735363,-13.1350448181871,-19.4325451794263,-6.82934310936803,-4.7294663336987,-4.69962366723771,-9.94915011578721,-7.65869421651731,-10.1712324206812,-20.4857949606554,-18.1780908300269,-14.9384549430839,56.8002561774412,34.3267450574321,42.8627600579466,30.8359680717754,18.9955702662874,30.265892651615,19.4755424240788,13.2185889956319,14.8424290888996,22.5842520909129,20.3522580130729,13.3942916795324,12.7306066424857,-18.3312962679722,-10.1619745787962,-3.25221063814856,4.12627901031777,-12.7777503448434,-1.55080929533215
-49.4723483204893,-50.0507241036576,-34.4830822266967,-57.4879954974855,-46.4423834398782,-22.1701381316377,-56.5398198415037,-49.4134570873377,-33.1356180412389,-56.3537802564847,-46.4467137903154,-9.31715844673261,-48.9959784629219,-61.3920601008237,-28.4662602491588,-32.4787522150895,-32.3078740319228,-27.6091264836861,-28.7027819541133,-39.5585573522282,-35.3762170948192,-23.9336433905163,-24.3987689403237,-34.455402777031,-31.202347346358,-29.9225106161371,-29.5507968491009,-37.1032205853473,-18.2733660035117,-21.4149822188553,-18.1880645424634,-22.3842608722563,-18.6041540800134,-10.8330910464075,-14.2004201195075,-18.1116018999315,-17.1038250925646,-8.78833987499271,-8.79097631890315,-12.1050667746767,-19.3277107033,-16.7990860233179,-27.5397288308846,-25.3532733220549,-21.0944264450875,54.3289734612427,31.2956569621619,41.8255123674929,30.0347571820388,14.7536375585858,38.3491860049681,13.4557638073774,16.0823611876627,21.6333874381871,21.9173043867386,15.80299889952,14.6858261813791,8.33361981410468,-12.8839923835069,-7.76706507300916,-0.182123916321938,0.556391065774653,-10.8748872854148,-3.87060692287288
-49.0099549937436,-38.844509479026,-39.1700326709876,-54.9708216475197,-43.1174478325705,-32.6626285866368,-52.3978212410963,-42.5126896627692,-36.4833784617235,-51.9792084236213,-47.796196109012,-18.3186124384917,-53.6119214894874,-58.3221524014655,-38.6791717709855,-46.3024654334277,-40.3669881403599,-41.0116889843301,-30.1664698020441,-41.1109344544184,-40.3638891851594,-31.2948487770192,-25.216906098339,-41.7080626209931,-32.2049678530126,-40.3146510592476,-33.4653301332304,-39.5545494729279,-21.4833636353057,-33.1004604388274,-23.5071084736062,-26.1423778457684,-25.4139841139914,-13.980793474625,-13.8207159392715,-20.494302476806,-23.9153009675718,-17.9771098012991,-13.3557478193656,-13.0425466445528,-27.9051424845036,-23.7853925125195,-28.2608085171952,-35.1858885089657,-25.912937011929,35.9230363347594,13.7116815941933,25.9209911325438,17.2802035404465,5.53421796891031,26.087200409728,-3.35714611771663,11.9681613109769,12.3109612163137,10.1385366702135,3.71003213610888,6.28016360680216,-0.588563845647647,-14.8734929651465,-14.3253241602696,-0.0235835900999141,-8.15924256964166,-16.7203335007022,-16.6441536680194
-46.8113056284141,-28.4033131076778,-42.9506792777474,-47.7298855200045,-33.5172348701553,-39.9285787027025,-46.4201651149018,-41.8036273851706,-39.1639857945309,-42.9027712683121,-43.4820295311804,-25.3357620288193,-51.1291031476092,-51.5263185670048,-43.2574593634029,-59.5068158656935,-42.2562940196694,-51.3949105041432,-37.0372640395199,-39.2970473691359,-45.1858165695653,-36.0909914468287,-24.5571288440637,-44.1043714538633,-34.6393419006258,-45.3187712706273,-33.0475270907375,-36.3177886862995,-24.4844841357052,-31.4809729959406,-22.2802701084648,-22.1845359806104,-30.0113254354552,-17.8547421031803,-16.6341550327909,-26.3805385772036,-20.9124904307093,-20.8620956908803,-11.3182430291285,-12.5531046454936,-25.6581821207795,-23.6673554942099,-22.5824587611264,-37.5813395317958,-23.8544424781415,7.53749765541272,-0.480004105269864,1.60216364654106,-1.46303808601195,-2.08408729476878,-0.0243986231222939,-17.414091563327,-0.178779636488691,-4.36142428987454,-2.70704539505902,-6.81739075732774,-0.103994681311233,-5.06800421248834,-21.6332428267892,-17.1851034871061,-2.86399797910254,-10.6922320453473,-17.1868738468963,-24.5737783655859
-26.6025256679123,-9.91305467158604,-30.6008461995977,-27.5405737595229,-14.5274168240264,-32.339775488463,-33.0451749868584,-32.7094790415774,-30.0484298602674,-27.4318826887258,-32.417042616061,-15.057615879222,-34.844043480743,-39.1614081778678,-34.8690548095895,-52.5808424648449,-27.4925181708574,-44.3304370864346,-34.7133764831905,-28.6391941040292,-42.8320883091557,-30.4645084363772,-15.5496344847357,-31.8598560303113,-26.888450281525,-34.4150666014228,-26.1628162467446,-28.4575308506501,-17.6702526913156,-18.5684639617026,-13.6592756314859,-9.35897814648779,-19.750286816985,-15.5529713502431,-11.3864806351031,-20.6258302991575,-8.83791310793882,-8.57788136274374,1.1214092637021,-8.78408882563863,-12.8555126455353,-10.3809909102856,-9.77060248560839,-21.16935937514,-11.1198856463141,-17.4428817191672,-1.2963368319117,-15.7571194990475,-12.8269045112697,1.73527416625029,-12.4631608172616,-14.4408905148467,-5.43260540343016,-6.26691107031879,-0.791018671451812,-2.00436322090433,7.95621427398074,-0.456456141454832,-13.9287499216472,-2.61651369441099,1.54702383956447,-0.448861343258209,-1.41826668583401,-11.9908338187067
1.24467019339928,10.8717269753846,-8.82064234049376,-3.58622571622761,4.82503499439322,-15.8591448688235,-12.6774608707641,-9.03071553591395,-12.9489972697754,-9.07765644066192,-16.6149865208411,7.1364209082857,-17.8143101056331,-24.3425089155242,-22.5363775801349,-35.9599743701541,-9.10845446444779,-27.4359391266732,-21.2008909702439,-15.557062898833,-34.9731526623807,-17.9449534021239,-5.88273010810027,-15.3463016335066,-11.6495800214541,-21.0318870599746,-14.6712463068867,-19.6575891654572,-4.54952597692456,-8.90238317943976,-4.46103229060892,1.44512633187307,-0.701286653014192,-7.49893574304899,-0.47983591438356,-4.07214096789386,-0.617972954172567,6.91448657972378,11.1037580280169,-3.77910780373454,-2.83011881577388,3.91413570589679,4.05998589856437,-0.705470638481114,1.12365600159205,-25.7173311463094,2.03258760052235,-16.8200743632299,-11.9924572331724,12.9516768586298,-4.9129222987543,-0.570986808277535,3.32107371410058,3.97610768270697,9.63376632333301,8.85037912631227,21.2664115036735,2.99184175605597,8.46685092414272,18.5710613994919,9.21097163208137,5.88405109740417,15.4477754735415,7.23829005163414
7.66199224943211,9.8420305801047,-2.35413371904565,0.45837509120908,5.07601206797571,-14.3056758525392,-2.89078135145414,8.18551366236153,-6.69781616047207,1.54779419796899,-1.85360226107145,15.8367472851187,-17.3965815956065,-18.5121366441714,-22.7199003293526,-39.7120393005979,-8.3022928481328,-25.0315449875877,-21.0232048231547,-18.4931227928724,-34.6295458999834,-13.9421436182148,-14.6464525799848,-14.9664425351997,-9.9425578689977,-28.7036024679504,-13.9098733982433,-23.334873997279,-7.13637219734125,-13.5392741661829,-7.26827499026538,-5.13447046489851,0.543508647048612,-10.5062012050344,-5.83413079665485,-1.58335982824848,-8.94383257176522,4.96897763471926,0.266925777127779,-9.41851643365334,-9.35897275998414,1.47664040367285,1.98472395324933,-1.22845178312585,-3.84546709924008,-26.2005746709875,-5.23151750776972,-16.5233410855945,-13.5781796579374,6.26088118740026,-4.82971961079144,-4.98372401075591,1.04197955160339,-3.03223155857756,0.587410074508314,-4.69843260262652,17.2701586747753,-10.8513431849797,12.6767347970226,20.3684760685403,1.70433950656443,-12.7825093157848,13.9404103080997,3.45869236643008
-0.828673900696047,-9.1600149928944,-7.43309388435163,-7.67768236987346,-5.24231993993162,-24.0791657470061,-4.00569709110785,13.6379330967382,-5.5617312627889,7.87199984851148,17.4981543447655,10.0000869856915,-23.6246214852717,-17.9056782185094,-28.1266037787011,-56.2424718046425,-10.5754888226063,-33.3300320099967,-33.7707261671117,-27.8965137023625,-37.8347957871681,-14.1200646579516,-26.7535579156751,-24.2465755826218,-20.1464747144094,-42.5518745468717,-21.6910222250345,-33.0849583460558,-22.658035249066,-21.7358761262609,-18.1702489908544,-20.8774397404672,-15.2956608716311,-22.5762044873968,-21.5088869452304,-17.1167078902094,-21.9405626126561,-10.3578161144283,-22.8754515361497,-24.4982627796751,-23.6707480714509,-10.6453382608016,-15.5747708850364,-16.2171730255499,-17.68347561841,-36.6292501581575,-18.5291461480577,-29.2972866408187,-24.9248818859845,-19.5060085525402,-25.2619691026162,-29.622728247853,-21.1223383947224,-29.7496426896816,-25.4046304395382,-35.1635952420626,0.758659732099501,-29.3023874007775,-9.97904455380236,6.25324670341786,-12.8858428470519,-35.9834610279167,3.98357190321382,-15.5998123640276
9.45704312941103,-9.72120307700792,6.62097182296402,5.66817964453797,5.07296996304643,-8.04048493786745,10.9877828630739,31.185522252556,16.7124704218333,29.3398298969367,51.5197691859738,19.3511665510899,-6.64497087269674,-1.52274649642644,-12.7709169557488,-46.6021605275877,14.910811006032,-19.0519690379979,-25.783511673054,-10.1027668660078,-21.209439644323,7.72033186185922,-7.84234020838651,-15.6488868089975,-10.5029412494956,-25.3654370325586,-7.23120931349688,-20.6186496028495,-18.2341338522534,-10.1144360481719,-14.4004144585291,-17.0264789796538,-14.2051878133438,-13.263899930009,-14.0033976166934,-20.0431733179514,-14.6576860342436,-12.8337029440941,-24.9614883229987,-25.7750140880196,-22.3357487312718,-7.52109866245758,-20.4632828681421,-15.6412985835751,-14.7664462583864,-45.2676800450097,-19.722063255969,-35.762811089086,-28.1508379951117,-29.3531808019105,-38.386539498175,-36.448133292089,-29.5818900428003,-40.8300644902999,-31.1094628389924,-38.0478699599067,-5.90621284263725,-25.7918358750048,-23.4590246749176,3.25212314448234,-11.4603878448083,-28.5447784706742,4.4272201817884,-14.9260649214169
31.8420919269842,6.91287858098228,34.0460680533156,32.0404466294984,25.9202023964891,31.6598477364611,40.1048016750907,54.7313481978807,48.6429456256259,62.0332781062787,73.6581951316267,47.8789940349297,29.891045549616,18.6100287224045,13.783146750211,-18.606784870794,49.7158021257963,11.5174304508774,-3.27899859406445,23.9400494016708,7.13338280281043,43.6764413229379,22.5748987667539,5.17334881189005,19.7732088979092,8.47265129210526,28.0630486677478,5.6247179516133,3.50905009011892,13.9299109603368,2.3939608856895,2.82930099691935,4.94661597023026,17.1938989317028,10.1983497940753,-4.21183963102758,2.06752692510739,-4.60329337368632,-3.10615334937044,-12.0118107545697,-11.3939525994251,5.10499144842725,-9.9217346844899,-2.49599500355429,-1.99440222398702,-36.5471548521235,-16.9017966955789,-26.022727497771,-21.2964658848984,-21.6165049539562,-29.905199671769,-21.2165179951937,-16.8771532910886,-30.8525945815114,-15.7703575993321,-17.0417893266831,-12.2487399364646,-16.3194359794693,-18.2143513539026,4.30769751537718,-7.61368582221449,-12.9867020451504,0.471857084641471,-2.47899807409872
22.5891158012522,-6.254915977736,32.1628702139242,25.0648411504886,8.83599175114471,41.4079310738971,42.4945869531142,43.7626268761245,47.5529489067462,70.9016531956276,37.0861049194753,61.2057456433329,40.7468790034267,-5.0905718977721,4.11143017708694,-29.3229489313764,40.7879251106349,2.98225595895339,-19.9244624468636,17.8096823820089,-0.0979060699537102,41.7047916585076,7.14345569889447,-4.17326229882112,21.293349810529,2.15695212468582,32.6143243862579,-3.1857160202099,-3.42267964707163,10.72575045404,-3.49807352124828,-4.60516575019766,-1.19379525886477,20.6053017852549,3.13347566021266,-8.50223344245288,-10.5782925583014,-19.6101389948251,0.616218462299435,-15.3913114046283,-23.2754293370281,-9.14156782588275,-18.6277288731337,-13.7132362983105,-13.2206526336504,-32.433946623958,-41.4909095864496,-32.9589674714903,-35.7294025221701,-39.8511934401081,-29.6814093901278,-30.3596156319812,-25.0824413328797,-39.0036413082976,-24.0148392146636,-23.1674513457127,-43.7210964430636,-36.6842794171657,-29.185780231538,-21.1573635046565,-29.9254006310744,-35.0260929302605,-30.8836988183196,-18.2735704957991
-14.1339870104817,-47.4633370036192,4.64604219421461,-9.63355210412445,-40.6124392637007,15.9841478127799,17.7527564546892,4.17862704201296,20.7698717052057,46.8440248486182,-40.0371533501527,56.6099738318654,15.0930822896569,-67.0708430345091,-40.0671464550363,-79.9359635378354,-6.85100800774671,-46.8831013728901,-73.4565858703144,-29.203946224418,-48.0198776502935,-4.94415150225399,-45.6129784225766,-43.8592306845791,-19.0425101087794,-42.5775884755226,-3.34131769178335,-46.9216595572469,-40.1281088066098,-19.5855961967935,-32.6837493903808,-41.5364438342506,-35.562729466983,-12.3535109091726,-33.6895366364459,-37.8385228553476,-42.9522151469657,-51.8279184958632,-22.7399853659957,-35.7256131719656,-49.5097428329393,-43.532037183771,-43.8128450737622,-44.9421016168601,-40.4126549527892,-37.6149035360348,-79.8069302029031,-56.7825004645931,-66.6285046449608,-78.492774817408,-44.3541500145136,-64.6811697569414,-56.5154682783994,-64.7954667353394,-55.7015272521818,-51.6638958983173,-78.2579564266195,-65.2878369945228,-56.3357738639405,-54.0046125347363,-58.4951050993543,-67.3282846686295,-63.6628361582345,-48.0901136006672
-22.5472078090879,-58.3799144689765,4.97154525988627,-17.361252128873,-57.6196362146934,12.360506920894,13.7217243187752,-12.0882165662177,22.8789553267356,23.8043124104917,-81.8654302625779,71.4147057160462,-2.54633370649491,-98.0563679583129,-54.7905409788061,-99.863020589977,-27.9639263934315,-68.2435899136529,-89.5833188276842,-50.5434362169854,-74.9014938394567,-33.6242569720819,-65.7411773718607,-56.8995190365131,-42.8289504227651,-57.28029572143,-20.1517872996182,-62.2894692304923,-49.4145752577186,-26.375028102637,-34.5937936924637,-50.0433697207316,-43.1291409842236,-25.4037362898722,-39.0452097501611,-38.7891278291255,-40.4424692224604,-51.3077952458604,-23.5846000524301,-29.5264693609706,-41.2787533909934,-43.1709171962703,-37.8434767434037,-43.6304452860114,-36.4562284925716,-9.87641333869205,-69.4196333483709,-41.6202118313704,-54.6162641939817,-71.7147329965792,-32.5731650740149,-60.2739895481154,-54.4936303987041,-55.9776448596738,-51.1403216582187,-41.3315990634546,-67.1097465503174,-47.6756011609224,-53.6203244118243,-43.4863461699939,-46.9450968319495,-46.9505736195847,-54.1949394121563,-36.4850719630261
-1.12817284754334,-34.7228875370288,32.5212450295878,-0.367995417213117,-33.4770929287382,34.0759594264712,29.7960364655555,-4.27187171801619,50.7763010176677,11.2696995356147,-71.4601683276551,93.0770757199869,-0.193256767471692,-82.2011862186374,-28.6669192646981,-71.2002428998946,-9.18752962460673,-44.8983228319814,-53.7236109300627,-30.0448975440567,-54.0363586695662,-21.2888193544714,-41.6196985541501,-30.6917250273202,-24.8777102865045,-26.5392030741531,0.354002441952963,-32.5368550223572,-20.5519988401952,-3.07468160514106,-3.63993794625249,-15.3172466249978,-11.0137903008742,-3.89376578515288,-3.67843739347972,-3.03626787354327,-4.60322249409223,-16.1482918155846,7.15882266850901,2.12423771291119,-0.554525874636338,-5.15481952415542,-0.554286527955596,-6.31146369617984,-2.57752997260785,45.1690785734732,-4.91556573768262,15.4491302193089,7.12655086073081,-14.0356151260692,10.2898965652081,-7.660322573735,-10.5844277146472,-9.01658325877466,-2.03173446290446,10.5160053778063,-21.8598054458183,5.13866936556553,-19.120583041068,0.181227945393666,-4.73255593630704,8.5064904262874,-19.7793519280913,9.55147270708691
0.0379055274856253,-22.9425756883707,35.1928837472696,-2.39396833342795,-19.3324945908865,31.2445313601634,23.5155727993586,-11.2950777383864,47.6312459058621,-11.2228345015376,-55.0149269304311,72.2982539878473,-8.70395549904894,-67.0114563158011,-16.1159767642249,-46.5642599797244,0.291892672092648,-31.1201062766639,-29.5883782793646,-12.1687464074508,-27.7769835412991,-9.46724342992911,-21.4621564029737,-11.5981547797624,-10.1659065811395,-4.97080608069229,11.637307392155,-7.74533982310999,-2.19206899976901,7.07468283603955,10.7401000189374,11.5808568547014,12.6541741134576,6.77522659161802,17.4344181195919,14.6778332962597,12.5827166929439,5.41839174505202,20.2590746715275,11.8756939346083,21.7762365739998,14.9419044855708,18.948240039372,13.425354785182,14.8697926324868,66.5854079120162,45.1462487281107,51.82899630937,50.6791451503571,27.8610796833419,39.1819949016843,32.181840971887,22.7812797753262,23.8580790602454,32.1715404920211,45.2412302828986,5.47844770086046,35.8641802559542,2.48452039694708,25.2790615600342,18.2650819195171,35.5146164488429,-6.43367074758722,34.6345974473547
-12.7099608481947,-20.0542556894366,15.8799567692434,-8.16545907713553,-15.2504289737138,8.70975783162528,4.02899889673765,-21.0571793822241,15.1693362940633,-27.3101355789074,-41.0502239377782,25.1810589073927,-20.2962365947685,-55.3912688902968,-25.5178698042986,-37.9580219781388,-6.55346429661317,-37.8660779167225,-29.4734300525294,-5.8320166748312,-15.9916280765658,-9.92556589229485,-12.8820932337002,-8.40727874551546,-16.7106012294142,-5.44122564046874,3.37706298788687,-3.87442419349113,-4.90815434167172,0.803467931286824,4.56354463824162,11.8010635209394,12.3326352669938,0.636818918765088,13.3407876048408,5.31046726107248,9.23769177217369,3.66155078695468,10.3819061916156,0.154791332697247,19.3916504718057,7.38987995822155,13.6290395547184,5.87585609687293,11.3781301414488,52.4129082987655,52.2111536125382,54.788883767963,51.8557928439768,36.4809037278995,46.112132617745,42.6474864457327,32.5280672302042,31.5132982274265,36.0993153402713,49.2548184395924,12.7270239883333,39.5534142662757,7.57259285665172,29.1585192709669,18.7235666184729,36.469102524771,-6.35266551560298,34.789386722523
-0.859905768861307,1.05990062461746,13.8086985202998,14.7421276468773,10.3785743270304,2.55415395095143,4.75143129814347,-2.85753115179645,1.01281927383953,-9.75468762459951,-10.776818054976,0.957587377844354,-7.68930790296504,-21.6580964714007,-24.018795777061,-19.423479943713,1.06943275117637,-37.1680188805305,-16.20702062587,5.87668294306344,-1.50622713469347,-0.563483626572033,3.92999306212618,3.39616499184232,-16.5168882966499,4.59222756139223,3.70020214213007,5.07419691869475,-1.07560756387919,5.19501026032274,10.9714370300793,10.8205420479402,14.4982234134902,2.96261997934272,16.5639549186276,5.40477354356361,14.3570881773692,4.64811515015418,11.2233900134013,0.680230010077863,19.7598686571883,8.21200493352594,11.4864935998286,5.3929481770672,13.2054779236314,45.0581622463397,48.1541661365492,60.7403784013101,47.954029846709,47.7204278676854,56.1403024238785,52.6532588050432,43.8378162329247,41.9800634488115,43.9258633387943,53.2761282841884,26.5208211758699,46.9213567901568,22.1494817732801,39.5845774879652,27.2822236795688,47.2545782755623,9.17811528493569,40.0701648829356
21.1954047124382,21.978232924917,22.3484912008664,39.4031112942146,37.3526687557716,3.11562059542605,13.7396675903198,22.0367660615447,6.96693752972907,17.1773875313012,19.9013398657816,-4.24069629064009,12.7491795607922,12.9333690389462,-15.3337931398526,-0.551342212230845,16.8719119036159,-36.1277075031656,0.223017974614282,14.7603823705367,8.35095145182173,12.9685483841711,16.8627549869644,15.5044078662744,-3.31619368201311,22.3441223732182,11.9489809801833,17.1368852906488,7.34483325504192,16.7887894760369,23.9350656603563,12.8774942367928,21.4010818347797,6.73127217412671,23.4729618673652,13.7781521426542,18.8723437954827,10.753440182706,17.9417103076263,7.77435704730564,18.4815831653662,18.8237845783432,10.1004467565016,12.8603953384941,17.6427239157008,38.153805322507,45.4216493639529,68.0983112360108,50.0176930698051,60.7060352804138,61.7281968578318,59.4400261885768,53.935839157674,54.8274777771667,54.99492639222,59.4692451360698,40.3173997152285,54.8708018141416,39.1495966403654,54.3465829563069,43.2653935843672,58.8350693181539,29.8396760670727,47.4818378384516
26.8089071679465,21.3052418863208,20.3333232004684,38.4027025638712,35.0100824717157,-4.87312230455947,12.4604327538068,23.9955368575326,8.02034936322104,21.5389234483976,29.7275655459371,-12.6923349045294,19.0836168702393,23.2410808062782,-14.6186092374229,1.54064439467584,21.9390913993911,-47.5055715590738,-5.94718516564559,15.3939309013968,-0.495135681279388,16.7071873871161,14.4144627398858,11.4521551176662,7.96194731123965,27.5101194233995,16.664838944385,17.5740983552153,5.91416097800061,19.8488389555433,23.0304870009248,8.79420388665906,18.935141025995,3.5022910715604,14.6581174818866,11.5443640190497,10.6686781672872,9.51242371308776,12.6890833591947,4.53906419558653,5.04788490062325,18.4678347738004,-0.386125710621685,8.15718436849383,13.3707790996029,10.7299539660725,34.4681751655602,55.799814780427,43.2654310769025,52.6318671356389,48.0719595913668,48.5652617378714,51.8350134634713,56.5718407756065,49.803997994135,53.2003998070415,42.6988526685733,51.4185444073616,44.887764502929,61.5983599836121,49.6897353973916,53.4735552809643,39.0281871108141,44.4134090614855
31.991608618752,18.8384434141234,19.2045186276289,36.6704904098588,21.5124488164004,-3.51678253414167,16.5223047160959,20.4423791985728,7.42488401887424,18.3896479414031,30.5059563214476,-16.8795316766383,23.6181845485646,29.6951046580491,-8.99652258723906,1.64523112343687,25.7056606662857,-51.6969806232666,-14.7380404607687,20.1521392424086,-8.68820292437915,22.6631440841552,14.4996210558299,6.05233402881919,17.7588791586162,30.3708045681429,27.1224354331893,21.3659866983861,8.5026751342395,20.9103350454815,20.5534965389045,11.0226602043181,18.6200326154345,9.78279049772102,8.36173431285733,11.4019930035433,10.1743295472421,7.99626872065197,9.61732609217287,5.59507533231511,0.701762014914348,15.8085317247212,0.488528739659277,3.31734344255064,11.8192415743,-11.2559840682398,29.2705760752919,39.6203270190689,38.1699452392441,41.8888209282878,37.3766527165722,40.7137603772642,53.2316103822,59.4335703158917,45.8078375003317,46.8854369863135,50.0482045972172,54.5053253865698,53.3187723518641,68.8303896561921,53.1146394842987,50.5270101062959,46.7081008967073,44.3371195098059
52.3171515897776,34.1250779924695,28.9688923145413,55.9402753725671,26.438468462551,9.83045661750372,35.247281938088,36.0564728184352,13.8196973351171,29.9948865555976,40.9427761914579,-12.3165169516763,33.4484245540774,49.7488500143695,8.31110948195373,9.62808328753818,31.0360916687533,-35.2587478110204,-2.4611793605201,28.8757522827802,3.36182179570747,37.3446703387638,27.3865434603431,16.4259568047718,31.4365345875574,42.8137558058101,45.0552561881054,41.7630939762043,29.177281747706,32.615390640767,32.8918147384409,31.5683056844654,35.9548609521382,30.4231062072598,28.0489879753634,28.936588709275,32.4202115793166,22.0572013767349,24.8362692438456,26.8510284203301,23.904140388796,31.9616365597001,29.4126595276267,25.301791739031,29.0418785297048,4.4507139447444,51.3584516286941,47.5163027603949,54.9619710475593,61.9670644125649,53.3356815403096,62.0647515411937,71.0032985883169,78.5479546448261,65.567252060723,62.9186816433544,73.4267183726301,78.5709033853398,72.9996414140879,84.6211465080338,68.6983348196283,69.5119834843626,62.7557530177258,61.8301463392918
69.2761937402098,54.343432111605,36.1805505273243,76.157396991586,44.0876517697031,8.98489369581627,48.9678914173918,54.2802858273652,16.5689308661562,42.6717407069916,54.8725887552377,-15.7281625617541,32.9112721932042,63.5926434334715,20.2402985044581,12.1867814957177,19.1892728868642,-11.6210782631734,16.865873094017,28.696478863336,22.7586858243984,42.436290761095,37.2663629773721,32.7674352559409,40.9495378148722,53.1173410773729,52.5614265083975,59.6150169898483,51.760030188111,48.7456231192456,50.1853721578776,55.7374458781053,58.7961619093482,46.2965092881427,57.3510233916193,51.5092309038641,62.8016128067565,47.4032498153099,47.9360640617788,56.9029422257096,59.1378361535063,63.4187011089981,70.7458639838277,68.2873242071713,62.4962832910611,48.0651279023991,87.2033213317266,75.7874494260953,83.8472200380202,97.2048103991356,84.6475070274362,95.093403099603,92.2225940416082,102.322590479355,91.0990282463565,91.8480891003133,96.0921135715257,104.278547031409,88.7423971761868,101.94476992209,89.7011678883431,94.8490070941869,79.3022151757111,84.5835201984285
71.8499998949715,62.747286434376,36.2395752812936,79.1946030663341,53.3155141404106,-5.99091507460059,47.6164945993647,53.8021715769136,13.8343057240004,39.4053299299607,57.0744330503786,-29.8815909520806,21.6048288065319,58.8086498913191,22.1369462352122,7.68421433512973,-5.02007010956192,12.9146806622617,26.5520057404646,20.7040241530344,33.8548629121666,31.4600955714438,34.0776630176961,40.7631567871984,40.4293548289429,54.8960501641196,44.3148488653724,59.5627352429682,60.0194808196763,56.8977716722587,58.6290763560434,65.0553363078279,71.470869545825,47.3913475715525,69.566722900145,62.4657514147211,82.0800069298615,67.1018297293932,62.1320009147001,75.7336313809148,84.2707656243961,87.9651565390816,100.347872339336,100.778725335991,92.1111174877802,88.2771690808374,100.309365850309,97.9468758277499,94.9113518245585,97.1287592697833,106.311254617864,96.6604969243812,101.944826768571,108.707650800545,91.3531352632262,97.0712771410586,100.860556780453,103.523221105783,91.4769537435601,105.780139239675,95.0330075215224,98.5088730957579,86.5235822992519,88.7696156750494
73.8570499931994,61.7262454570728,38.2968910854488,74.0601472606703,51.5059563540543,-6.7099739680902,44.0968426818349,48.5045573942987,16.9545171002361,31.9717659187444,50.8965573633438,-36.4409928669946,16.7492401423404,52.4957312126669,31.9355659236392,15.9353228132265,-9.41364860897685,49.756416051205,37.7064530199761,18.1126431742771,44.2068982289244,23.4046724766066,29.3552123790057,44.3747044330536,38.6548748981193,57.2519108025547,37.0644492813034,55.4760103611751,61.5932309238502,58.1005977817336,60.1955520999563,63.9480098348757,76.2381322589379,46.9295893390683,66.1200269489108,64.7957674248707,86.8592804214151,74.4801501787794,65.1759244239466,77.3849584427761,93.392293833612,92.4747847500203,106.143270239533,106.534278650519,99.7501553176123,104.944957140515,80.8200883977968,96.6106476240192,76.6760087300148,50.7850394015689,103.024638084282,58.1889458088905,96.6269299564669,91.0811613974026,62.414939134122,63.2281307926795,85.1091978691158,71.6227983010104,84.0364248420754,85.7518740440383,74.4287006043839,71.6504974389054,78.8627675121253,66.2364844776184
71.6664791523928,56.1183978027189,35.369419603052,65.6379287408604,46.1039973761662,5.31036718244446,40.6292922658117,49.3296744352457,19.4041675497584,30.6016866870561,46.4267539619367,-30.6959730818229,18.5269481982289,51.3111596266364,55.8902236895368,45.5664044245179,11.8541439245862,95.2536493242763,59.9897994159408,23.9168398911671,61.6640382626561,25.9113928378701,30.2536035060811,48.6688493012898,40.9283125928492,60.6349475444565,37.8491296428257,57.155362479939,62.6869265539018,54.5109399051032,58.6105973829612,62.0745412370694,73.8918114754337,50.6400085389308,56.5023999560227,63.3060104944101,79.5529330499085,67.8792087520988,59.3307329086565,67.2255273849661,83.177254561811,79.5161386920441,87.1571312383774,90.6315888784969,84.7441007084772,94.9509450571342,51.6554063899356,75.4006898868593,47.3638773904069,2.66914892264179,73.5248394035887,16.0941586243951,71.5135067839345,58.8662312068392,24.7627158968075,18.0130593924538,50.5668344998293,29.7158599537712,60.9285672160116,45.889727918183,36.6662604928904,30.8668811385019,52.788496047625,30.2573178170474
45.4872303528394,43.0355815176305,18.1906213848662,47.519318089693,37.0965988916366,3.28676675541765,26.5798222643301,39.6159834501163,8.36909499242385,22.8501084680178,40.1573036473409,-25.8471040966393,15.2462021933604,42.1633781734357,78.4183048942857,81.072654416306,29.9790196904105,126.134413246438,81.425218814592,29.3368398871915,76.2694014321682,24.4893798405546,29.4233100317572,47.6155262399138,38.0168474294383,54.8821241976999,32.5871765455211,51.9751514364684,55.8630519953664,41.6768374667294,50.8202919655047,53.9062345710205,58.5474019396281,43.5589686334647,38.7926876571727,51.1884133021255,61.4222866315669,46.8385088954982,44.0689259632983,52.0487651892076,55.7457255420188,56.4784189651113,55.4644149362412,64.6779186616064,58.7300678437557,70.230722807922,32.6677480364585,51.7866487868424,30.0620981871143,-6.5417017829752,37.58091525125,4.00815606215394,29.8549600527102,29.0370747865969,1.83703598643488,-2.31407818240497,10.9348283856855,5.0877348724536,23.9089957102591,8.65195225421052,6.10924417654483,5.64507014553176,19.0242982773067,5.17156075469432
10.0612381739576,27.561992197533,2.84328611496872,26.3198469857674,26.5388695315391,-10.6776737998383,9.58182964759901,17.4663410101292,-3.09050446964297,6.72273589163584,28.6394030831108,-25.5378884834559,9.69836741769594,29.2296598095395,86.0806797947684,112.064133055678,28.7156223924191,136.397623119378,98.7881027487213,29.4783452502659,81.5528400363091,13.4634505566522,27.0786962592319,42.6806062722018,27.2293435745062,40.4927280014778,16.710322357487,35.2922837968596,40.2996584977981,24.0183840650496,37.3909898773816,37.443364158787,36.868680134654,22.7994549847012,18.8577410921587,30.649529144808,40.5341277176348,24.596142792262,27.0034821633174,37.3176270020844,30.9498369563988,33.9459241283378,29.0471482232479,44.5766231196433,34.5598195404607,49.9543785950747,28.4879391024201,40.5044697831681,28.3002897365326,19.597835025755,21.5383056199453,18.9510099465159,-2.43475488807556,16.3195136384553,1.09804207189824,7.63567107310886,-9.1388411890024,7.21833666241985,-0.517183906630214,-4.50157557313581,2.83810899341807,10.5697439193117,0.0247227078016898,3.10928623381931
0.971476433606376,21.2574364996252,3.8484063470395,15.0464642418551,21.4011022360746,-13.5544163108759,6.64428757072603,6.01122885377549,1.95159694443992,1.05271927521157,20.9694098655769,-22.6920510609801,11.8305450935546,29.9775348196567,78.7272243889259,142.57126701171,19.8501498303313,139.58528647717,121.77321868701,27.3214422470563,86.0610402090551,2.58865495756109,30.2517953903471,44.5861218043116,21.3322062693229,29.6493428955839,4.05554172040374,21.9580999425784,24.9618449860636,11.8408169936263,21.7918985359216,24.280311855903,21.3977581955934,6.3149008663746,8.57249323183776,14.5578662787964,24.5004313337881,13.9627234623286,16.5604312238403,24.5293622964904,23.135305300899,19.1041001692985,13.0390838766515,36.5590596081098,18.5588721877732,38.6770779112362,33.039342315713,36.4454397826931,29.977962009787,47.0437216066243,23.4602506238127,32.9254936530081,-6.34097840652307,17.7378300389579,9.23422737805601,22.868267751319,-5.50801430482568,19.393921633687,2.15838604771392,-1.77296920623853,14.0880802464255,27.5257216712116,1.24751233448587,8.3858651572986
9.81005794592203,16.7227245592179,6.70266404731164,5.75039539979342,13.6881862810323,-8.26786071609833,8.40555107268862,5.44188932458701,8.42188018516368,5.77295711889833,17.6488129553214,-20.5751584551452,16.541110994699,36.1277619791667,60.1365569920118,154.414327417293,14.2144582042154,128.712651396398,131.912708391179,21.9805357970688,85.2693983349215,-5.6975383750212,30.0506083709069,46.1737673532185,20.2079327293775,23.1210553040721,-4.52491174930802,14.9223958269017,10.1830583602083,2.00412409515029,-0.418352753602062,12.3222395206141,6.29244366972414,-2.85467255455674,0.659282790113144,-0.957927897282578,5.54334654303531,2.94167593721566,4.55829950805088,7.09316167116772,17.3236239074444,1.15375159453812,-2.01190133770524,22.6615604227976,1.75965192392666,18.7760749349287,27.1990196700582,19.8145813854931,22.3047752054572,45.413083301416,16.4062796635968,21.5478512937832,1.02355257375295,12.080420771704,6.16939498578082,17.2331871649549,-0.645971023624008,14.8417232559969,5.78752171019699,-7.69343374292165,7.46118575922933,26.0627811603512,1.9909863784583,-2.28714784593575
-5.58431519173732,-3.93666970754042,-10.9461947136055,-20.8372687228579,-9.86467737332529,-19.7407755475028,-10.2045221206741,-11.3910580188438,-10.2276121555892,-4.68649625333773,4.01442639172548,-33.3636997892631,7.73654780267944,26.6112554666358,34.92063497382,116.332544749884,7.02672672269481,85.4661060515319,97.3417308130571,7.90585822188828,59.9011016616089,-16.8312026547219,12.3260435727494,28.1340371807177,8.09400483454761,7.97715104869598,-21.354399295632,-0.0243207405297889,-9.92755222579704,-13.3721442083296,-30.3714974962461,-12.9401997433711,-20.7570452769923,-20.3411359096736,-18.5353612358561,-27.0065188250211,-24.4868242243577,-22.4456306366838,-16.7224050077635,-20.9292183475493,-7.0323262123157,-30.6125680033626,-22.7486041425135,-10.3247873163885,-27.0548440758359,-18.5445803610592,-0.926199394323013,-16.7679932096467,-0.718063533482109,16.6858704932737,-11.6447054816935,-12.7643092572928,-5.96426105479112,-11.329625623134,-13.9589161104915,-8.60706495065631,-9.22919354719951,-13.0242598475672,-13.2852308107783,-23.8076765116509,-21.8216143075685,-0.274359283497032,-15.1282342110926,-28.8149976805035
-55.3662857271451,-32.6823364332311,-54.8677227035431,-64.2221500165261,-36.0625456245453,-51.6314980387317,-52.5421717638925,-46.5514087195254,-50.7525853534326,-36.9541530200702,-17.8619012188038,-62.2773999608885,-16.7526245074035,6.67462253977993,13.511576510988,49.8633835572956,-5.59511372946583,30.9648874836136,37.7457965124112,-8.8019222884098,21.089958265413,-25.4236244792636,-12.2278170547831,-1.46754704170181,-9.80969164805054,-12.477298498387,-38.1058414518821,-19.6830071016522,-27.7517244807324,-25.6404852780215,-50.0451147062431,-39.4129628238156,-47.3156238311842,-40.1299765068567,-39.0692104282231,-49.1738406435459,-49.932514330885,-46.5213115384038,-32.6639471067977,-46.5238381894095,-37.8836086208761,-57.9354320103061,-40.9684141278053,-41.8699866860465,-54.8770611735803,-52.8834435975862,-33.7361242248983,-55.6697760888634,-31.4072179026497,-10.3788192301806,-45.1292977449125,-41.9050631016484,-27.517974631016,-36.8039366552529,-35.4624056009525,-30.0732037176366,-23.0608521100092,-40.4319481789812,-39.3159959251559,-34.766552682714,-46.7845888676952,-29.0026723143212,-41.4614504566309,-48.5328581637603
-110.918166931465,-43.8315219690217,-112.410859842553,-105.600685138633,-40.1770737172133,-74.3003722424173,-98.3585221390719,-67.7915832732036,-80.4356822965066,-63.0452552536468,-24.0509246238736,-81.5432012210864,-37.136394468411,0.0748222879463425,8.06941495015788,15.5909492760158,-11.6036894073067,7.56095456738294,9.10112495962345,-12.5341768545502,6.32751491550492,-20.4663977627751,-18.9912464109516,-12.2698144403217,-11.0606744112921,-16.4075461083863,-35.7408574850825,-24.4448232536362,-28.9420228222406,-22.0853254353517,-44.3519756358363,-39.304534169583,-49.004842751247,-37.4411672369055,-39.53059132686,-44.2305335450182,-50.5287434387094,-47.0546771328272,-29.3354395336071,-48.476828465171,-45.755974060054,-56.928143551459,-44.111061437617,-47.8427712357557,-57.8778510877262,-69.6356897811775,-51.3177713961441,-77.4191514717585,-54.0743425939784,-23.3284598327195,-67.5886410803741,-48.6879405403943,-50.1835595100334,-51.7770411510994,-46.6167189834107,-35.1720654777734,-33.7570594037367,-47.9201849553869,-52.9705370637491,-40.8157548013317,-51.8040125051206,-41.3543717946351,-58.0448562450303,-47.7402495395771
-140.943473636923,-28.8339514326471,-154.722263175123,-125.164756921893,-21.1272012035448,-63.3936474442519,-121.216248645961,-57.9899151906643,-74.1024367307783,-59.2222805955251,-7.79554498292758,-64.7362438979211,-32.828140564892,16.9095999023416,21.1750903099042,27.8114977620713,0.362186880016343,17.6194242742467,23.1889997194564,-1.96154366734888,21.0030773803703,-7.37442753261374,-7.76792446112887,2.10833522335074,1.50128743142922,-2.95553453907191,-22.4959269054186,-14.9936217645048,-16.4346412872209,-10.8806051900423,-28.0023814507855,-19.4001605229734,-29.9093937386821,-18.5545363575488,-23.2787283093747,-22.0064256363658,-36.4599591457114,-30.8726531320089,-20.2722300872264,-33.6678655274043,-33.3902240274003,-38.5206856175402,-35.2038608098218,-37.6213530484099,-40.1494770636441,-84.3458333928331,-62.3447430858974,-87.7512907994934,-67.3228642001961,-41.6477212718912,-81.4854903737025,-50.3270606314018,-69.4632089108749,-65.9235546832364,-57.4772821034144,-41.7068633319375,-46.297030809576,-49.5191432176092,-59.9216574398227,-51.0904914317478,-49.260339043022,-42.979700828533,-59.5491283370819,-39.2730466687261
-132.899301304607,-2.03107626903012,-154.968947992127,-113.508882229929,-1.38706931913946,-33.1794543356267,-107.020861386471,-38.8039355379854,-43.2405633604093,-38.2746473293286,5.86656899538974,-24.7561119055329,-10.067033560859,37.5534677217362,38.7134601824619,47.9388098805394,16.8614724095185,29.7138459473342,38.2369383934523,7.10756527510142,33.3741402759505,-4.25285807506386,-1.30512481347462,15.9359995533347,1.47349200860793,2.28983971305985,-22.6158605812569,-11.2080402467389,-9.80965607292864,-12.8233119713422,-26.2350190555269,-13.1834208191059,-18.1459867560292,-16.6664952584661,-17.1087890839964,-16.1951428904179,-32.4696352782094,-22.9576479623402,-26.4912030608052,-32.8423578727879,-30.4673807861413,-32.2314954082188,-31.9668528383496,-34.1414786685952,-29.2906839874529,-104.735499683379,-78.2769097004033,-101.182578256585,-82.8695502812109,-73.0012081096579,-97.0820236399308,-65.6790820365838,-88.427647557484,-85.4002787100132,-73.1917981304333,-63.2190571950195,-66.7583859836072,-63.2553732880926,-66.6633056534511,-63.9009915475746,-56.7738484180744,-48.6883296294483,-56.1927201115196,-42.2621689922072
-98.5539677953324,12.5825799534961,-114.979143661303,-81.4983787210464,-4.13367877472438,-10.3140422480084,-71.3597516292697,-36.644343636758,-18.055276497263,-25.7108834534882,-5.9717579189867,2.89136857783834,5.32883641196329,34.2836784627341,44.7340759739706,51.7067525358498,20.1918198322527,28.7633322963607,26.9583799371695,7.29483584688132,25.6657474776841,-13.8260956210575,-6.91466441471389,13.0963937504455,-14.0534020130606,-8.56070769499477,-34.2020091009315,-17.2985479116988,-17.8616552116585,-28.6789427932558,-37.852225694946,-25.6936496518773,-23.4170180139386,-33.1755894703862,-28.8347645119832,-32.2837946472512,-37.190808669041,-28.3849234634776,-42.5667476103858,-50.5509750652238,-40.0245017697938,-38.883461768348,-40.4648635575753,-36.2419127419066,-32.0348357172935,-108.432477583351,-84.3843073621884,-108.066838369168,-93.8790763397812,-88.8618035943121,-109.929881797025,-78.882368896019,-100.781894978985,-94.2806538634934,-77.3270864806691,-81.4000106462692,-85.3640972296785,-75.8373144171105,-64.948027474489,-69.7304066293392,-71.1857188518154,-60.1979414871826,-54.0252803153393,-54.9562308478392
-58.9514826326495,6.36566497659181,-58.6973522315724,-47.8158988842476,-25.5774907595463,3.81112778348136,-39.5031361944098,-44.6157828039386,-4.61273700376643,-21.0307503701668,-29.8749536202895,12.0771753112025,8.65361343022575,15.6113979301142,43.6676146613923,50.0629145141172,18.2021322193654,24.4401500371111,9.87572460443399,9.83684436338761,12.6887944474543,-17.8973697771447,-9.12092074875731,7.85089318511831,-19.025400631049,-14.0518414226821,-32.996312025551,-17.1137979706659,-24.7554935255607,-34.940297943893,-39.2317893798599,-28.5867251987676,-28.1996825721853,-36.2253847814943,-35.6023613372351,-38.1862420174028,-31.8900953766104,-25.7717763385129,-43.2085776171627,-55.6523151387611,-37.3523884397989,-35.3043494365097,-42.3915159170726,-26.4632957228308,-27.2323011570165,-80.9669365015961,-65.5416428409032,-90.1952627389643,-79.0142704151554,-71.8108536057601,-101.267311000581,-67.3127065325132,-87.8672181254764,-76.1226882675974,-58.6005128715936,-75.7648265200631,-77.6065292043726,-66.05980096987,-46.7557554782215,-59.0035939861917,-67.437407555242,-63.7558504280265,-42.23195047453,-57.6440005024738
-28.8846349146764,-2.87793708816295,-13.8695444337326,-21.495427061785,-36.8950304916428,14.2994602467825,-19.1336924984874,-40.3330650689231,8.26946587413807,-14.2910098518051,-36.2393283663629,16.481061179142,13.2355761129537,13.7904967544131,41.7564949013927,50.0088916493344,20.647660597052,21.7807155949688,9.54359945333476,17.5864116016654,9.89103890497182,-9.1309812859438,-3.1079739818861,9.7552282367414,-8.93717057018297,-6.37950372281395,-18.0307062583921,-7.73145060064091,-20.0082079826683,-24.7358102370405,-27.0639301760526,-15.320122578819,-22.2879994135155,-21.0356570315499,-27.4288790900045,-21.3109877318959,-20.6511545275954,-8.5425939824805,-25.6893351896444,-36.6505400673878,-22.665393223377,-24.1946163696733,-26.8384753989968,-9.44012593663103,-12.2798475240853,-42.3516432737484,-40.6133457420656,-57.5032958858433,-50.9876370228278,-51.7890071703154,-68.4728372096097,-47.2009729064541,-51.0257825589248,-42.6267923741293,-35.6646494110727,-57.1413960747124,-40.2712936556042,-43.3459090196752,-21.3701888300148,-35.3653520747118,-38.713112909679,-53.4014854708643,-18.2851494259252,-44.2846432560544
-12.5028454948597,2.08546010484899,4.50319619282973,-2.93717008353968,-23.3539238970699,15.7877425932439,-8.27477540616748,-24.0437552372204,14.7365557357477,-10.4980300660578,-24.4386261032015,15.0572966154664,16.8080908912864,31.4529966027336,30.4272432043354,43.4650262393849,20.2189993721907,16.3432021735448,16.4006322082326,18.0496062933456,14.5030331611021,0.758254888967248,0.441477526125075,9.34440077909072,-3.48605504076215,-0.185925893327005,-8.56780318555485,-3.2370685541889,-13.7906654114896,-15.3525794584592,-18.7774046373636,-8.79026841336004,-15.3741570876922,-10.1184722114372,-18.7015490569379,-6.44347207980977,-17.5124114711589,2.1537071594383,-12.3513228875557,-16.0019075848104,-17.1418944066274,-24.5285209819913,-9.56982586448708,-6.77523533169363,-8.2970320246413,-17.9405468059148,-35.9640367661792,-31.8109327300621,-41.7351327837771,-54.3716837545354,-32.5543362416102,-41.8724195739434,-20.843775012863,-16.4107991779284,-28.0710106349159,-41.0717889547091,-5.58821332685139,-27.5883440927614,-5.20650572596087,-15.1495810333926,-10.6918816488613,-37.2243158777691,0.176220488294818,-27.3626736005327
0.860287766345628,17.9190535366986,10.7867692903624,12.0595846294123,1.28463215547488,13.4073430202946,-1.48312181288412,-7.73035961009479,7.76638963535173,-8.38991148365168,-11.4876086258953,7.74963482142219,15.40728253314,45.6142053135459,13.3114886887655,33.8208680675125,18.7613207127034,11.9286925099671,19.9170273369134,15.4377835303717,21.7387049308703,10.3102938009301,4.07780177254773,10.287591146984,2.01794488213317,5.02054494561075,-0.906781024745917,-0.832571391350918,-6.23497656170058,-6.70088799871342,-10.3544069891153,-9.65166951292776,-10.5911879275784,-2.66807507813611,-10.0980644913652,-2.07505102192637,-9.50498946384508,1.31195715379347,-6.19988617904592,-2.08744294350786,-14.6855840454823,-23.787870622883,-2.22045163867327,-12.9015075504893,-12.0268604117707,-5.99812267556536,-40.024406496829,-12.9659007992778,-40.0537514666855,-54.6458812585084,-8.25442859262724,-35.3255866305192,-8.89185882213243,3.79953780771339,-20.1915873561487,-21.7481232128774,6.56312381994924,-14.6115421953728,3.83871460198517,-2.91472395120139,2.71755535409244,-16.5784589274298,8.29863918086282,-11.3701878345767
23.2596501640179,33.4569989110735,25.3662778963442,27.761914378997,21.7188549761504,17.7975518095091,10.7426259799688,11.0521303076844,2.96547174401455,4.81660130173672,6.63384204586836,5.62207857296493,19.5451878154687,49.3461734592612,8.35298592349857,32.0958308013848,28.3133146277026,15.7158098058341,26.6308642118817,25.6062362453422,31.4663558283819,26.7590169501892,16.9904049548474,23.3140794521926,23.180040060393,18.6213478810499,16.6124511805571,11.5390181161428,11.5536769612573,11.6226932279505,9.10873372084574,0.589175250077406,0.453636864240693,13.0611517023544,7.52486770421584,8.31627720533545,13.9224291853057,7.04127717420842,5.34059135361909,13.2678629080593,1.09452688276066,-5.23230249090352,2.30194678308283,-4.94762190475451,-2.69334239153359,3.49477914417073,-33.6323261418675,3.01893383850357,-22.1381708963781,-37.0661412797886,3.46508109200575,-17.999526162749,2.49403822333319,22.6399854345081,-0.860609832938326,-7.37258512078599,9.88969622798973,-0.90725086654216,16.2233546778956,6.79351379489661,8.42532815394435,2.05958765190205,16.9861294403007,2.43819398794639
54.1728715579418,50.2375599362325,48.9040425734395,48.3706186878247,43.7055948155821,31.1159471055894,34.5264328768613,44.3471205268407,19.1310487850217,34.8365802821867,46.1288863187004,15.7951564563506,37.5712285588556,59.1776752044541,20.162173476542,39.7597279547195,47.5281246655521,28.5953975632115,41.2550113343737,46.3194651390821,43.0163790140777,46.1737272294033,35.1359948483036,39.8045093885401,47.8819049601898,33.9103781515367,34.5617523427335,28.4151741710691,32.9917617956458,29.7262005095957,27.0859166809656,19.8342017147319,18.5764024950674,28.5261168377878,25.8256018413828,26.4298808062185,32.5108531715686,23.3356135225171,18.6837766876468,27.7609117429453,21.1759618088156,16.6435467554584,12.3231584272719,14.0671867862088,16.2254685630048,2.97287105279574,-31.7638866157727,3.50642740558965,-10.3509869775863,-33.5000113892492,1.51081923151571,-19.1535283567471,16.209114654623,23.3736350941272,5.63677720220871,-22.6443106353625,16.0370415954299,-1.10344768335161,29.7545434483708,13.1725482661329,9.33000459545943,1.68801990486689,29.3995838874162,9.08310485198284
83.8788794344758,72.457744511327,72.6405604736289,72.8599141015626,72.4222995370573,50.5741213146131,64.3859690461162,86.9387392923371,48.8995382957902,72.8069787966315,96.9794716648059,34.6336971621728,62.2468819575043,82.2235320477254,31.7847115021698,48.6973186324987,60.0654924776071,41.8957758132875,54.8366189369796,61.522665413537,50.6361725460665,57.0225866603309,48.7204985956311,45.569407769255,57.2074373277357,41.0525087972768,42.770542921718,38.8030576882331,44.1853153127088,35.8027320986363,33.8168271001421,31.7973242035351,33.6928481337422,32.8028661298417,31.6687170936308,37.8997322107433,33.404439294848,36.035740298698,24.9339506461226,37.6377444157608,31.445892247691,26.1570182518487,25.179668625976,23.9065699261945,25.7198565610051,-15.5959016330703,-44.9056063115593,-17.5005265358471,-30.0238492763927,-51.1827084949274,-14.9143962823666,-44.864074547572,16.4207330767473,-0.730603165163433,-11.9459996800861,-52.17778662057,17.4746684325879,-14.5307454926564,38.551210056517,14.2430746287552,8.98195113397562,-7.39920739013212,43.4564244920289,15.5321300521364
97.0058672579513,81.9422727709446,85.4690752082931,86.9083008322511,84.0508081806566,61.8436962188202,81.7962061496173,106.982422502134,64.7543894886192,96.398916133499,118.012389566837,46.3628967892026,75.0937571753577,96.7700687426772,23.7918588453638,45.0348984252041,49.5104361705952,37.0981274916971,49.623051505491,56.4880737070281,41.2177727066712,49.6299016115867,49.0130751075972,37.8154210457601,50.1003182225376,36.6167427843128,42.0684910586401,38.0510010327784,38.249996246155,32.8738956246334,35.4296612850199,31.0768055392807,35.5464809506732,28.213708857666,26.6258333584826,35.6155673602579,29.2360995593569,36.967003341712,26.1349942143059,44.0960123719288,33.3324410942889,25.6926873295239,31.9367364955025,21.2749931653519,21.3857859267366,-33.3659325743583,-45.0357219874178,-35.4523742501242,-49.6198181225856,-47.1425789504447,-31.8390099441891,-52.0915286540614,4.67038558313888,-22.2070553558378,-26.2062563707166,-49.4280504476684,10.7301251911329,-16.9037581158244,40.970420822446,13.5227914742688,14.5137296467851,2.30782482762785,53.9599839005145,27.0517864918671
84.1702140454301,59.7694817781304,80.6829671810581,78.8244748897219,56.7842568512802,51.6190575741982,76.1856268563546,85.2979998006815,57.4560880749656,92.7754434348126,83.1601787432231,41.538404425178,69.1128568239365,80.9447577339924,3.19431270074092,22.6089698951745,20.2200386796604,9.37741187520447,20.0860327552502,30.2793626230309,13.0937473481783,25.5933144016156,33.408383473361,22.2991691369866,34.124512157862,19.9948950786581,33.7855767593002,25.5511477425972,20.5311758864552,27.5012924415097,32.8639771794659,25.0266312265686,26.4016804663752,21.6793135777177,21.966572916319,25.737537930389,29.143899436274,32.7005497419362,26.8032268389091,41.9842995521834,32.0339346805823,21.3822935904025,32.9747207625827,20.1165075696517,15.8205839121581,-19.2004986491073,-7.33933435781828,-16.8679992347413,-22.7160970356962,-1.91805976016342,-22.5039518273804,-14.6367307405522,3.27075261976421,-10.6019173065175,-10.6566897733787,-6.81990124156669,9.2848467770069,5.25838490067344,38.5503162794681,16.7555159566476,24.5573959565405,24.7702610284685,52.2234247197718,32.1867780737768
57.8316244937671,24.3700755868365,69.2243520120182,59.3375955012373,14.2225005877604,35.4203617998233,63.3692053589037,47.1880582341531,46.4135913094235,77.433942175451,21.906544045076,38.7902561277619,56.2744092322911,42.3772388865485,-6.03237569593734,-7.39734353612741,-3.34145257512943,-19.5137909899699,-13.937189096146,1.51495168936207,-12.0105716358285,2.67336069074568,13.4777658386409,7.65757169484627,17.4486354586059,-0.124849647980634,22.0068172788164,9.84082175262751,7.19855278534414,23.3202066260923,24.0791676215622,21.406177636766,20.0816480980782,17.3353286871696,23.160455426321,18.4574228611498,30.9412902673811,33.2708602629284,24.8817935207533,28.2994303989498,29.0068028584986,19.7507608480344,35.2627293582614,26.9408657939735,18.9136225085253,21.1630504782306,46.3822297540694,28.8447970664569,34.1931350237333,51.2941204452403,13.617089600719,35.7936806605044,21.0174308387059,26.285070443291,25.7374399338853,36.1178952083153,19.7981155586531,35.2827541983047,38.2635964046511,24.045658108374,32.2253463583271,34.950336726492,41.268347170157,27.8975685099779
44.5076513866533,13.0361284590726,70.5380716000043,53.4873079195417,3.32797308625414,41.0144733556999,65.6072429286417,30.8890655987596,52.3970901058215,71.5285295936548,-8.95830678461459,60.486128257847,47.2140940318706,11.5220109586898,2.48739182608511,-23.8235034005406,-3.70246971551053,-27.3977259263994,-25.6095872832545,-8.59619489143906,-13.0010996787991,-0.326598987768597,8.14845074966756,3.4177781885729,9.37107531767809,-5.41791116035537,16.7705357396535,6.71707323121233,12.8938731822425,23.1088833661249,21.416098647359,26.5152556927754,27.5708154753515,19.4452969324469,28.6993590203824,21.5247131812026,38.8057341807423,43.6088376591144,22.1489743120967,20.4857921845417,30.6256139580925,32.7407200551032,40.317811204288,38.4392300612369,32.4165865538612,47.6856810836957,75.9813724756349,57.7522273584194,66.7485892061518,79.2126154619018,44.0135091595345,59.3493773875346,43.8402909619324,55.1392659117624,53.6879604494813,53.3907416313256,33.8161919398769,51.3316557576941,46.9912027744209,32.4234398742159,38.1417558105176,37.2482847682367,36.9147106352393,32.402416790471
47.911274094029,24.4886887963771,78.4831804340239,61.569942884848,25.1549469379128,61.4199317173355,74.0181313392326,32.9692915549525,68.2713988680591,65.9069942586736,-0.193105555329239,84.357803258662,35.1221733079575,3.90001427225644,8.38929658549552,-21.8792611390437,7.03406985890889,-22.3490162127148,-17.6680213862503,-3.57432747583087,-0.526497896956866,6.29205260766362,16.209674637928,8.38855830011437,7.33961108749148,3.86798263037336,14.9423311840001,15.0753058538898,30.8535045941126,23.0637543016949,30.8105076980717,37.0346615156238,40.659226851969,23.44998342515,32.5831847452489,29.9488308135358,51.554910918604,54.2421773483968,22.726930419824,28.8950412861247,36.8140353886788,55.1008539696499,42.023505987724,49.3576906151906,49.8799344867057,41.4668977623684,70.0211861385791,52.8519176413625,61.0056213648917,77.8089696791665,47.7934993818184,54.7810724105228,53.3210644210103,56.9201849936682,54.7771846327714,53.1724927672207,42.1743860839789,50.7665437412009,55.3612947301243,37.6934864407198,43.0307293728998,45.3027954535662,39.5879021946156,50.3822882678347
43.1198167642296,22.3582419275009,66.0184754900602,52.5907701723505,31.0992927496011,62.1486416508267,59.2072364272791,21.1852159489307,64.5202819484245,36.2979062926183,4.74396238150457,67.6943836863739,10.6897355673296,0.657267438535498,-6.92807705688309,-21.8602165762041,3.78863575934569,-26.7803995479833,-18.3711957669316,-4.44141035808131,-1.65955456267729,-1.96169841913386,15.4942601060125,8.6940053090897,-0.264242634024741,4.84254649005864,3.6053616688406,15.0403423927997,37.0243365297735,14.9834834294957,32.6689557985169,36.216137338912,41.057924666535,14.0248240116245,27.1548942356546,27.7598512151757,51.2749013158736,47.615227141314,18.8380493539023,33.2234151765602,34.0698168405566,58.5144872117803,34.1736860642552,49.3456364468789,54.7185173885437,23.0793202464538,48.2412546991997,36.0657489033239,44.5766710575637,59.8698081754276,36.0320508205286,42.8290685366294,42.5718059343241,39.6131104380566,37.2899718663832,46.735617098972,38.5674492905641,42.0260085911398,45.2754471040627,31.9379608450217,39.1744896070577,48.5916146578013,31.5181236836247,59.0173796732476
23.4480961369958,0.800209870361523,37.0819757581717,19.4090673573733,6.13026032132723,38.5248072484326,24.8025371654324,-2.93984261695221,35.5418021575053,-4.50069297871215,-12.9694018360557,20.4847934547254,-12.7283130487431,-12.9014056116963,-25.175616388532,-31.0557817641177,-9.2374543270536,-32.8828864445563,-30.4811036214981,-11.1852272321315,-12.5688604057661,-12.7323166510044,5.36393751379289,2.86485155046994,-6.57563663856816,-4.01020044116444,-7.19791910379101,6.25502029649812,27.9111285864036,4.95999686287558,19.1529150743486,23.1835408531859,31.4575737941603,-1.47638674272299,17.4913328726311,16.6100410508877,35.762798039991,29.5867926081922,8.21161140255528,24.8843993259399,24.0216894621204,38.5462567078297,22.6912647849946,35.5648626058594,42.8643836566092,20.3063988984391,35.3783842542867,32.2790832456671,39.5790587062192,45.4774109736135,30.0044844637095,38.6831600237767,25.3798228841975,25.1209583780597,27.235565375793,40.3475711479874,26.812978202174,33.0173623263241,21.7668927154344,17.5075394842094,26.859350627154,41.2880475080206,11.2210266760729,46.6616342277281
5.21596415661559,-16.754769567827,15.9875927251017,-10.2586160661037,-17.1235461199485,15.1649876583786,-0.513866601050711,-16.0631425049912,4.70379831145006,-24.4305894314958,-32.0090265887869,-14.2676799303375,-21.0621413293689,-24.9279797417832,-20.3735937316488,-36.9838789271599,-12.4363789526108,-21.3981260504529,-33.8375313818426,-8.95054396477298,-11.1557467548455,-3.74782176698807,3.46520057555827,-2.33951783604139,-3.67180515247233,-6.64134900664652,-4.88338827972145,5.07887729984844,19.785235122246,2.53381796314136,5.58777852692833,12.684387664539,21.7875207724582,-1.51282972626182,10.2159914659227,8.10662367350182,19.738884345959,16.1506309905665,-0.141219677772719,16.9578216316427,16.8663654694976,17.9039782791124,13.7150048636258,16.5172719946526,25.8906380427886,27.5148729423785,30.1480045335595,37.9869478061432,39.5244411371403,38.6838285692021,28.010557581905,35.9121555806758,15.551286532166,18.791961540299,26.7513884702453,34.2230608521195,15.4834356483808,22.9359406292437,4.99579894266752,3.79129199663775,13.4539132342354,31.925654802417,-7.37602551728855,24.3539389871472
-8.21809085151057,-25.5388979047704,-1.02324430929099,-19.9424842219341,-23.4247191404789,-0.695741602723101,-13.0273942901361,-21.3808532445435,-15.7330263746385,-28.22786398308,-38.7231548881141,-28.5393040487375,-26.3464887731911,-26.7142319290152,-5.47514269883083,-37.168287468611,-12.3006894280913,-5.60122396493822,-28.5389848340792,-1.20114582681571,-2.57647126968773,6.1339767572232,6.31279917304418,-11.2924514694112,-7.07530726910598,-7.66691317856628,-2.82895858250366,6.62116594411949,13.5355517944436,-0.836889032549278,-4.40987202813352,5.77046006133283,5.41392234277251,3.03516827901175,-1.89966014359775,-3.45399159592661,2.74488358386424,2.20820915930169,-7.55973720372756,7.43256430807739,5.99274536688152,3.29224405180344,2.71796069171668,-3.44918633856012,8.38971937618229,19.1841009465749,14.37234746439,31.1301964277442,26.8535201147102,22.8576768496436,14.0838471538534,20.2417783894629,6.90756303351134,7.08347465721246,14.2175458102016,19.8033127967318,3.54945242007007,8.74863678595985,-1.70447953591687,-8.1730154953663,0.730731680027845,19.7468323078834,-19.5011102938358,2.92940620834351
-16.6389682512814,-25.4404535919582,-18.9863400143418,-12.2963818854525,-16.5700148082187,-16.0438233799216,-18.9862651081172,-23.5321744821553,-24.6755238413681,-30.4376939230246,-29.1528881363666,-34.6576343494175,-33.8070719355088,-19.7764584359831,0.836328615662352,-28.6704468193137,-17.4122203848861,1.47679877722842,-20.2957167273154,3.40605024626806,2.17258545655807,-0.3314847884483,5.53916685975722,-17.9242521490782,-18.5304378612798,-11.3590248985206,-5.07504376674116,2.21982236889904,6.25447361150973,-6.8280795555653,-11.0586061104736,1.47676958231456,-10.1849201109279,-4.4077695353137,-14.0281499289058,-14.2277000602315,-11.9332499359878,-9.8554451929209,-13.1419058518554,-4.4109174213613,-4.10869948371666,-4.73630190748992,-5.54500155959592,-15.3868496136698,-2.43122856942862,6.53756391290068,-1.67897543620731,16.9617816418197,9.78494402023414,3.16397011276338,2.19431384733049,5.66477257319301,-0.141643076889658,-3.24318199884272,-0.264627597795438,7.18932620758188,-2.71408108428736,4.57340011157175,-0.813483344768376,-10.8021581089549,-3.03120251635112,10.4686960562356,-20.6811310483392,-4.72212668743353
-5.70289927174944,-1.02381219762979,-13.9524797396078,10.0265361102753,11.2894461622598,-21.3516273923778,-6.12360283841253,-3.6592017254494,-15.0427016565225,-13.4201309167814,4.04935557352431,-25.0188175513467,-21.227004980841,2.80427016101408,11.8237394578982,2.5633996127975,-8.72111798996885,20.7268260085675,3.71028002998961,13.651229854228,19.7317935020204,2.03613831391729,14.7582667803193,1.22718086008405,-10.0070415433613,2.03449677643564,6.48815761191221,10.4194675407527,13.9210006166135,5.98632406716549,1.65017105713508,13.2313969412336,3.17228651305357,-1.46868071752476,-2.14913570402855,2.62425613310144,0.0229264059287675,3.48748500081875,0.343451513166105,4.38563725243315,11.3892033988117,10.237958706021,5.95554493837221,-0.191470483359011,11.1403221932548,26.2044991836157,12.9408521462311,27.9682414279526,18.0166915414225,10.9367970771329,22.8804853635769,20.5404416033605,16.1323170424668,13.0204661359073,17.9745550418004,24.9341127388441,16.9670295581619,26.8387898922094,17.6041647231765,11.6948916045934,16.5445696176383,23.814270512266,0.803901020751383,16.2423891614087
18.7776085121359,35.8042120014329,13.9290461349406,32.5717950135648,46.6502663365388,-8.71572455004906,18.9967786913054,30.1249803405737,4.16750929714665,22.7509755800148,42.7881164126604,-1.66758703605297,10.4234442790417,33.9579743092421,30.4627140173096,45.5882571125434,17.4287192907193,53.7743805055187,37.7719124475062,31.3327368653462,50.2600855946427,25.851334119031,36.68758938842,39.1834259390593,19.9883182999332,32.7450629066007,28.0230053210393,36.9773249201801,37.9007217071349,35.0310661484506,29.7952980504304,38.2398564519077,36.8170250811206,23.0197470054787,29.061199453996,39.0974032022582,32.5762709203486,35.0300915369973,27.7570146863474,33.1201670560585,41.384995109277,41.4036188758461,29.8893371569075,31.9810058891999,38.9379937368585,64.411328998652,48.8123220401424,59.5003464972247,47.5738251418949,44.4501451793938,61.0816112562722,54.2292070712716,52.6468465476967,46.2892797629736,57.1880337111352,61.5950866942696,53.0959161940902,58.0058775331491,46.1401948208684,45.2643716683031,46.9949038219864,50.4640845726003,33.1549337238346,46.7934046029745
28.0701226573087,43.5306528225689,24.7076955881115,33.5855382979825,50.046396990248,5.27571636325697,25.3846591227319,38.1291046990928,8.83838397758992,36.5133232426498,51.2361267310375,7.31266491880496,24.4999000671481,45.140263191359,32.8062959486684,65.0429464390795,32.1716628327159,63.3974194772015,49.2178654893592,39.158349326783,56.938764142922,42.1366931857106,47.1054175872487,54.6847699136251,34.4089384573427,47.0371544743824,35.6667655803431,50.8071082817795,50.1853941702951,43.3425896892547,41.5301070241794,49.2031220359593,47.9994402032845,35.8312119811282,42.4541651199773,50.4275053164503,44.6761052219579,47.2141385251754,36.4819900546473,44.4168040372757,44.1100833938515,51.9376068545716,35.69313327426,40.811925150098,45.3003622911772,65.238953732204,62.000355451848,67.5439367896781,59.9624459797591,65.9868429872871,71.3058026711203,69.6341748158062,69.365816407355,59.9936559462034,69.7530770735546,72.1437335541456,65.4949944111832,66.60307220039,55.1283697675399,54.0578438593077,55.9259211023289,57.3518641528948,44.7034956904165,46.1623844049162
28.5742677637292,26.9821791697542,14.9339199136797,27.5673428948038,29.8734109669312,14.1295000911414,17.8042999616758,26.8480455096826,5.43115447560493,21.430002144784,38.0433663144002,2.79665393070296,18.0847178058736,38.7575888436283,24.0768458918394,58.3955262207574,33.369307113629,43.5034968203471,35.8861118087355,38.2991825281632,35.775093051393,41.366701055901,42.004511294804,41.8635970544815,26.6533046714287,39.2061619458682,33.414158645616,42.2191778231338,42.3047317049805,27.7523461225398,34.7128015442342,42.7021769758776,36.8658136397291,27.4700614281133,33.3792994208966,37.5629285422535,35.4960207481401,39.046424692329,26.1385627464322,33.2832961483444,26.8132953538267,39.9732256999141,24.5892570395841,23.6451546342845,34.3252001102137,23.0896646134735,48.604630151298,47.3476596956362,51.0156222693222,69.8836205263045,52.4383550136546,67.8833563197188,56.7458151008205,53.9139027056619,56.5953206427592,59.9848226619899,53.0298440654729,60.0480836677282,47.0870499376155,42.0025579663146,46.5828051595488,47.8381275733812,40.3160500330318,24.2858808462803
47.7794370814431,29.6113694190228,21.6450729603249,43.4234826200206,31.7316188905321,29.9526931863018,24.9098135907566,35.8614496429474,16.9484365647413,17.5807614292186,38.7582253104431,12.3927238945525,22.7323181470535,41.0127882449189,28.9527964043199,51.9042433920375,44.5272424574296,23.2098276044359,23.3616567186749,44.8026978583507,22.0530647642447,43.0635667958725,41.163248051309,31.1206670323989,24.8588061539757,35.1838457000779,37.6294318573173,35.4445849391313,32.0660642302234,21.4454807643251,33.1255494340577,38.6664673130367,34.1398147209537,26.3525148397227,29.5330351780859,36.5921252893247,34.5208488217668,33.9068440463203,24.256250999268,29.1405616004648,25.9796309748839,33.0772921526835,21.8047081826846,14.2907201220011,34.5830585217108,-13.3580816201444,39.4565614247839,33.5112114481675,47.6640188954263,76.1911930266069,37.6638624830977,73.8228986436767,44.8870016160642,51.3580654585099,54.5159452997574,62.5527630721346,50.3625494489405,64.16779351958,50.8696898549593,42.2081731254203,46.0905482926966,48.783602007902,47.6433093766124,25.8746582913076
71.1217475075196,48.6337071308002,45.3936960715273,65.8801032572842,51.7439624531811,46.155442973732,41.2929608897874,56.498781245537,34.6108458231922,34.1805441537874,48.8838443154018,29.8368558240216,38.795878409318,49.1432781011047,32.8426392003154,47.5525572977377,56.5303802289821,6.19986749388945,13.3461577006224,49.6474990702458,18.8444458810542,45.1905583846805,43.2375646248965,26.1577042594775,31.6091731206418,35.3686201598965,39.7239577905665,35.050816985032,23.6756007287466,28.0573233572016,35.055694084801,35.3411781692722,32.707405946784,36.1718497070144,34.1169517267486,41.7819250220313,34.6830701096236,25.6033557711421,30.8566993004272,32.2706755761528,32.5347499368005,28.7478847111175,24.2909536961204,16.6281686550788,34.1658021816357,-18.6187453481613,36.6156472290722,32.927961019008,49.5494388205811,76.4674411692555,36.2308633501312,78.3795922579475,42.9586554148902,50.341645486035,62.1646331817253,75.0534531475997,61.0413255154781,72.7882658452418,61.8457130720188,54.7374110055024,50.8138519421271,57.3637120593521,59.9300724797195,49.309280493299
68.1910758890398,48.2399869882071,51.6443292877708,64.468009795454,53.0744308351766,45.4176285707914,43.3970706538815,54.1722117074753,35.7087693772089,41.5261548926334,44.8612462364093,27.183160215757,42.7565766520231,46.7068320527152,8.93247971299547,25.8215187082252,42.7172151975088,-22.1971017065967,-7.65398666960175,33.4202059637922,0.153864567059482,33.9805164266854,32.5075484219191,11.7133221315118,29.1402663220194,23.7611472977664,30.1625687278178,25.2713005079914,10.2688229573623,26.6587253902559,26.1044227214113,19.8618207608828,13.7023889575022,35.3479556525863,30.9547952969989,27.9259899060346,17.1021068953138,3.49811853401584,27.6933300811372,22.4129639916366,22.6092897004888,12.3654606038686,15.7640960028599,9.29798007975736,12.2198359454029,-8.30952192541565,26.1538734936841,28.3733976724393,38.4571405237995,55.5539177993333,34.8270284123072,60.2856270775624,38.2486845625863,40.9441362483277,55.8153425711499,67.8781826693358,60.625615623872,64.78030686818,52.2774133083744,54.1074029953779,43.6297160780604,52.959864683746,55.913240263448,57.7414948484511
48.5174994499887,29.901107640681,34.8708983291876,46.9892151502122,37.2183835087,31.754076237196,30.9094933045679,35.4445664986568,21.9590223804952,29.8655666310631,32.5032283432976,6.14053890547317,31.8124865876727,35.0284988580801,-26.8558948644224,-15.7819970363303,11.6321956022175,-54.3388224134267,-35.4974460834042,4.11921410629108,-32.4753039375183,18.3429151280337,12.7129492956968,-6.45502197457605,19.0036922541457,7.50046137420838,20.81706069271,9.70209946705905,-2.14335468526956,17.4589516865705,12.4790724243559,0.849392160501445,-3.81270268587053,21.1992879861308,20.2444068757931,6.32619852268285,-3.42461188751077,-13.2943724698657,15.967312226955,4.56066327982681,9.24341732139271,-2.71374486372544,4.52862601490728,-5.50029672511383,-9.94210271252544,1.27635368021557,19.644540796251,20.6625405359734,20.6464417058894,31.2833463421701,26.3062174580833,35.1213761086121,30.1264971343996,31.0849135289877,40.1712051454196,45.0010240366546,42.8661732468815,42.8354103200475,24.8453542837738,36.8778472819066,29.5005372166858,35.2600306836049,39.6367831812279,42.2450064434502
40.6129478615663,23.0739383584093,22.2068398353762,39.6449920096057,30.4666655408612,22.6020277415787,23.6086792051801,29.7648654475458,11.8873305540147,20.3724600675629,29.9946034184788,-7.39234780073332,20.4478327496156,24.7948517051479,-39.705623954951,-52.8073481055425,-4.21417801502767,-67.3190254776753,-53.0366817238177,-11.4739113858926,-50.6668698481099,15.2989380053024,1.48029103049942,-13.5625272175809,16.0770576636067,4.49132056639941,22.8597036268813,7.61654659332463,-0.193921737017808,15.6233453538538,10.683907682591,-1.56092037491833,2.58495414412005,11.5960584931343,14.4334962071917,1.82987956695338,-2.84246699055702,-6.61401164466424,11.6589968907004,0.120195130055712,11.9302411665233,2.22704960494407,7.46874214003585,-8.00573529052197,-5.577682896411,13.8837482434387,32.1452482549938,22.9718078670598,19.7083052441008,29.0450692192525,17.4805412393365,33.3574905539099,24.8896280872617,30.086252355995,35.2378922524877,33.9501646706395,25.6822091723003,26.9405150201293,8.35544750957163,22.5306200582436,21.3829102832159,22.0217891959838,26.9907787945287,24.6214236166947
