-76.1937562531777,-96.6377517464186,-83.5883929209457,-97.3627161256115,-109.034642630618,-46.397720268348,-76.7012313186128,-80.9060247179318,-21.3864491861917,-65.4642834411223,-46.1077345166708,22.1114135653846,-7.24964379192938,-1.01495013087011,78.0061672011601,122.011505018171,43.932841379092,90.6205473991172,184.358441628764,45.0927843858007,102.364970342043,0.797460817112231,79.6010888353845,84.5308466138965,-1.37743232046658,68.5816302716519,-18.269102355662,19.2840524865321,44.0778342549306,0.362482189596469,23.4163494479319,31.100971867377,41.467962489836,-7.17714735401008,9.64202624326607,20.0090168657251,27.1861642197352,38.0606299076292,4.05980052348045,18.5590881073392,23.1263636962547,27.7661357230895,20.9514705586759,23.5613423237705,21.7489313757881,33.7833400703909,-102.002488152446,-52.8499032431652,-115.776811357112,-71.2639984746658,-51.6899602364565,-70.4665376575535,-21.5314420620302,-63.8693618068978,-64.2318439964942,-94.6078514846783,-30.9559789915384,-88.8806328890541,-5.50972928186633,-66.8417157615888,-86.3432575618789,-115.849307795031,-33.6383471945523,-138.105714236255
-325.724394899824,-446.799504520629,-354.794572849059,-436.827602946397,-499.242782422042,-192.679974242147,-334.947017672823,-349.823915775327,-79.9467714426574,-269.013576141895,-166.292727383656,118.547483274352,-6.77825156111779,62.8957577994488,339.616483470025,637.301440417877,185.26146998054,423.540247129792,902.10775690039,200.407399329145,515.297995717238,4.72638707787138,379.372768676032,416.683672954227,6.07849526036706,310.266515578036,-81.3942339409807,94.764728832629,211.323211140461,5.99725955765677,114.734865834996,158.810349889392,221.558317784268,-31.1555429475133,51.2609238449967,103.569404679494,146.106888380336,205.463098850253,24.338411523037,96.3270436082234,126.698234635811,156.035987287016,116.740898502897,134.634409771776,131.254304699873,183.572534515091,-395.916307253806,-190.817031077752,-468.669793297474,-274.784160292802,-201.407337190496,-286.224478870933,-88.31938175027,-258.76334116904,-274.257634094124,-415.926217775933,-124.556511244592,-400.422622698328,-2.72719030242834,-274.896993138211,-387.005402334933,-511.351706986425,-121.407567271363,-611.375622100332
-512.982752301242,-839.180696638093,-551.721678604877,-759.737518024624,-904.682982787909,-286.041003139648,-558.490732970934,-571.006920895581,-104.047689266994,-388.768605153161,-160.301969574067,254.86296387584,70.9629005765807,333.22336314389,535.665490820105,1406.99864297194,263.969984191917,753.641567940091,1800.3686801925,332.745926651689,1073.455021522,16.0785179432299,732.345976578463,853.330101155035,57.977431962452,546.681230373297,-129.390948187698,198.502226578812,418.165688880868,33.8161906270963,239.928065045628,352.138890203767,519.286376118771,-41.2570416069721,124.831936651893,235.919615206109,348.147872507336,487.174069616808,71.7528109087429,220.715459015861,309.066193849953,390.598300089411,290.414890989787,342.917863797918,356.919895469875,421.61674755564,-453.059688942088,-181.728847521865,-632.486044795936,-299.489134075926,-263.126876686568,-391.439726844493,-151.11001146535,-383.276139807883,-465.635366130069,-676.638216578339,-191.187791831608,-718.544750150091,57.6372450657605,-404.151858248034,-686.23664575272,-840.127918961936,-113.148721624049,-1014.93892684652
-344.409699390346,-880.795641379698,-357.199918849716,-643.200607918406,-835.06020597016,-159.753714017431,-445.197065458171,-438.576153455964,-75.7731714676193,-191.934477812014,82.5616858188743,261.317756504072,202.696820888913,687.770326441049,298.825050194129,1726.29408919442,68.2235427892444,559.256050008704,1876.57919193618,236.529380089841,1219.2473537893,52.0869902530653,748.721490053231,968.739218533717,164.736441850072,462.724501515885,-50.8134764236713,247.991778425318,459.485534446498,99.9441717540101,298.432560784475,465.831685082181,723.271852851426,19.3905632800096,199.217988069467,328.235576811219,501.90363038629,684.84002994014,143.382015977435,311.694139560184,457.490126564069,586.869422355481,438.025216891656,523.661815736591,582.795980515886,527.590836488742,166.085620356629,119.605286729461,-137.813965811354,177.617435571839,-103.987887532189,-108.281719333608,-205.847367813643,-276.888592976254,-487.668600483392,-435.175531514549,-186.92008104602,-716.790282217162,119.7479502112,-239.98106903986,-660.520798981182,-547.857570362574,77.2948503687917,-703.357240474334
-156.544656461633,-752.847884931754,-146.48720084771,-362.823359853784,-502.579234575714,-49.4098560375269,-258.091445558258,-271.337643398077,-148.804651715099,-10.9038004612178,197.516640303455,81.3556929588201,202.823758924714,701.073334961937,-64.5060977346315,1287.43229910709,-173.28156389972,-2.00568711447678,1080.89705957329,79.8646106290598,887.433525894366,142.360812257037,497.641367102099,730.225012939933,266.702553393495,204.405018951574,112.657491550146,239.699253076602,353.628063787713,180.488828948164,281.17557746261,437.61032213319,688.452294671477,129.214384830286,249.431750647658,334.932198391664,504.900897464863,650.278540573324,214.409494756071,329.213363759966,475.102354055597,598.459424258169,462.156872465373,543.795645493741,633.839502263633,370.593120776697,857.883877386051,297.77201101317,423.565401591118,717.720374273331,-48.4060221566563,197.357500070036,-370.688226317527,-267.06944777206,-602.890177527942,-18.2106742592997,-290.92036261543,-661.0911221384,2.37792968842957,-135.216023031951,-576.658078239511,10.802816712992,154.819866760479,-103.373757239326
-312.788440912929,-749.892273401101,-319.644399505492,-381.632879410953,-357.547816636782,-190.039243869147,-320.333006926768,-401.150305656494,-327.538748562678,-138.232202469185,48.5408159583541,-109.4251136488,38.7260904443042,375.832493384268,-12.529451552704,464.966670655672,-84.6903717900342,-261.810514399823,259.842763334475,139.045395044719,499.891146414136,277.282093219962,324.414754520659,419.120616569811,305.252098900151,95.3091095427989,210.362118990423,219.128724747815,249.961112932971,218.607322982048,237.909043314898,315.468323223259,473.81935273593,196.413687579653,255.584783610325,274.431868499207,373.627569069362,435.074018246774,243.630882817895,288.247241379173,372.10790150136,433.933563935911,372.140210611552,409.5472577924,472.294849177365,88.5721881722724,900.418961713607,77.6077793450693,356.758263591919,766.184791826201,-253.71482203236,120.328324820377,-547.595790515564,-459.57048280634,-825.850678416713,15.3814154543075,-477.288876626017,-799.111316202582,-244.412614420985,-328.594986860493,-710.77797367741,143.770951928023,-36.2013270573278,6.28535866125029
-406.575279821128,-534.067769258027,-443.445002672364,-396.597311579292,-143.207446862039,-321.872101186345,-323.118019233943,-395.255233747349,-367.14179907887,-181.267361990287,136.633512772257,-164.663116385391,-60.1305900470228,263.400373835518,318.44081622668,-388.60767465482,225.292627498158,-67.8923687664224,-260.68061207687,280.974154912457,170.315399432168,383.588020672053,205.788917342008,82.4074007768246,294.283072934937,57.6860590980604,226.386290497841,189.979411889621,146.453885146465,205.07865676049,175.355551011856,161.254703199108,229.46286191085,196.9743421817,213.780383544361,180.982440206706,202.601649117848,197.171648512538,216.926638217415,211.791394922865,227.580528567634,229.923772692464,245.063232105821,235.93442249431,244.639628025533,-143.234302971747,654.500690791399,-163.522993341636,88.6285695546974,554.327876813427,-313.860505163081,-47.7116792405762,-400.223821204197,-362.814112845669,-642.02905885314,-85.594404330799,-367.039638798162,-665.621258516668,-271.644944887364,-320.239340682284,-610.736333524582,60.7760599815606,-100.872248254284,-36.4989118559742
-9.63606960774047,193.619415249292,-54.0381561003449,41.4688513135867,493.355557449723,-135.788335581945,58.8904390651767,157.832903263271,-156.058883089573,203.946162008488,661.509853141058,-92.6871056127485,24.7751172355089,549.135285989515,512.418061918137,-1016.02877486733,401.127421411345,316.646199895102,-540.34451646477,268.751924729558,-120.964446113364,395.806072945498,19.157098231938,-239.263632168909,278.370299362706,-46.8313340143198,250.622108545458,164.628436431557,39.918054040076,191.234681718175,115.606526018113,51.8924862954289,71.8775049014733,183.557709673714,163.939451446838,104.668349835643,89.8590204047875,60.8893514596667,165.515795002789,135.49339190578,115.953738173,104.357482440231,135.152239114229,108.56153318548,101.997361400055,-301.694436986733,611.594742880493,-163.759647316256,150.920794961294,449.776652738572,-52.1503241548899,18.3565317354778,91.5254095103811,142.642533662435,-1.23674122592967,88.5001363683038,125.801231846951,-15.0398381196089,58.8149332473672,214.454192237693,54.8473214659741,250.4259591619,239.390157340954,383.900294839531
621.693074191176,1084.85969489236,595.953470590433,744.021163801106,1273.31548002149,286.474335300514,626.741701708958,932.06371279698,202.537506710987,754.95995367377,1137.13443283181,79.2891718164768,182.769912496424,804.653331777888,508.943687609159,-1097.95572844754,365.737118850632,743.106041299605,-510.223156879338,161.762587816678,-179.058300003816,308.382871717196,-114.324988012158,-334.902886791149,253.599936400264,-109.466677631351,277.592212637438,153.798410111263,3.01036525600849,183.243540828235,81.9194100335641,4.03788330305371,-31.6541980342171,164.076142529771,122.985635178804,51.9993553674384,21.0784165178768,-10.3682719385222,105.556533998387,63.7384120164507,25.4994330444941,21.4483112939179,20.8826311682617,-5.63060676691615,12.6127774402123,-400.774504439983,556.22659716951,-83.7725167451421,324.168714906109,343.718303466518,229.900010162606,184.649401849186,570.264370297025,588.149651613538,561.951241936947,375.804319605586,619.649779071917,664.978198898716,472.337998217658,843.607226907111,847.134748621713,601.254884308692,702.598556979771,1040.47474097454
1064.89317318209,1670.96052633114,1067.26225862134,1286.23702372809,1740.9697006279,697.694176559127,1070.39576435001,1421.09932017354,584.263333550897,1108.25780052231,1191.7886586483,297.598316692299,327.215878640003,713.553543295533,378.183152481528,-652.419174934288,272.211221269642,1037.04524080483,-336.756345626033,105.03038395452,-11.9042443199882,158.672869395026,-129.85100159063,-220.582522946496,181.480858791377,-90.3208818371852,236.498198054895,113.270267232478,-6.34100061306694,129.390699884691,31.2077132671221,-69.6327199248443,-197.386534821828,102.749203523618,51.6554801178923,-31.7849087561496,-101.083167584424,-147.145957036639,21.2480401254595,-39.2631698464172,-105.969439599016,-127.69791145358,-131.600672134221,-168.722536958164,-141.116471110305,-366.185103146796,313.693545405373,48.7057651710657,387.6087176199,165.412769827208,423.015689676648,370.819789136839,831.882798746288,782.683236871618,886.328508169799,628.309759964612,845.595702197184,1076.76549197336,690.793020646822,1133.1737758389,1312.23239948476,884.294735362077,960.614371212084,1493.62870945625
1205.43790854082,1851.44320755831,1220.09462503869,1514.62030781454,1810.11283250897,938.48072383813,1271.63540912845,1521.87960951884,829.079575712677,1175.30588124665,940.532160626742,405.599910497392,405.742372430388,369.029216502648,37.9697374101642,-216.453892644421,194.40370945127,906.891273485739,-414.056054973753,82.8938186397772,45.1167387786389,10.4252357651389,-153.282102806147,-155.937156628458,80.1475059922536,-100.244574940572,152.334467943751,28.4943388724499,-79.522758732836,42.6477563349949,-56.6566495454726,-197.194208547864,-403.433955433242,25.9933984683327,-44.2346947251867,-144.074271238932,-271.67572932871,-347.091822635295,-66.8181223581798,-153.883627667044,-254.515817406737,-322.038468904638,-278.45365496371,-338.023285884732,-338.331411418038,-177.650157712539,145.138705824228,318.620022980668,496.457174596004,114.049215034494,651.567653156711,695.024737070221,949.818300921263,892.936253390527,1221.39726639982,1004.3276968116,840.191566701217,1439.29999105739,682.809304499697,1110.43704991948,1498.69736077998,1167.23282972159,989.131354672773,1724.43613903828
1079.42941558895,1745.65538025448,1080.7586574575,1463.82920352247,1654.36219210376,947.144762985849,1194.52605967555,1397.33584536331,787.429675701956,1001.89255512384,586.761470374574,288.6122799377,293.42909990762,-64.9330636829083,-576.181673482094,-388.083847595901,42.1741572214573,236.035341799642,-936.725172918449,-20.0944345258906,-234.926318035143,-102.858349495061,-282.349335872557,-269.738273928178,-7.28722559994369,-173.227275847885,90.4839958353863,-60.2364409516966,-189.734362769908,-17.0294137533314,-138.185403066097,-303.270063491609,-538.748863920267,-14.5218228980717,-112.458499661225,-226.519945993709,-399.680509942761,-499.90013548727,-120.721037990888,-225.553981959095,-346.277390775349,-453.430966264281,-364.271675293157,-438.505665086142,-473.064360855898,-19.2709360980388,123.734496734347,508.718206652165,627.635106337655,199.265490711287,791.093748271131,1045.2648992423,955.492736961061,890.895043616615,1541.53261183137,1432.81700928263,649.886008283584,1804.27563675919,491.969853488734,897.768277016678,1542.18678789147,1428.08847643283,815.093648879921,1768.22307999048
768.687070011414,1464.7467387578,753.636547782985,1208.4543843001,1405.04897703074,773.071009941054,906.905115569135,1181.01310044407,533.234734352677,701.973690221201,221.454679721645,21.935472204939,-20.0693455721364,-489.26885336889,-1362.18612323596,-1235.02143708408,-281.544713725727,-838.93463436804,-1796.03632995896,-276.748249929124,-809.847748031254,-234.334532627547,-520.366498498303,-517.183168932572,-119.457648193592,-284.718789779671,18.5045870719952,-165.70514480585,-296.717109929716,-74.3665931443721,-216.948083521403,-376.680648419881,-616.553157414778,-49.0536691963945,-170.286329699139,-294.294968281377,-485.018076965955,-596.076849629834,-167.078156832514,-277.027698184036,-402.847966974448,-524.057902185275,-421.448740884893,-495.452397094351,-548.388975810848,-73.4500974224548,-11.2089660893587,355.386850649261,526.672310051858,215.827893442459,628.420530561167,1151.27168546211,792.272929211207,671.188227872758,1595.85274247727,1607.15681523464,324.876552739304,1943.12604822719,159.461324645306,553.803665624112,1428.98086248089,1458.78025543704,415.800490034351,1520.49426162364
422.598912559076,1080.95500825729,412.550478455054,852.551146366157,1063.94132459965,538.339372653809,584.623789208038,901.51025142193,279.544383291452,425.83384834303,-93.4563296335726,-259.199810617248,-345.103022528366,-812.918302524803,-2146.89898308542,-2202.97284262195,-717.368422932347,-2155.58881814302,-2622.49251404923,-640.071087461415,-1557.2856176157,-438.153604398573,-835.987920984264,-837.867936401048,-311.723416907471,-444.470986988931,-116.444180575789,-329.048171756229,-425.389703677065,-186.293481739001,-332.576172953032,-471.971879099606,-703.190937728291,-127.837495759481,-265.734762983282,-391.691794848431,-578.534997095058,-685.213503514974,-242.706220791308,-357.104291336215,-482.909286518648,-600.194061168401,-492.89078862185,-562.516917660987,-621.544747327166,-272.010705218097,-325.020750936307,-8.44604704948723,199.630230990727,128.536364024208,281.044485193719,990.551189447481,507.952235281814,379.103395326606,1373.40905507327,1470.70687959831,43.1209845918381,1819.8392308393,-191.588639549136,205.27468214994,1176.42188775728,1246.42946065499,-127.128195217303,1029.01144120109
98.8938382884767,605.593870388253,119.774212496995,438.97118304569,537.380864676243,285.605118243369,279.179682473436,498.232791121288,73.0122845071158,162.610832587094,-407.184529425133,-525.212413157727,-570.832929075098,-1080.75507234903,-2753.92093681921,-2729.00697283779,-1091.87117289389,-3550.26371614597,-3005.12267696488,-998.874629053349,-2380.85499633843,-672.764752324003,-1163.9174823942,-1171.26035761076,-566.443678444418,-622.369176085716,-286.306969311538,-517.533329801934,-562.693655460036,-324.056555466719,-457.30412375511,-568.485788020621,-759.931064530283,-224.960098225242,-370.074472371716,-479.885585870374,-645.466950204176,-728.421481201579,-313.073809280892,-433.772995154791,-551.395763240528,-654.759285589808,-539.732010115826,-607.964353482792,-662.279622230205,-434.924253551041,-634.764779081831,-280.29894569171,-130.515566691018,0.815109090430251,5.65957009878822,685.868708929446,207.174123531763,159.513272837477,1015.1150068667,1131.00382937755,-101.085504540327,1542.02690004631,-459.903507090549,-81.2242409570266,816.995991686397,948.183491920975,-678.392842659283,466.207569466646
-272.734740982029,14.2782397176852,-184.86518513043,-60.6264891741228,-254.032243637879,-1.74162663525669,-86.0077256153942,-80.7658083974848,-154.526935845023,-214.484877422964,-878.97712250274,-758.548381682825,-739.314236060977,-1443.28707855292,-2989.47779913246,-2762.80903383445,-1302.28513702579,-4630.93667842421,-2860.67160589679,-1289.23494863609,-3068.33572492398,-868.326741134752,-1402.5848615842,-1429.73184646749,-858.062938131636,-734.050961621465,-453.837033879691,-668.375019854871,-657.712674002363,-434.277391764511,-536.889958939959,-608.805586879264,-734.368410243833,-295.117089888547,-429.422047820867,-507.442588071432,-631.802691800529,-679.951700802255,-335.448094079953,-447.684132922212,-543.830973801578,-630.201178488972,-510.347537871823,-574.161836090984,-619.596614896187,-510.208829162932,-849.032610937446,-363.30688138583,-364.002367584282,-243.539764178473,-138.446336095771,240.315318839295,-81.7351341881105,-37.9818774840161,539.08986142674,543.592144124976,-211.434868996999,1072.02894873067,-678.667589648689,-380.791888488755,332.146446151623,559.749714533105,-1159.37063811743,-137.580584569718
-642.78251657902,-592.272749366335,-447.306856236714,-552.403936839208,-1177.93414292254,-220.081880979854,-423.2762197616,-702.573374190461,-303.106324210739,-616.27027126457,-1458.45743846656,-833.105898186456,-781.78278435753,-1806.12126652786,-2702.91899371815,-2514.1238070553,-1367.88553329739,-4832.76242929132,-2346.22006557831,-1482.1508577851,-3174.85960204352,-998.132130100748,-1462.68799434841,-1496.53443459388,-1139.51749301438,-742.797958765999,-602.943536749945,-758.813091449834,-716.702589157225,-512.437172241203,-572.164084968375,-611.082390365083,-663.191497771748,-337.290996518018,-446.280345563299,-496.975922107583,-563.190965876355,-584.556864396141,-324.66688645303,-406.128616248431,-475.762098856115,-550.59640160258,-419.298122813528,-471.501759811381,-522.441111769365,-530.546215441747,-949.302296322058,-293.951236619712,-468.617326368321,-619.244498731153,-192.610063509352,-298.602257361372,-343.775982651444,-221.468337823716,-25.285877610055,-257.772196804003,-337.575427525027,406.883808389112,-872.203666986175,-683.745811532638,-208.541568515147,4.98623084340403,-1492.19857805448,-788.64200446575
-810.715794219946,-1004.84761986341,-512.75946459282,-829.201086253902,-1912.69905683714,-231.948726135324,-527.925373963238,-1123.18869757341,-220.684649308365,-803.402227295671,-1837.67957515002,-668.311478430166,-584.510953181335,-1872.03249083529,-1908.4341579235,-2100.55406393794,-1302.22119003607,-3871.53146443959,-1568.09154216173,-1519.42324717124,-2441.73792156312,-1008.36579992822,-1371.33215796292,-1307.78025646747,-1240.51486787228,-723.295118776642,-667.961603296761,-787.762556778849,-789.143388482644,-551.663220389733,-595.709842761044,-632.888768688804,-602.329903989407,-357.337526166596,-448.747288559064,-492.935262100839,-495.829429482681,-500.985416924418,-310.126724631914,-363.958389966962,-413.877770135673,-474.969133719346,-326.059761885334,-365.274426819937,-432.328687113717,-447.484661159795,-839.45720868569,-99.5362469557418,-375.866813353368,-859.927815534515,-150.575986017846,-671.698274246649,-538.927216958763,-283.841866098353,-469.733627559509,-890.224731972217,-369.105496206544,-226.536254117958,-962.754484813506,-831.673231855049,-637.930857595639,-587.27988437167,-1588.0333037408,-1322.7915986542
-752.428716380599,-1205.6010333065,-416.43823294086,-902.595478741909,-2305.39805824489,-146.722332375703,-465.615408784,-1355.96336954744,-61.0185161461454,-851.934398599296,-1979.7342101814,-415.995249001184,-353.710548755484,-1714.96953801902,-783.036413148332,-1555.25467627284,-1062.62467324898,-1981.78900686108,-663.981150897456,-1336.46542063949,-1257.53542003498,-820.100512927506,-1248.55073636893,-979.575689818219,-1012.82650440975,-785.945002137013,-582.749582236246,-753.886538046069,-861.041598200731,-522.2873441651,-610.372176303443,-667.245465252402,-563.678242578725,-339.607656745733,-435.565720577022,-490.532427775186,-441.163353129345,-435.461151996496,-288.12395969699,-341.610478102043,-382.473196932955,-418.30469721813,-267.029079645463,-295.382318003506,-359.552098838352,-145.162517892738,-470.693281501035,162.349249426323,-134.03693425937,-713.899678512527,-42.7021372062408,-734.171031688085,-648.547835878994,-237.461284538977,-667.103338011629,-1062.01420970889,-260.901207884674,-697.609347178417,-907.30946760054,-779.941087975484,-930.263770496419,-1089.80407996849,-1447.19985331274,-1628.60709458226
-681.079823251804,-1411.61017212676,-361.978045847931,-1032.39093810503,-2524.42669949969,-197.422203222349,-517.905754386071,-1695.65682458014,-108.026844483683,-1082.37586801697,-2274.37430922456,-268.153059285087,-410.953914806447,-1750.33941924652,503.773270757377,-748.464662584909,-632.976441776371,362.341337074429,227.176883469467,-901.440465944644,-144.470643334259,-484.083494703018,-1059.86737972343,-630.821498598467,-561.283227572063,-853.280093877991,-385.568786132639,-631.200700560648,-802.900744783816,-407.60879052108,-550.723761292543,-613.338478699519,-500.363730108692,-264.235256700678,-361.160098029806,-420.886451633453,-342.492265212318,-340.494654383815,-222.331597219391,-280.886331962129,-313.403496414536,-329.010701469974,-194.765009386915,-208.184904630799,-246.599145567138,324.945403698569,-20.4111975403083,341.567356313146,11.9509268661469,-371.969385174673,-19.4662779372758,-792.347701612722,-672.15332812457,-318.481682337672,-887.253603685541,-1135.51607908497,-181.894558305984,-1290.49983801726,-765.079918320203,-734.089806729218,-1294.39685452095,-1704.0288519591,-1177.90774877134,-1889.48925615981
-653.399726330627,-1667.59406814824,-342.41184052604,-1263.41281016956,-2673.16564315399,-308.63991758758,-675.221395491394,-2194.23592592708,-234.660535704611,-1447.31372512262,-2780.82640187029,-122.258005292071,-575.781126887924,-1934.32195356543,1817.82139415974,510.906276672646,-56.8546122557188,2645.16384256808,1160.93184885802,-238.471585475899,875.751970723848,-146.705553160872,-599.813648698937,-170.646541706033,-119.584860239505,-669.154477393159,-155.081438905365,-377.584389689648,-522.460260911141,-208.676027972136,-343.386288058674,-390.066118910572,-325.80606033952,-122.011123548009,-180.160080537848,-220.829077099427,-136.12515245824,-150.418423049088,-79.1981676137671,-113.881328299472,-126.015050043476,-143.517641722452,-31.0010239480849,-22.7944726251315,-44.3463494880727,654.1241296254,226.27373940546,261.262746877042,-125.213034251041,-262.668135052196,-211.467729149314,-1189.92252801273,-660.491343705116,-677.872524100971,-1421.09539997643,-1642.27763423612,-312.754560393152,-2240.17314925629,-588.855530127624,-871.279582901973,-1831.54887901004,-2539.14801287489,-865.663074721788,-2226.50971513005
-472.951539510067,-1704.93452185727,-165.664555128292,-1306.2963089371,-2518.17899712148,-221.201932088222,-643.162056479169,-2461.04577537502,-62.6780631984069,-1530.49854962384,-2869.82970058626,256.184619809114,-344.308197729713,-1700.55937663139,2912.57482917352,1942.41247303113,571.715677512624,4239.41318536447,2104.65907461568,517.910501369168,1827.6751877102,154.447460984531,130.412520841934,389.703255978501,207.133362673314,-221.753869400793,81.7641008931967,-42.8859422775097,-159.536627973641,35.6507315235338,-46.2060227562255,-74.3188627778504,-23.6638311051664,60.0437301731427,63.3440256568515,54.6217827661442,136.402654298028,122.97399725145,110.792171682888,117.499740125139,134.890393159856,113.485777503441,197.740897487551,224.427831293285,201.548598588513,633.434490745232,208.67642818498,-39.4006974091555,-358.935287350099,-442.768955493438,-486.55025825352,-1692.31617948819,-678.024182170192,-1023.52266180685,-1958.80564284875,-2341.08175550056,-559.523560166718,-3087.56317052807,-368.783395501494,-1042.0638242178,-2203.86645880794,-3058.96165045304,-493.115378143315,-2322.85479749305
-102.708122887585,-1362.79087795497,87.0103749656845,-1012.15095399195,-1855.17761763545,-43.0456894869318,-397.909653466796,-2149.35610342189,342.426082049721,-1182.57749267976,-2062.09598301654,802.799259032864,296.780200737495,-839.796586761873,3586.71571041163,2942.94254008141,1134.24031887294,4799.84134473959,2748.1282141013,1178.97279581954,2415.10780942858,460.863292682328,845.037583154017,780.763739242316,434.527809658669,188.4122125532,299.900286002143,235.964078552915,85.9936825241764,243.053196099176,193.600898046656,189.594509432019,304.212886565692,214.111556109434,255.293942906609,276.390143878271,362.214793504972,377.595269561748,260.439007444128,293.65497282559,341.648529587491,345.272086241061,377.316420723198,413.92207481744,399.047941709317,428.510868982586,118.957535059259,-275.181458298401,-360.515980742333,-603.565339286769,-568.404173178737,-1788.290132098,-653.903083535342,-960.322256760869,-1955.38528003584,-2490.14771974227,-670.133344094854,-3108.76006323303,-95.1847134130888,-989.15178145096,-1983.98230321623,-2673.61702923471,-57.6998266104629,-1849.62653565015
232.696012753152,-780.818998850669,117.292301844658,-523.339878670452,-813.484126255385,-134.785736247385,-209.369324375629,-1270.39820326499,536.299336102767,-620.820593312739,-626.573699724863,1205.95507594848,866.649672051154,258.708713085555,3914.56372512147,3446.49727880367,1564.87697340917,4700.2977925676,2938.08529305182,1651.52240999222,2542.61950103775,727.962887458652,1347.68636102135,911.95844522741,581.624806205897,443.702725336032,442.445506112802,414.795065367757,261.821195701723,362.545770904943,341.957353137078,382.182424160422,556.917286742291,292.196933487917,349.638856069588,404.071720658675,502.949860162242,545.555561403986,322.171306246142,370.413559999346,448.551869733305,497.304023530767,455.8693838168,502.632864619553,516.208334479789,310.538972969768,114.286423631121,-246.176387476608,-136.986149562141,-562.212864975627,-401.441067972053,-1348.76704805155,-460.558878132591,-578.477362684665,-1402.53403420626,-1849.56185615932,-558.956132216437,-2237.71155786519,217.747522108052,-707.102475398483,-1221.37999952303,-1604.31443034359,358.771504614648,-979.866365273111
426.432667890572,-99.5275269848527,-56.5711196796241,47.5776431752156,375.487699259122,-488.33350974968,-141.688837962801,-54.3151956814014,367.592018596304,-16.8911903029285,926.348947183197,1249.8688698697,1106.06062485381,1260.01506370384,3944.38518974553,3763.17805759563,1837.22515875413,4396.94409364716,2818.62311277919,1886.74742774895,2396.50865828275,853.463565855077,1646.21077807676,917.399492499489,650.250825760219,705.099839136976,483.609024813115,571.637637323162,535.531058002424,425.790975210182,491.099172593895,587.767670855553,753.395930400134,317.807195757606,410.912805769284,511.317078893899,623.79448701448,679.085112692701,339.629010138814,417.319737907583,525.601632850553,612.92900295891,492.382375539054,558.965194314183,609.285075067324,347.376916878695,231.821047294487,-7.98167458413538,103.904037934494,-349.450503650654,-137.791767361869,-616.165223946537,-134.083039948486,-213.7940228405,-668.569903424941,-814.596130969328,-291.460088798039,-1047.83718246365,568.950503392414,-310.791020863254,-316.146440760667,-495.560498888451,725.773088827453,-86.792981843959
596.187255301453,597.761408752085,-83.7379520921925,621.05371641886,1485.97446725692,-714.498925740098,-29.5022749186282,1102.78631764358,62.102261900296,540.155489698781,2275.33445989956,943.190141676791,1129.15652515262,2130.12362840621,3498.88680675552,3784.16786255563,1895.34529224082,3767.20536954932,2501.50132955077,1799.3668905446,2018.41704789444,819.702530146705,1749.18369388871,830.577755866803,654.550399060286,1032.84945053642,453.157115777317,752.910571911243,887.913599226949,488.730684045483,686.01950830261,835.069216671178,962.149378142347,344.850172832892,503.51730565608,659.049235167363,781.323779504119,851.800407629198,379.788160664193,502.972011756659,641.824591404244,761.627737341496,558.166659179553,651.91077876991,745.054375318859,414.138424110922,408.291454327986,216.274910987694,273.700519328476,-71.155903649796,48.2699084617847,68.7392471179739,127.404214418389,40.5654713193735,-32.073511788483,83.3291061217207,36.6066167927003,-101.833967543601,917.041650502796,167.328998086464,425.935486227585,330.188919914657,1090.74677272265,657.306265330677
789.78171307943,1110.18404628916,169.986866630808,993.264571300029,2187.80205114998,-628.750993095716,157.104054049512,1778.60539783266,-182.129104241595,930.202725064381,3102.93184243553,506.264314096805,1069.28871657494,2762.86632470399,2600.72324939763,3306.24432737836,1721.85999549707,2681.35523852776,2045.97075564028,1449.36956476314,1470.20188513076,740.696342157096,1627.03266836513,746.003382248229,659.343291446954,1303.24997128753,403.919538283676,907.486260555609,1144.9812120753,546.765793877914,848.319970084569,1022.51851769859,1104.62266750016,374.879657098624,590.264937230443,788.475380120721,900.292918993385,971.816652626776,427.903820504342,585.612607745191,740.95933070824,882.598899878258,617.621384283495,727.673782815174,855.160753108932,358.862523480288,438.41147128787,217.297130479385,315.769840830388,97.5779944104292,18.6899028169923,420.120604888932,153.247871583912,195.492266078426,322.277886060291,517.824344036611,253.393841030181,388.464064516401,1117.5460399217,616.52645352304,865.525391077791,795.522386022949,1400.98117310589,1139.6166980991
883.457620880651,1310.20869429354,409.964432808044,1060.54641623207,2306.65925519338,-473.984288310996,291.999435155211,1911.25215791764,-323.956959959543,1131.75990476253,3190.70397815494,214.176197947098,952.505754574351,2919.87151917231,1614.53313737358,2567.37862379042,1413.56986373349,1509.26467948707,1515.27988562367,1107.25950736792,985.01936897037,770.99498191,1325.30526828394,836.236641255206,766.46628792656,1385.52957725614,401.559680693907,958.39692142128,1186.41169970399,558.135339892909,873.919918126356,1015.67844077086,1004.97637774972,368.447785061879,588.343481487216,781.266625827044,837.983787058394,860.132510039913,414.193371037458,566.758637243239,696.884683318969,815.669870356264,567.587375770066,661.995836927923,777.181453700555,200.861087434497,214.221285691658,68.7908504880371,216.810961282818,82.9316042689733,-120.913746702586,442.538594130551,17.0436146733347,237.112058120831,396.641097536057,567.534051372311,268.182948970884,575.59989789211,1082.15063176227,863.152365398717,1011.1280413428,916.749928598913,1515.11721014631,1283.08475871722
817.229474253164,1333.90916854356,395.244052977172,980.783723467996,2086.83160108362,-457.733783613065,335.269505953237,1790.38875624916,-362.901889688197,1208.05245818083,2804.25919912324,120.479940993864,779.425221102176,2606.01652361892,809.400120484116,1842.38859892884,1091.84979899443,639.946991378366,891.554189234444,939.456428892143,634.849842431532,934.876080227443,974.609042678975,962.636024802211,970.832204979717,1238.05746942736,473.583596450394,879.646139344552,1020.62343493877,518.280727119981,750.123394000216,811.579845441472,672.38560520448,322.424705387461,490.160260187525,618.830766233408,590.070741309901,529.940194993482,331.932967447869,434.879071773333,496.372649842206,541.262531178961,394.582315302876,441.947662510154,494.606213453616,97.0535700973542,-51.8269483469388,27.9540544789218,134.650568725242,56.2445571159637,-59.3634862631187,426.811939093129,9.4005255287036,287.184079954857,460.418863875729,597.774963378671,274.764742454002,752.041202742984,946.777712232216,970.546076022821,1061.74431561431,935.99768258279,1444.02001187853,1270.14610539705
700.163688309118,1330.3930488651,294.089012285328,925.686582435009,1870.79430375639,-411.33960473465,363.133829708468,1634.20648314037,-301.186196045522,1174.47977285395,2423.99292465856,61.0492323897761,603.3691044972,2133.10983365489,183.970607376325,1169.05952157455,779.961705791856,103.294406992326,299.807463729781,801.010022352561,384.603227402045,1051.91683965045,672.677665225068,917.189682049657,1066.49285165878,951.793917678713,533.296591445286,698.344438902351,749.44392795361,435.092933917503,543.063542149072,534.992202593547,302.383066667923,258.151226402288,346.214441125301,389.844343315941,287.35286331282,157.988513271487,224.121335885222,257.306691444991,239.775112437177,203.67019782694,175.681221050054,167.572435662077,151.194647453255,85.0189033668627,-154.316322023614,91.8157277900549,164.803985605205,149.033019312012,212.900789922985,530.049588112389,245.694545388234,447.01632660284,654.071687335348,779.075279181371,466.174356957503,989.617124053494,886.759195668679,1129.52117762345,1184.52396332128,1077.04958854277,1339.30085309706,1341.46853787018
600.299184318506,1270.84572379058,293.651216856769,873.019579105019,1706.1279515771,-171.368529892932,380.927979630703,1407.5565994802,-190.278610391064,1010.21726082174,2108.68663704535,-52.6904283217426,473.055580852229,1701.23367495892,-298.394890469072,591.190017075093,447.508466602173,-202.822775590522,29.4626272805753,539.543938024306,309.404702700865,927.157982705351,474.837846210091,842.350157329673,847.466172849107,709.78716321826,457.576044404341,467.182221454891,506.897154111903,294.028472357133,322.19128175175,302.198100403814,35.4942417301492,169.48559508654,184.082923136483,174.404668547242,28.4563934368176,-140.273610127848,103.820654313886,79.2425449121815,6.34206717039266,-78.7875323853178,-32.3089418389686,-80.4713814898015,-139.238059429095,91.2875082104685,-212.376374525192,61.9534206210136,154.275093735221,217.289192887107,384.070935536672,588.32029716609,502.275402094524,588.944768243625,786.411791309296,910.714760051225,704.146564966129,1117.03315422678,858.943139174673,1275.86166610086,1288.00942560802,1226.13906378701,1222.90081874788,1429.90929465395
445.029157718013,1102.89139650692,276.630293480873,715.643793453906,1469.11571778018,84.5792878608517,305.635169198158,1029.72266117012,-106.688036454912,715.393623330972,1628.44599769501,-128.817868489984,327.164609250141,1236.39000686699,-596.54590619848,169.362019773795,147.260767747758,-320.592088328745,23.2732668623472,305.03923930483,378.287371402165,604.400271596167,473.721814696755,888.554254236846,389.959510000194,632.715917225679,247.289714583038,255.620588707927,378.010876841077,113.234778877095,142.926506108179,157.753767161036,-111.37280455412,51.2394889949202,22.9845192952037,10.8610197220949,-149.225342161824,-325.51248073932,-23.1813022533745,-73.9678442474644,-165.581129920272,-262.563007940773,-196.71792993426,-257.941158840778,-332.882285292133,126.764213328742,-362.692384449948,-30.5229075138929,1.26117448660656,127.326480270774,362.35965523006,471.753710369664,577.510822744879,595.601711058196,721.314024132462,809.01008268751,763.216877742595,1042.2743280806,718.483130705742,1203.79111091863,1210.11787641909,1177.71825919093,981.388263657876,1328.24528494546
223.692705934102,885.533201096598,151.747373758398,459.721102974228,1179.62490881596,176.049106956771,160.632305156433,610.432648874729,-67.7548964661238,379.9027691772,1030.22832604712,-116.320026431262,108.973475492636,711.535313193537,-752.165417348516,-185.486555257125,-41.5547322010211,-364.286794724695,-150.636515835263,246.430334558707,364.520973852043,304.82630548898,592.47695236154,890.967623779118,12.7894229498999,614.238764210433,40.3133089826661,108.886020708966,319.756975646767,-37.490257057851,29.2583982055584,74.8132654812395,-182.625060412544,-60.1690082782863,-100.745691942134,-93.0059722081696,-241.329856092332,-393.701716354647,-127.014873395728,-178.094865214116,-261.897501160426,-344.1807432531,-293.968245195854,-345.394841775636,-421.711758649196,224.636802414901,-408.449309283853,9.65400176102179,-89.2185125228746,57.770685729203,338.555998193057,356.567636296051,524.22442949853,560.441134839674,604.688689053324,628.767586925601,662.470351486463,894.40750634996,467.30465302352,941.652186406745,997.044907063593,1000.07551699674,610.539637077589,1075.99559146323
74.7508153896419,731.325161786862,60.1495955054785,249.208824868817,990.068482885493,187.004950593959,71.337828401091,355.224438413679,-64.5879246480329,142.527736026439,528.613506744442,-144.485083225493,-129.120735277597,227.248600567022,-970.335411493488,-638.345527698321,-173.824793855573,-572.073089361285,-704.844908754161,180.919803885249,94.7036493825821,142.573091992964,476.276374602927,648.425409907763,-70.9986759925328,372.930471018252,-35.3491942049596,-2.07066416517885,199.710655185198,-108.454000479248,-58.7143736677291,-13.0254179469763,-237.007358185912,-112.84010233914,-170.548548365297,-163.915224803261,-289.856884279511,-404.823621263993,-183.163175871594,-240.618901519547,-313.361886909118,-370.646813674728,-342.217329513588,-379.924483156803,-451.44065759326,313.329783442572,-104.246898960681,211.359808196916,122.146120516213,259.230431165253,420.425803426773,471.945800161319,474.76067381338,604.304433509472,613.863627459903,654.990490841989,555.387571520608,854.411502899073,228.836911489828,704.11445747889,849.171032316435,933.996850675371,248.848393689417,928.052628039739
66.2736105317883,689.775533981802,78.339360446027,207.456696461929,949.461539352966,206.964575138128,59.4705911654186,300.726458213133,-120.70141156485,4.83969110874877,146.012782209213,-319.680855735938,-345.946526768201,-205.228879927153,-1376.24987366238,-1215.38586051915,-366.599038910379,-1040.85673680542,-1407.15910101466,-92.6494394611827,-399.091966147614,33.7701304943985,-21.3981799597523,189.607800640248,3.97162726020828,-156.930195867659,-10.469854272847,-137.659056107323,-38.5286187544095,-133.855087611408,-180.878514677145,-148.344570643099,-320.562220455954,-113.359390279891,-220.486346190293,-245.055646593142,-357.406691552349,-445.696476766828,-211.921073841544,-303.338397455458,-376.608083403614,-418.33349618951,-398.549261297603,-435.112819242595,-501.357648104292,289.696284636364,357.242170068095,420.139816152001,509.093896294589,623.854871355905,538.946166218918,746.685647753203,473.592027999671,712.213082210826,741.172756953828,890.462154451402,514.038015459159,952.3674893269,79.3062487874623,591.735290339258,857.644197759106,1035.34378102259,-6.80380327464029,987.220540546524
83.0417900927233,704.320165725786,88.0425048048494,294.749860123652,947.965527336211,184.546495828935,44.101063617963,322.918018836193,-209.468176889744,-155.623041205118,-100.979047927292,-536.616510417457,-541.485587969843,-567.383250038466,-1809.04852986994,-1758.03590543184,-618.512339317317,-1562.32749726423,-1880.94327139139,-465.076326956206,-927.063103953594,-128.828080794966,-578.022632747844,-315.782412171141,-37.7041961504158,-647.365125524667,-33.7999920916605,-303.62167666865,-321.058945302623,-197.499751351851,-342.983540596458,-333.637340527129,-462.963552849191,-143.978814016807,-306.976813406956,-368.466182417796,-480.846170803529,-557.636546224584,-274.026281701082,-405.992709041573,-490.897410300055,-534.777574275844,-510.87276834998,-557.485845210205,-619.733423608772,137.438290949813,507.005507679766,483.350138480314,685.255121455185,773.311185174396,574.286229169656,895.249408854667,499.40097374539,810.630407622751,869.010271706804,1025.51010632835,535.983399489324,1058.88778506235,24.5243297952105,543.270330093148,907.108636284153,1082.79336459152,-163.057637377789,1037.74788015123
28.4589327581879,687.322103898346,25.7465170801741,359.139654773845,860.439143631085,119.918869236049,10.1093937208112,335.383105842225,-239.877415148545,-342.607338140904,-91.8709298902736,-632.163367780896,-675.523001462041,-692.780709379242,-2026.51810588167,-2076.50984675181,-816.018993565329,-1840.34794564555,-1941.65658364486,-716.897032969377,-1286.84051355995,-323.275162434922,-872.081683078282,-735.200703808206,-231.778127084478,-817.314192469864,-159.148487510677,-444.234052698422,-566.951328280889,-312.374197363523,-490.701407924826,-534.496224309611,-626.46127090316,-239.651712361215,-427.457156886959,-510.445702739488,-623.179399726352,-685.906804163788,-378.374636850723,-523.452339020878,-625.417089692382,-673.30964829333,-642.712430734426,-699.333960237659,-755.189356544024,-24.3807963808858,228.811923603824,393.947537796235,498.334736019895,557.348330155965,472.147871193058,777.225763025405,552.451595640101,875.350576778691,917.866418825503,831.537828635315,615.688310564575,1066.9990053413,68.3119442473036,505.321036893514,867.825621072561,877.3138753511,-235.663155391219,832.194744532017
-55.2534941051473,586.942738105124,-30.6490667151367,308.382434508939,629.435068320099,91.6341767339137,-5.00649026092483,323.341435547152,-215.070767658773,-418.827470522559,46.3129477533253,-611.246602059072,-752.436816139683,-567.758451436929,-2031.86199533215,-2122.02220637308,-893.512672476555,-1818.43635427997,-1793.11863791081,-800.079983019062,-1419.00093080287,-460.766892473485,-918.739940946926,-1034.91282580775,-390.556396943515,-773.694595959922,-281.640331286958,-506.644670910728,-751.815730428272,-392.822377076707,-564.180713948061,-672.297516426928,-694.329655134191,-319.026121195404,-500.809605888768,-587.995447562528,-681.608826787223,-709.972203987475,-442.643971908945,-568.65494598776,-679.526068245769,-710.734634142415,-684.905694327897,-738.802235211598,-777.575399020681,-77.9745469600817,-174.986880879248,261.455001238136,153.606077355671,174.400977733378,313.238339439481,486.266613316789,628.966347788417,893.325913500667,861.954278221378,417.205357015276,697.755103642858,986.679924373408,155.286610261823,475.345484297158,748.448715007862,489.227369400933,-249.083821726079,410.691477616966
-134.593663308498,367.803296139349,-51.6341245633556,170.207466398922,269.405980106955,97.2707984365855,-25.7267611819405,256.054959586757,-234.809769205749,-356.078282930511,-35.6370334276775,-586.061508099311,-853.002657949644,-491.941379624309,-1997.13100086672,-2008.26537118802,-909.226263934808,-1725.52607761017,-1821.83028062933,-792.090863972265,-1394.48381225787,-510.48690292146,-832.509665544727,-1179.46227038151,-403.505022546847,-693.459929481872,-305.476998333621,-469.142974662694,-811.032099014605,-369.140364732443,-528.201949465003,-658.126972711426,-597.761136097594,-305.023083050778,-457.854109575923,-536.022369298152,-589.664192230028,-571.478210811797,-402.347350397231,-492.418163818088,-585.86704880559,-582.301066745445,-584.034681742374,-614.040362731257,-619.978281612426,-148.556215205992,-515.213326894871,147.115564593068,-147.984580021389,-141.463274259074,212.794710793094,188.600996534837,610.468237749382,797.509175799607,710.439648504364,79.6831805828043,647.619822796491,860.014637326688,129.394083662088,408.591671414969,598.732155553494,149.622213576426,-298.034199022642,11.1343755655668
-280.421911028305,-0.648581656559303,-121.123645511298,-16.3188814583256,-151.627160263196,83.018174084606,-93.4287760591517,78.33479800109,-281.117023431173,-290.481595079963,-417.125040312355,-559.088748060063,-919.692268028783,-660.379077222544,-1915.8004538747,-1808.43008603771,-924.609558668321,-1750.42847596082,-1957.60181178623,-719.604003904213,-1253.39721047342,-502.956495141815,-607.252170495472,-1040.91891159834,-335.191980068936,-511.920507973885,-257.486678152644,-330.513877044379,-629.288700492599,-260.886909750993,-369.770968599119,-457.657419937681,-376.828523506567,-216.401997931844,-310.778008215502,-358.035919619085,-371.125646680559,-320.070054280412,-281.297147663416,-324.347262776384,-374.961266647738,-341.97163678669,-386.241038090136,-381.253386166941,-350.065868239821,-445.349303083356,-796.313769233752,46.9995154850906,-360.809875026429,-266.497690955778,140.778392003513,40.5609943109156,337.782946320905,544.546121335647,524.82904685789,22.4018191761377,383.794238698184,702.515548684769,-97.986444978768,223.571122456297,397.192791420403,14.3511127896062,-467.173253363584,-237.437382462953
-554.0182933458,-502.804429260875,-307.974235450463,-276.174295343066,-586.330802747551,47.1576610098829,-192.49851141991,-230.472427857299,-221.635127883098,-316.257806599247,-847.438791500496,-428.448341565632,-763.040670373733,-896.938096485368,-1614.11716226709,-1426.57021721624,-906.561691336935,-1803.7721794769,-1648.81574300578,-577.064093041839,-1003.07744071818,-487.784881094501,-267.934899083436,-603.276755166489,-307.340326761644,-176.065081636215,-234.151378853641,-149.025632611553,-252.755983107132,-151.6508784347,-145.196899592512,-156.9671435311,-117.161424723472,-126.269711318434,-143.398429298139,-130.646105198863,-113.042119154517,-49.5915927623129,-148.560840773994,-136.657426657812,-136.230107338044,-91.3036074853205,-168.761491842024,-140.382181497183,-89.7941200257084,-816.780357300264,-807.846828067093,-0.861638393278412,-404.216521927849,-134.330591475951,-20.6911685332627,110.840003678792,-171.118020770249,200.781545424291,351.412131366005,186.036675297712,-15.734159015114,509.120715408939,-432.820615752379,-92.4465710549887,95.3465585191368,38.1128415524217,-717.92922904483,-425.090673115032
-871.396843145141,-1014.21322561556,-566.206985251176,-599.854013187963,-1009.69744241913,-14.0932624054836,-304.033879398312,-604.62437345039,-87.8729423138208,-406.469309685245,-1129.88305346596,-226.556639951705,-416.975656103498,-987.944387399131,-1103.64453197601,-889.930071099153,-813.092993915881,-1742.75095232318,-809.407281316042,-439.349712468222,-755.573282985799,-488.287842813573,-15.5763515808669,-147.041799826935,-345.567389864589,111.720417750303,-277.97045577514,-37.4221706280758,61.6481948733262,-108.735140566921,18.250745803053,71.7933487708678,88.0110351875816,-89.1286090251753,-44.5335089117452,33.7202769008337,78.2286775528322,145.897047623126,-60.6811849921943,-3.33359694054735,45.3214494460813,90.4929699865259,8.48258833996436,42.1597565522458,87.6302185962626,-892.324893540869,-322.073137307919,9.91549058942193,-209.97754516589,204.958408382309,-258.910708006857,264.087826126119,-691.261807321392,-133.838493672714,176.684080431037,332.1285911799,-396.251529588504,280.550537460857,-709.076077430509,-426.137283186276,-270.249129857713,54.9838626507912,-910.943269806584,-658.895535318697
-1082.66676850231,-1364.161946903,-783.218766558874,-894.882342601057,-1357.87214916453,-156.222137468009,-453.229659540558,-922.89738799969,-110.866988041808,-526.231785416514,-1273.72652683616,-185.850727823852,-193.226288324902,-981.835357800369,-636.020650795425,-559.247665689057,-659.239669709319,-1620.86574373345,-96.2304306384235,-400.048111016619,-638.623886270253,-452.032075944075,-28.1167221652894,41.1585016750129,-330.89334960844,152.134178969387,-309.444533825874,-33.006019897781,145.640564660365,-106.102946061406,59.8600878964431,144.267993941625,182.551745260195,-88.7765071030163,-19.9233990489525,92.6917434593939,158.720249096362,225.170314805989,-21.1201641104523,58.2582528192566,141.923129734535,184.256321934768,125.292139095065,161.068011671839,190.59763036758,-683.296194797797,239.001712077302,-82.6921529899062,-13.3634286676116,447.101648874916,-474.428656188175,209.525405751767,-1012.58388045843,-489.109729133482,-44.5488377043502,271.972431187211,-691.799577550953,13.6953373546803,-855.189164211644,-649.580034843684,-602.506713649133,-40.7252935201289,-955.290984620844,-885.216633616494
-1194.47147281038,-1558.75227976458,-930.365655281292,-1143.71430776901,-1618.57662631006,-394.712318501316,-669.695969436879,-1149.6383998502,-380.604414523385,-687.643827303488,-1367.53702712845,-416.502961946286,-259.89268110222,-1024.20417597784,-337.443334200797,-569.082535227047,-446.597177932469,-1434.90120308518,156.499035098969,-412.395104124108,-516.563197659863,-302.337209617799,-189.566684477962,28.3260744952179,-160.781140932981,43.4365203500539,-223.401762798745,-39.6687928434461,100.785746092233,-61.7088384383056,59.0564732153045,143.651180943437,205.086164884855,-56.7548044535715,8.78334536927236,114.389784809753,187.164567072773,241.796105333563,17.8915406431532,100.608247909815,189.628712514867,230.829830054632,202.000145555393,245.007478754865,259.171791900025,-573.599551644124,96.06136373452,-452.387364202469,-219.823508364831,140.063796984639,-702.186246556004,-257.691713511673,-1139.47049870477,-1017.51618702308,-437.920053554965,-74.5669546770879,-960.992700395571,-403.628217430226,-944.805169491746,-837.299279625852,-924.612645150329,-294.808207674424,-951.269074307889,-1057.98862994402
-1345.79618211343,-1789.43871771881,-1076.64985386934,-1427.23225404116,-1910.49096268906,-622.082684849685,-915.980699759484,-1377.88907747404,-651.792673080732,-871.382274403365,-1472.07040241413,-615.58044858484,-393.392670567204,-1106.412963107,-21.9460410670553,-313.892560581789,-146.923868576336,-847.899955068122,490.310820424742,-317.75272442986,-45.0785553680082,-60.6868305642236,-200.478034395628,100.721984894488,91.8215790658833,29.0061133129469,-41.6520508489175,33.3549459107741,103.655464480045,45.2471119077956,106.190682020893,173.25503906732,226.394921230099,32.8216399666232,89.370603836469,165.185961722928,229.121138535405,260.095651169227,88.6127319057778,164.879552270363,226.081031429085,262.306741087778,256.843071040077,298.069380804207,293.548005632108,-746.223782154985,-836.037889482085,-1005.46744743615,-894.073685857609,-844.528509968578,-1025.68348584291,-1044.47451925682,-1210.69519226286,-1674.06654391782,-1125.34009938785,-711.716071900782,-1223.41454974992,-1123.07992018661,-1056.00079113223,-1188.21134816206,-1365.79560408828,-768.753705784211,-1071.43484685411,-1312.53278360622
-1521.58114920638,-2092.88163982198,-1191.55022820422,-1690.44630459672,-2270.08847076698,-676.649570106706,-1051.64477441422,-1629.62351577455,-610.296892198332,-958.538724726204,-1547.96468278579,-373.47462501839,-259.578446861671,-1059.71582253859,459.87046625559,778.668017861257,173.567862608703,365.266032526532,1390.85157671055,-93.683183561845,819.806404707525,112.834352296559,24.9075036603293,361.147842862018,226.737963403236,154.183954670408,78.0396766372761,120.86911457956,167.619386481402,124.651321473896,162.394185887855,212.435957433532,239.122029448922,103.791491656535,156.063193714393,205.493526761455,257.486762415272,259.206379287643,144.900093373736,212.189540914959,234.403951518303,249.901338138882,271.477065020989,287.637019566032,258.527751401296,-998.736764079086,-1836.85486281349,-1438.32893305926,-1658.48481733352,-2019.36878629097,-1328.10978253999,-1815.4823250331,-1252.54914619519,-2080.87017822106,-1941.08705132496,-1476.03387957606,-1364.17152653844,-1997.00682048227,-1115.34368016967,-1617.56810471366,-1888.3876049317,-1417.78178932297,-1248.8565885038,-1736.78963077898
-1521.5238542748,-2234.52912812188,-1119.4110957067,-1736.68039166259,-2471.35124968793,-504.405442217158,-954.36162720961,-1751.50872649142,-261.48960692822,-848.262766064818,-1477.28881187468,222.389893729912,147.121016480644,-765.097566744184,874.77055874147,2146.96270655857,304.349834494829,1723.28668957309,2444.37640761423,43.6629835219218,1587.71053981804,45.6453318957992,249.813014443702,615.982485005354,76.0015038264415,239.24783295225,-8.25246497298409,67.7655455678443,167.903898355375,58.2912488126655,113.677157563321,168.848931905179,182.59838439333,53.3303346770008,103.735255726485,146.981457666639,199.991311367511,185.775658359912,105.059560052864,166.728507951303,173.419533225847,162.794617756377,219.604788559215,201.231296332479,154.257977595692,-1057.67181894329,-2194.76601720674,-1532.68106716175,-2042.65952967471,-2632.22248669313,-1383.43692978204,-2226.36456734851,-1142.54425531814,-1999.82771165763,-2469.12394534518,-2040.50837150053,-1294.29308570726,-2585.70699294847,-985.414864470394,-1765.15637090637,-2262.12217352595,-2010.62157503008,-1198.59034329075,-2138.07454708765
-1278.46358226098,-2067.93020392602,-840.379397302864,-1528.58662524462,-2279.39289898399,-220.680849077364,-697.838576033025,-1634.69131314851,82.6670291719939,-629.831197820923,-1221.04839107132,653.573562073231,474.254774100848,-343.959087618425,930.850812910583,2621.54165087523,112.58323798503,2464.84022823705,2843.28756902598,-64.5010412101777,1778.03035347651,-226.142114825835,248.526413138314,646.360067050495,-304.809435135177,143.258015429716,-255.924524898499,-152.136992036468,31.5676529143006,-149.250976146348,-63.8728126148988,16.2358031396098,49.3627068617403,-108.786254418038,-68.2544108087513,-15.1650368756914,53.8459242292454,52.3925109898532,-31.1740158355294,22.6015526144957,52.2666817508835,40.8960815315824,118.614170719028,87.3491335138708,42.9760502839678,-821.133007348437,-1684.61257265348,-1287.01390487794,-1802.1366944507,-2296.19725183228,-1148.14592341728,-2098.72304900748,-842.714630516139,-1660.72734880005,-2467.09858747464,-2155.32601708269,-1090.72952903815,-2664.82171912318,-678.57203986911,-1541.73029753205,-2358.55380410428,-2327.28012725799,-830.704624835927,-2270.4143495106
-958.451202592929,-1717.03093482801,-539.712157272816,-1235.44101610746,-1727.47720677567,10.1899600700914,-473.698157241116,-1332.86804701021,193.230043663523,-461.626281752863,-819.022317882245,666.554759448951,448.889142274717,-9.42102623466896,776.186408602351,1955.99997246184,-231.34921033728,2486.55381165155,2374.16858451811,-243.944060559805,1495.73453686911,-444.276724500763,67.8910698706452,467.045719137055,-587.713122703705,-112.764134869618,-444.471909835424,-375.948173417635,-163.475828001047,-342.291746848603,-260.035371082495,-155.838163994573,-77.8826686125632,-256.757505548526,-241.333254732654,-183.292514510168,-90.45334418109,-55.9778248975319,-168.481353141906,-133.56758545446,-64.8698649472616,-41.6091321762126,15.2787889513683,6.5929431716671,-9.00979927904022,-372.610362834764,-625.363993838542,-861.512385146021,-1120.5850079144,-1315.32303288955,-787.573172248574,-1525.14856904317,-494.257158392752,-1336.54240927415,-2027.5290304419,-1815.27585828036,-872.932589037939,-2371.67231418719,-359.337324570583,-1215.57532925118,-2201.71926203485,-2302.51253281702,-378.573484096305,-2095.65512702379
-708.140481970871,-1305.07049200528,-387.035028100219,-983.187186982703,-996.271973280919,84.5149784848989,-394.699854776998,-915.370833925562,85.6786307595312,-361.810333010049,-305.82867233706,446.367000292188,125.23765715447,181.842049471006,731.269114790442,947.511986876103,-429.808896936198,2224.12693684381,1488.71392832533,-216.977457149377,1134.8638584931,-429.810595182871,-89.6643655787129,253.34332122859,-502.226944486041,-405.566430323967,-422.055947425705,-436.605111159505,-264.019940088407,-378.338419274549,-344.149991864501,-218.334321642045,-90.362574245922,-293.662393244561,-303.67859842596,-253.615906895017,-132.010990929218,-51.5947851259972,-225.954774717886,-212.655814390163,-117.036156705763,-44.3218695140309,-60.1493559772912,-26.7230925710221,13.0258867591289,85.8982306336073,300.205419542779,-448.80514738531,-478.836603498389,-377.799673045231,-451.685532030641,-825.584196054961,-204.118791255315,-983.061035732423,-1354.00819451022,-1202.76374270763,-640.134946279014,-1845.63010351501,-128.598658699895,-913.901659507534,-1784.9677863851,-1954.70839005746,-45.6178845089739,-1672.48651159461
-504.235288826027,-797.263809997627,-388.594497040736,-736.903546825499,-230.290624308367,-17.8500819768815,-451.311096313962,-418.156457133283,-149.600508413412,-268.889823615994,189.608519399414,164.342010537916,-304.311293220617,270.956690283657,751.562778511663,190.153099695224,-355.885974818146,1796.24500636097,637.563574632857,35.6020735485647,784.475049083006,-258.54775703806,-79.5218790854423,118.684298991202,-166.87278175914,-531.932124004417,-246.600772073141,-305.926801385893,-178.909280895008,-252.173794302777,-259.080953905891,-111.6813948789,54.5695748731102,-216.11621962304,-225.341730848699,-177.307415547812,-35.6342759252143,88.6202369359812,-182.182812215006,-174.226412005843,-66.3270145189824,46.2309253727083,-72.1096599952896,-5.12733496651106,99.6276065772497,361.120900951367,660.501151534119,-153.270995141415,-144.225428581663,130.635613398277,-174.281671714551,-268.807363358576,70.5138534310288,-532.593475742004,-632.484038186627,-550.859213020028,-350.437657473732,-1140.02489136417,57.2117427470016,-534.786320035441,-1125.82692861665,-1341.32952503256,197.209654846737,-1031.83360681621
-236.420138961721,-153.875623089874,-389.841891817454,-372.755910104377,481.393159799188,-174.237985653053,-492.392840561796,116.261413198702,-367.267870451664,-117.41904485925,524.964590676364,-118.254743293243,-615.09771084412,323.010216279024,580.767091374146,-347.854897432689,-71.8532324961598,984.698578506276,1.48339037821333,309.87389991421,333.63196903347,-90.5878495039722,96.8157075046878,62.4681648263091,98.591729350426,-345.89845704653,-55.5498027777695,-64.3610554800283,44.4545802825378,-52.7452348927776,-43.2955482790686,108.933105633833,289.784007377826,-69.7377004793429,-47.476414059571,16.6763173048651,149.173709088428,299.445502264395,-54.7554586973644,-29.1778384120675,84.9087698123757,215.138592477778,14.8670038954776,93.8210464563218,242.399931020012,383.289119001447,639.813196112117,4.17120683669138,21.158419002236,357.863038002064,37.4396557270259,150.25374957758,347.134521669048,-107.708142259836,1.73580233511739,28.4044312139561,-59.4496997571483,-338.173700554852,230.97152321144,-87.4481828060108,-356.921649321101,-516.919593675044,418.705078110588,-226.248655487569
164.553398785065,562.123928863956,-198.11862805215,185.443306783181,1111.96965386001,-158.337585348672,-283.318303556923,687.345592201528,-338.162444474074,194.780269901747,839.732491896449,-232.582072987591,-567.169615303625,500.320212718241,176.568421384428,-715.495644008278,238.815208416536,-144.97118685063,-345.837274497004,413.163881417865,-141.100306600957,-17.0825917493471,283.328193685599,37.4360313297086,146.244373536287,2.34425119512793,56.5979815770999,147.47208462325,247.566097642487,100.289700881606,163.407356192556,297.000900208258,462.929102087973,57.1178603139705,118.007367935938,198.121773605313,300.332155490181,449.011893942115,73.8580540363357,125.570290099425,242.077289836045,366.49560409523,143.506054869166,218.889382168916,374.912947435006,230.775904058821,597.704788737621,73.3336949239444,230.344030565845,569.69986375264,203.616157309191,606.736249607621,548.6202759913,254.50834724629,584.566990099477,627.328614645431,178.37116602292,551.542148107633,350.783899366659,319.294278247032,433.170631477035,510.897646468956,591.48307930331,655.912712707844
628.413429100657,1214.03670670508,188.4229047808,835.962945509485,1641.78720772744,105.720914320003,208.804549653867,1305.9226528568,-17.3063842984437,671.689237044115,1390.82290560622,-73.4403318608133,-175.293200287636,929.326078050966,-299.453136492364,-840.14166298546,349.089368856346,-1221.18373149968,-453.857743243017,281.285730921868,-492.846044442983,-56.6647287130073,279.482896083043,-17.5611818636662,45.1639214766162,191.551092119602,50.2690323939347,200.247151312169,294.585787009719,119.568414969116,217.309970786745,321.988740202826,449.875046624103,75.4204094532498,154.741191223616,230.795837489538,305.967906865892,430.508469961943,101.743487865872,165.802316766783,273.969031313928,376.009865951941,190.56967625133,249.632626906687,381.124295975938,90.8551681175564,609.03125936012,188.939821223858,504.313708004416,805.862135845966,414.21685688352,1151.11171091457,663.617082336196,661.981593377386,1203.73809592033,1324.10851144115,416.437017750893,1523.78988316833,406.181848177674,675.816871446891,1202.34486181947,1593.30812570077,674.518466288923,1463.70662259906
939.634022416244,1609.76440362823,520.7570923384,1307.39854787934,1921.40527620139,403.2149287391,668.702121697628,1821.00006841779,261.538374419162,1053.80821524297,2008.74317459529,115.397431076839,142.150414464709,1427.13634212132,-713.330586950771,-876.448885772594,190.799779135592,-2017.34738642532,-537.188299295752,-22.5556604169833,-780.813200574122,-165.740378038855,23.1704724303706,-155.713752885332,-87.7100985866574,108.7741126478,-46.2997081039697,92.1928439743853,191.101944432356,25.4030912961258,118.646600484649,189.275788088977,268.744690794726,-4.35239372482858,64.4784880500114,118.643365653134,170.251422596045,256.92172931566,28.012298685396,80.9302210773512,159.68962682233,228.061017068213,118.160092299044,145.524001241885,229.713242979964,114.028262116404,585.887113483397,409.089387575668,697.013014991866,941.798978603715,668.409663960897,1558.17206131408,747.737523629076,1014.83561615197,1665.35275897984,1886.40863301104,652.535180472409,2255.63035614101,407.562815165476,941.260185543616,1711.82392670493,2273.6291828204,638.059728554948,1915.68358552247
923.261620655904,1583.45371441619,589.234648230056,1370.05927624463,1733.5115370652,493.026138291539,769.242900746868,1923.54236221341,156.603078743405,1046.4108294574,2092.34266490768,-4.46983558426738,5.66579576609304,1566.38283110795,-1015.42429575388,-1068.79503492184,-53.4961062932169,-2525.91222628072,-722.623647073965,-368.986951567475,-1108.49846978746,-287.64777207341,-363.655851228446,-363.502285476896,-195.429644042029,-99.2236749424164,-162.330471519035,-63.1723134779788,36.8441158373364,-89.2294765088115,-22.200702788866,5.7477274858811,29.5436996066227,-94.3187796484604,-51.6544514434019,-28.8811864695879,-11.5575446898321,27.3480026659077,-62.2370509921881,-34.7617010968959,-2.38305039698661,18.8615039390579,-4.63126876216108,-14.5233472486274,13.1247912999108,258.012436202145,529.431004255885,587.972152219344,682.062863874281,899.967209415045,789.016683680566,1563.10558017636,766.205824613833,1039.56751493603,1645.25452372248,1937.25824359944,745.529758117998,2295.98569946358,307.296622885298,961.003575859201,1658.0766212167,2151.49789100452,439.17051730187,1778.2589906143
646.4273909854,1165.21821010802,477.920753202788,1045.93655089187,1057.05879035574,425.552956146547,558.828189306465,1444.26165295624,-191.216754102889,690.68359729128,1288.22579153618,-407.761686416851,-427.789480543083,1088.32930383198,-1226.13690603263,-1382.06418857541,-188.775079851956,-2762.15403421663,-899.83736943373,-644.809728474635,-1354.16261596058,-397.364738820442,-702.101759602406,-534.446228971171,-275.942877581124,-279.241024324765,-248.724903107581,-178.055145636683,-112.956936583432,-165.878843552131,-136.923794892207,-156.628657370106,-196.191439336826,-143.526505354608,-125.930747982253,-140.643004891825,-168.78617210624,-178.647599921836,-113.680582515868,-112.195058481595,-126.16401377518,-160.563843866834,-106.322393243637,-143.145600513252,-166.436870326239,360.795825259045,500.641164980927,579.282339813104,525.777017141343,773.454905558578,673.99910982745,1221.18721992253,637.892579494076,754.591420134802,1211.07063289512,1456.56388658732,631.647770174901,1683.94394339069,80.2178814264535,717.477308904031,1121.91930451162,1404.75209168539,101.158669759188,1178.90084526634
327.185046491443,573.280552119447,378.387891505821,548.281466283952,143.474812159405,402.879254827408,314.587956331886,568.777540709951,-364.55904307158,255.651236640032,-46.9351779583977,-787.654193504351,-720.08811174257,165.870842991365,-1460.97845359801,-1662.28301942057,-281.460322507426,-2790.5882046479,-1030.57039441675,-818.240794878015,-1363.01516144909,-473.348151897921,-910.957025880596,-585.54279915146,-333.23180105848,-425.662419692552,-295.139548936762,-264.447283683092,-287.037135266229,-213.937820721222,-239.466328292711,-306.031049295408,-392.933544112294,-169.545147836107,-174.652233035649,-227.348482480949,-293.153134702254,-335.341061022659,-138.771778714556,-159.360869979544,-206.008014112829,-281.605364505177,-168.957240850249,-215.436793083728,-271.387824473513,359.749370840182,502.690010202727,457.084429079825,413.532039269071,713.456208863476,473.812170142162,833.076408706168,399.60202265979,485.267967340958,775.26235448941,831.143116639804,419.951344361285,954.552515201281,-201.931856749023,393.144938213606,521.250413519487,625.935315752419,-260.696369161515,516.120820651871
79.8408858515297,4.58458943754827,303.751707261387,74.3865212432334,-690.704194900367,447.164656558735,170.918353993402,-294.564008097573,-233.840079440065,-103.605793327062,-1193.18899601402,-932.095019630882,-721.130778999244,-757.508550573642,-1752.97591221676,-1897.58910898777,-499.680334879543,-2698.64906072532,-1302.57418120084,-911.108993776148,-1237.06346974106,-481.85574188186,-1023.59395186617,-583.52804913161,-355.322478251434,-607.832249447138,-300.584567669846,-367.489100460677,-502.891066014487,-257.649228230795,-351.768293135482,-458.794609625382,-546.487132174392,-196.940782274199,-232.411502958246,-316.9163900453,-388.148029695202,-438.506149695282,-166.874326939926,-207.324517919494,-267.60849350063,-350.195065235684,-207.394578563154,-247.907432367225,-308.607688070535,332.612462998189,502.226746317851,392.729665684789,417.743119128694,717.416528533745,376.570211340111,565.490959068995,176.647542869492,389.734970565937,543.546393097004,390.465930040012,210.305405973839,489.594508068313,-460.83846004029,97.3520375138258,104.710424385082,166.559338846773,-564.233752460755,32.4639208615231
-123.500877967449,-459.381845816738,166.155780631055,-266.045410083108,-1259.51461518207,432.530884070509,97.0272918224646,-829.003338252614,10.1118807218284,-352.861989127844,-1762.37482224546,-798.95073900721,-575.954674042146,-1352.38861551554,-1852.49376702122,-2027.01614746226,-762.117132681045,-2363.17910027758,-1704.8546916064,-921.376025790224,-1134.00602499422,-426.662740522368,-1062.41893842548,-646.860488028685,-350.530888685208,-820.743916150637,-267.589694688168,-476.267096356687,-697.765889842508,-291.573632812428,-454.463505115486,-584.481577487869,-634.895946821687,-217.886470521685,-290.639875522422,-400.350752687611,-442.795442057487,-488.287388965154,-198.657697350345,-256.216356840163,-315.945485492943,-383.781048436597,-235.39557242585,-264.376106381018,-311.32363995558,319.80865963065,477.040430659652,388.728748044827,433.523872519015,657.317719747019,354.197518394841,365.938467582285,27.2441939033081,305.72461558065,370.66471297491,151.932724282969,-2.81543631555741,214.716349138608,-677.216369673061,-227.226822497169,-206.266443813872,-77.6753840544923,-824.752338341556,-325.60245477306
-263.788143732686,-745.190350201304,13.6759373708652,-403.580449143108,-1500.87449846826,343.773686823253,70.4503877851494,-984.232185476403,205.483991547201,-460.301340863943,-1869.29523599341,-453.480608431678,-407.693847478124,-1586.43488386229,-1496.06498034489,-1871.47172072077,-835.682566457142,-1597.56085941102,-1836.55526975108,-842.532063484681,-975.280253133696,-383.820648948795,-977.550687877192,-748.992185122248,-377.531731485978,-951.251318747998,-229.995326387788,-536.514670639586,-781.243195795763,-299.88699189185,-504.382834213644,-629.916767647088,-629.460433709273,-218.716173168921,-313.695754401247,-438.888209107032,-440.238617206901,-473.780596146582,-212.699144101625,-278.126967082921,-330.099591358795,-386.551773950673,-246.467200484002,-267.928195778148,-304.663855123658,259.823334736712,399.331680660562,299.990866351363,336.75901366459,484.989723666822,267.332315297488,170.440519291323,-59.554806951923,101.493663927176,127.792579337004,-10.878360985887,-199.204396746635,-61.0516159346846,-803.317798420953,-572.07715557947,-497.706548560619,-288.559025863409,-1029.23294357642,-624.428562937486
-220.524846473954,-759.761227574444,22.4937165263005,-310.540544143352,-1417.56484075255,324.191229434205,119.823791644499,-880.308017744134,359.763154372788,-424.416977170372,-1727.02322167496,-45.6866098338244,-235.14897466232,-1550.35309513105,-784.813945587315,-1416.80566597804,-676.097852761132,-572.208238209779,-1392.40982928231,-684.191854437394,-614.135440672495,-409.778170612028,-724.344572174271,-730.432403576181,-456.39790392172,-880.111216197902,-222.756691308957,-503.02997553177,-701.962130034602,-272.426714567432,-457.60004840733,-550.634475834794,-488.18753515512,-191.564080188257,-274.12669933281,-387.787765744462,-350.761455917944,-350.755790615814,-184.502590711627,-238.87102870244,-271.806318416794,-313.417939452884,-207.775529557588,-219.707059957661,-246.212481119311,142.05016593032,260.796945256857,97.992133745439,135.784379218552,269.021095389871,103.267470238944,-21.3262581382694,-86.8970488863385,-112.642153791403,-115.729726950848,-188.668931072854,-282.476242367889,-343.131242924274,-746.050539727212,-767.909295955056,-693.284175128646,-466.384408245839,-1063.37078311995,-776.015456288273
25.6102921747211,-541.688444744567,250.861873673868,-62.7760362347578,-1110.86676300163,462.283629662042,270.730728160182,-638.952041288336,537.092019258009,-272.800707877369,-1418.14214472729,303.011957548401,-44.9610794617562,-1298.66443717413,-41.1497382415329,-831.886591452264,-415.332840822946,307.231770936078,-558.205818731473,-420.744080946198,-115.594799557425,-423.775021383902,-347.81363689447,-515.790908772138,-470.578891623142,-607.086681135059,-205.817560788895,-350.427461167692,-472.061888801006,-186.331759284271,-293.649558378214,-342.436572859806,-216.719100266442,-118.948024275231,-161.205421907037,-228.047414525708,-157.119872262342,-101.412354490182,-98.5692309191095,-120.789138072516,-119.700523822894,-122.410055895845,-89.3196914322118,-78.6944909841347,-75.5053850037205,72.8483089001872,161.456858418138,-43.5734358341454,-17.4977129403697,103.133594540266,-22.284369115524,-186.854267796616,-80.4439609258879,-194.220448946645,-274.80930085007,-392.910688358076,-243.750522062466,-540.799873022997,-544.868054331762,-730.046599866601,-738.694859101044,-563.574354638676,-878.814338589514,-729.304561654205
308.804029866733,-269.225688325077,521.809472680762,189.844072756705,-737.039320166676,627.489438253451,483.790062368749,-342.326072275764,714.735551579289,-32.4846805183851,-1014.29941170764,552.110708694698,156.962188844176,-924.105900240173,521.432234672737,-262.395533281263,-159.328452737391,851.516486625792,179.752168148089,-71.5889906078293,300.910136638143,-308.775166234628,4.0100956826623,-242.433647669841,-289.599423296964,-280.73241747066,-99.5031239445758,-103.895866047295,-181.354682721997,-28.7551302779596,-57.0961494034704,-78.4401286991001,82.2707273659888,2.92506140599192,9.43395778638112,-2.79718455874624,89.935819714406,189.793747358065,33.4349159963498,50.9699816222921,90.0790732852299,134.30384103075,89.8591127699528,130.953042217805,172.740692951843,157.406986851401,289.654201403647,75.7351899804274,77.9441149632501,109.252557242301,30.3328762097196,-200.346250177987,-45.5102973015095,-107.334278641976,-296.284193915774,-484.851421553502,-169.067690369704,-565.280687172769,-381.303519877985,-571.792876214633,-665.975472870096,-550.477208896155,-588.10808108144,-563.530853297694
471.063556718625,-59.9811494273259,628.466725642557,337.906644516439,-370.231947557524,606.888263717572,637.239474146355,-67.2529397096086,778.773939212651,206.402424840789,-607.691407827919,644.263009780125,311.886417792004,-591.802864684828,753.234019858839,172.778950290894,14.3107990845252,1057.26612842623,495.584197731865,158.650458307174,459.587192336437,-118.038820006014,154.822542806307,-139.356548736303,13.6011942503044,-72.0895748612563,78.9904543247407,127.412787352341,44.5921136279667,148.071164429479,151.227079640857,131.997007937525,294.235996458193,133.584036708739,182.008329889171,196.808965529647,292.295370959503,403.734714875827,165.715480742789,212.806282158885,279.144992796769,344.761086240885,260.336362634224,323.147023825126,387.63325597106,360.473726819967,661.1071420726,440.621463166054,449.400634000877,354.90844396899,315.993729925355,101.382383328715,102.77173585905,148.604961119692,-87.4490416254872,-263.785726648749,-45.8461777162107,-343.667910727512,-322.921022835745,-378.952079037162,-468.995029456959,-367.131603195271,-295.016318659517,-337.51138235824
507.985870804444,100.626445875184,574.708427311884,368.061180819059,-0.623369105077831,377.272217348446,649.736746027877,140.257764175504,680.686103578372,334.37725849226,-216.592391735014,519.126971295771,368.987495297073,-379.641174001881,496.943524295999,350.769475069701,16.8404328689048,857.090241833884,434.364269880353,57.8975145978253,299.234375812509,-9.11252275827527,51.095351131074,-297.913835444502,209.265754414458,-17.197958964907,210.709899079923,230.365798380203,141.789407414105,256.4188162828,256.692908919946,236.30734495761,394.261820156945,219.835708663989,288.846915671798,302.341451564925,392.494563899105,501.707169662351,247.608038047858,308.676925201504,384.138185846524,448.559110302174,356.53454183359,422.425390999718,498.868782731711,498.469193013668,991.792926678107,776.102895781046,836.057485427821,684.743099785065,670.40192022058,608.775660219272,364.251556440962,486.782218476418,314.912587829839,215.488685509823,186.919239071519,55.8210468285425,-266.03164567445,-107.454176236179,-143.227134926263,-30.1229480259917,10.6611110406291,-43.0238363330338
484.837596149076,252.171914950116,501.528621800685,339.787966855309,364.828645136853,119.997691902098,597.503883700013,309.058338139951,521.178571744539,391.607458154639,190.780603498656,259.002793338324,379.575050756828,-197.07539231461,-118.943913832201,250.880339437803,-143.483989770766,316.037185845681,168.728969517146,-245.930117347116,-75.6847714367137,12.1353985385208,-149.315692063457,-552.915949984794,199.508773560402,-26.0555000722676,245.803549734962,211.141393443005,136.794310507283,277.92782872059,267.211337477616,251.403037402111,404.102117104694,256.720558116858,314.866029706654,316.059481977237,398.268547429007,501.258399850555,273.625864336938,329.972973010656,392.514972447175,454.973491641283,365.288124332269,417.595889553346,511.021834303397,431.388685078232,1058.55289304768,850.274480344985,996.718433592275,866.853377075209,818.404520267477,974.410218983249,533.767777988882,700.600176491618,649.588696597494,644.355494109346,424.502974901068,425.846173780344,-160.545812002257,219.987808254974,211.853796672636,337.084629199605,317.843028320173,314.867539381542
393.621499132959,386.802961723516,413.299435954612,305.506985398158,652.876768663489,-62.4649484992001,561.391544030383,463.490504259218,393.82300903163,490.493395081026,546.575476403731,41.462228268107,413.209319943594,9.65143485550302,-626.330317702697,0.42063541526224,-322.363486041004,-178.86884889113,-279.657442241871,-387.606739516354,-395.73276764736,85.3944724943683,-221.015245508495,-643.4288891523,124.693717083282,-15.2017519986013,268.60718257205,174.207111122321,81.8159014935577,276.007267403681,234.304233819701,198.489432469164,299.831545967595,282.789503552986,301.582517525583,275.000653321153,322.575015327627,386.624678903274,279.1668474413,300.949928454694,323.336888728481,367.757866615884,305.410479041725,333.312811413055,433.675583875798,224.564560547337,969.622375458626,710.230565010486,990.03735239287,869.774271736766,675.192930631996,1033.07318360112,426.692759099365,641.96136673869,699.969972992537,840.78581161392,453.202921357853,619.840565050902,-118.771966948982,401.045722247516,442.014776088674,626.204748634128,476.508511488465,648.691593789345
206.589568431945,482.888751011377,188.691635908047,274.209339862463,764.496840863559,-261.497956305081,477.497113227634,545.306072244478,264.270900322239,597.058418634479,661.21445264883,-74.544683080615,427.461663000075,102.777880200657,-727.78653189485,-252.323168709861,-379.045506997398,-320.314485507876,-941.758048521271,-236.351848919236,-496.68356303129,252.73726512108,-119.449683569261,-537.009585449614,136.821074985754,35.8599448813285,343.202812334985,185.828658323956,18.9138787253218,293.994176127473,193.353472577445,90.4642303870191,66.8824370784128,317.258769947554,282.433089574027,203.196077383795,172.19004810219,146.650737618261,283.040668584427,243.595815542685,200.787951379212,180.900158010251,198.354973085558,188.91527384142,256.629140215844,40.2254966906368,881.774754975187,515.456551810754,957.276685896116,802.815415610072,400.983523206704,915.200622015709,100.424057833848,363.124772879902,535.674492091464,876.464369517458,216.423510728625,641.72921471273,-237.137489031856,272.790521513571,469.816319655155,769.152303417085,345.394798658616,801.1559135544
2.71376872143325,515.352244177424,-136.227320675843,229.560482479987,634.810019989066,-520.804821375536,274.274136467307,455.434948730973,77.8962724705454,544.462150182034,405.377865049442,-165.248892843382,314.716191647134,-84.3629630991369,-552.732842423744,-467.904881038149,-282.493663973199,-221.168564447413,-1620.66672574651,3.73621509557366,-516.626315261776,396.597367849359,9.44702135534202,-432.487939404096,201.038807220373,104.560046819541,401.09008085733,207.296731347182,-15.9823524252388,298.810426707867,149.027845355884,-31.6095284911447,-201.869697762924,330.736918038549,247.963963644942,114.908313923264,-10.5327090173121,-142.296333944768,266.32158565969,167.461959161272,55.926877847372,-55.7056795805878,76.4309362385949,13.5464751089683,4.59638893484236,-72.4332212086331,711.501505664557,307.532168020889,826.582506523452,675.838619230854,170.004804187298,742.650667166599,-259.944700710511,41.4958749844726,376.471138527403,827.606143260761,-128.119647236265,566.960703817646,-410.007281941798,-47.8726749394542,361.292376800307,713.351132596126,18.7962575120651,687.124242551191
-115.877760154095,415.000985836376,-347.42028866542,113.284845985139,263.344159961493,-682.076989096567,1.07944158170259,134.90417604792,-112.756931008296,235.743473829064,-130.471279679657,-233.479572466722,71.919110332282,-505.997044063726,-276.381085357724,-604.560321919235,-101.863436836993,-93.8803512996126,-1839.99646014709,133.452803417897,-605.477777546344,406.306014283365,50.6417373510329,-406.240590662257,191.232532671804,141.194118873434,343.939668548071,165.52645096145,-16.3262940938719,236.45166354921,86.9034194751841,-119.06743532672,-381.861353678401,277.350113954262,172.377136707914,20.8646168676474,-167.481119317917,-368.024099445161,201.212061824236,75.0445003233056,-79.6979243213855,-257.734640227096,-32.6560274615403,-144.678297527665,-247.203550256357,-211.703361397038,282.158812212627,-3.88684123539576,405.555391975392,356.460153356002,-51.2515518615584,445.171689206213,-602.513988849101,-241.207362600003,258.230390460228,616.738449699179,-459.662908655173,414.079891517464,-442.580837072037,-311.225171373925,215.305436827741,445.803928384124,-239.089546525997,378.166084465613
-100.045953942108,191.255872001562,-278.231878822442,-63.9507184220637,-181.159651847457,-546.296726277807,-180.188419040654,-287.612552160508,-137.989610368983,-151.663657781658,-624.39545430132,-118.850489934346,-86.932988768491,-834.490232627711,169.01462282888,-440.040735630608,50.4919034688047,120.922138096033,-1213.36131857011,166.159774141869,-612.304950915518,300.585813490094,43.2355908161456,-297.437334932226,94.9687490968305,136.849086497139,198.907716117366,73.7745197513456,9.87182968582352,124.871482977919,22.2371942262103,-138.94332642923,-411.962118551262,166.344788372112,74.0994718695888,-50.442716768283,-244.253082947417,-446.262483629088,103.088334935895,-5.62931468420222,-162.751823373719,-352.400430946823,-101.782586607754,-225.047864905314,-392.426574681752,-434.884764047825,-367.675275775088,-508.124308084276,-290.626545216562,-211.343040358053,-476.024155342138,-55.8772176575029,-1005.44788108953,-584.203407863212,-20.2650328096541,166.09622160446,-806.89885481626,118.875152496405,-275.473568565916,-431.460180687981,48.5765277040292,37.3743121766308,-252.994842604765,35.4822665248061
46.0890508083142,-18.5809719508623,14.010242588798,-182.007055825085,-451.107400864381,-157.82170222891,-165.722916088527,-581.306363500486,56.5266352666281,-358.715357116876,-824.63306521157,211.803337551256,-6.48827585915818,-812.726037855517,835.0461825747,156.032456460271,133.371844378988,536.599752656792,32.3665960222335,207.735652036077,-324.674858048537,174.899941446528,65.8981149119884,-17.0326083204546,16.9811579136541,138.465292631643,82.8237803492577,14.6938398278815,57.3939889789649,42.18831223994,3.08225795084667,-82.091859959056,-295.411852184475,72.1697672273142,15.2974667221148,-54.7356328698214,-200.658102673474,-346.297438415617,35.7198871533598,-21.8586771740059,-143.763731665719,-295.5530092801,-88.5899753007922,-179.710132068419,-352.251111963279,-578.172041669217,-958.389287320209,-1089.35660317382,-932.893578263518,-835.674627190087,-1136.97770222795,-643.330446848229,-1405.90638698821,-1040.65898686705,-567.023745131524,-462.780954067154,-1137.06555265041,-364.883505452733,-8.78682753253596,-504.217429729684,-183.60671781633,-405.502029413294,-74.7957259635724,-251.610733654031
147.450130738516,-255.215893489595,210.435760523546,-305.546243042082,-642.428833494656,129.503739545033,-165.442216998933,-824.970546085896,174.922771371574,-511.66753777187,-943.326279049909,448.419295300366,57.3561279571263,-681.154711095486,1493.38040990322,831.913447329457,261.42532915405,969.959216334561,1118.78408605426,290.656473437473,151.079920672351,76.995362945103,93.2538904573424,262.016680418675,-1.52514327149383,132.169744670496,24.874689925247,-8.1458483492513,71.8640593437285,5.60441729710476,12.1202895534545,-12.0943987634143,-129.874910066109,27.0042081867009,5.9018078199007,-12.1228479809688,-90.1504472274618,-168.455607698389,26.0268426759949,20.1632502137336,-49.7602939935962,-147.31086923674,0.163619388218216,-46.4462363803284,-190.120193172594,-418.822021674619,-1271.2458480532,-1406.04809910187,-1208.73414462391,-1268.8399824684,-1624.95414389698,-1145.64806109084,-1495.90804068485,-1440.57313467059,-1196.87603444633,-1181.31807757617,-1266.19068647461,-1027.42489296694,235.495031250909,-637.475099638971,-564.394278610874,-900.314514216029,77.3159524216788,-612.794753213831
-9.74011006736152,-716.651061746983,63.5436763009036,-633.078612855777,-1076.1192079131,83.607277471035,-427.047504356079,-1252.59285569559,-4.68749115285245,-836.641348185438,-1274.21776828142,424.960792450888,-102.573853945052,-720.53086377483,1903.07508727578,1210.5713038177,580.583850324869,1189.52084616898,1572.74393762956,407.511427313291,569.681256872377,-0.647982508284303,94.1744879733835,385.491572427662,-19.9756675039947,80.6468019251369,-45.3541034276942,-53.072996329914,14.9748613926569,-37.2374830113779,-12.2173901538056,-1.7357903729015,-25.6796443539902,-16.8866557593992,-3.80503677199146,13.7826892595692,-15.7877340107337,-56.9112442102454,34.5185127999431,57.2681033337384,32.5249064032139,-33.9506860199833,99.4613336699207,78.393004909988,-55.8528482338031,2.02217859310598,-1295.65679881691,-1239.85128336909,-1141.9995145821,-1467.24934196879,-1529.34507435875,-1571.30043005965,-1040.50918298373,-1575.21405390439,-1638.18113986387,-1902.14268089526,-1058.71348205978,-1769.56347006825,440.380368344765,-820.542747285377,-1084.93765588346,-1495.88191775513,66.9851409381666,-1175.61882616025
-291.258756049586,-1236.45607795473,-213.486949287559,-992.256632334796,-1573.35442276144,-44.6196874651966,-696.466334387824,-1598.48388687171,-128.318319819218,-1001.45343933812,-1448.43699632281,507.218200351374,-78.1168754093202,-556.306736611377,2104.69557094498,1527.94586284711,1018.87719005112,1280.01789543502,1692.07825824976,584.630988065028,897.102366368003,-37.9550255329438,172.157837809656,460.721805156101,-58.5322426024766,72.7648794566597,-139.559528001288,-85.8996640097963,-11.110516798931,-91.2884200046143,-35.9102752032787,9.26767530212725,69.2385302697537,-80.3473925282625,-16.6535340786779,38.1906637087346,43.3269836901121,25.5193098181714,34.9849607155468,80.5959199544289,95.395960480015,45.5947996982283,186.455916824772,177.026533977453,34.7389818454013,449.969134138724,-1014.85827038211,-746.722199622501,-904.701563580193,-1449.31697418206,-1013.89578019232,-1946.63117773198,-260.440003123037,-1368.40300020041,-1760.35307500835,-2376.63578245036,-587.658100117122,-2304.31227616175,672.923109431678,-878.032843128869,-1464.64539839488,-1987.16664654817,29.6377745247309,-1695.69386535337
-298.890854757725,-1304.39838027447,-208.498610999202,-917.394043445548,-1507.08446109052,73.4423305251121,-514.416437083741,-1302.17791177602,199.094017139353,-541.219390892004,-825.760384124062,953.764351323258,512.307555596338,298.072794435842,2163.35003198556,2046.50634793651,1279.70265703751,1303.67744017493,1821.9603019994,771.000895627917,1108.4965164523,-8.24477790592285,386.062276349673,597.564766979269,-80.5669871266847,195.887531790047,-188.350142408674,-29.9701972465428,102.507362738655,-103.95242787058,24.3927835138821,128.735631768944,275.916454494773,-115.347942675732,13.3450354581801,119.587615565759,186.586364997651,223.564960163646,45.385047537035,135.654586349823,204.545990390748,207.594732170549,290.75708946255,310.260915164291,201.383553329397,791.87219434706,-326.994932261811,-217.580395231944,-492.874344236489,-1058.13580855331,-496.80312271412,-2003.9050370398,356.07988185724,-789.043315871869,-1527.71586357107,-2300.86100388296,-50.8028903722962,-2273.86164591755,961.314627564218,-564.618138994549,-1343.96519351066,-2034.77551807444,213.487500773694,-1745.80617804654
129.831785515782,-711.215586622147,143.585032206248,-288.059446238011,-672.10124536071,338.835804732479,67.0030379966872,-368.916486345382,700.06809815887,304.509621241272,478.786575469218,1364.70906837557,1252.01927665643,1529.59400898385,1992.20763245689,2323.62233840775,1200.09958779492,1041.21638742758,1791.44919394887,820.003927911195,996.879335825839,63.600229089902,581.51573131295,682.187924544042,-74.4556691117006,352.388740324655,-157.112000983132,84.8585316532287,286.894442533703,-52.8133782660069,152.652421240325,322.190330468904,559.076980588347,-84.6089382826285,93.7676750323375,243.972818665907,400.994497314647,526.216913988903,84.868352553333,227.221278845062,367.122436593827,464.362673767218,410.303258758796,486.254969502833,478.164449071031,1004.1525196369,656.064462446835,245.84285637305,141.690785687906,-194.117524539885,-60.5327338603423,-1432.92853361721,632.106205889393,91.1406595043236,-932.295477320676,-1653.35847218744,428.563552584117,-1585.43038565634,1262.55370021858,166.113829285966,-669.113863229037,-1523.55272597118,681.179117867161,-1177.80257593257
736.669610708681,210.318901203316,550.758789106784,495.943774464084,453.850210607773,435.043067414463,563.946612985008,592.849111534637,823.209213538844,887.437485763888,1665.89938258838,1254.47390043253,1480.70910837045,2357.90793731694,1686.63840236774,1906.23031233959,984.146983322235,566.650241945687,1483.8796352212,727.709753082764,591.236047093194,167.885858175386,627.987353762169,630.184610213694,-17.2729902041367,416.131390362578,-59.6402699225042,188.013986450834,413.622209464228,41.9149273866201,271.354445862717,468.533659657085,770.548916792568,-3.22499176218861,189.734376197449,352.524655983889,576.97007592455,772.859328392607,151.035661586872,311.349733437827,507.633853040192,684.543266022879,495.813013235488,626.884510052613,738.563572652859,1089.36182091122,1445.67661861172,681.185710574667,777.34407530103,805.75547098916,370.322701019069,-440.054685150614,758.854067796473,921.826713282474,-118.651632800477,-728.764043087418,833.370018764286,-553.145459620435,1495.9679174607,971.25584028092,255.055409653288,-619.710488488388,1232.49882896591,-195.840642358295
1112.97190901729,947.112384998121,738.603334292277,951.03710259331,1271.23597012634,279.084877124295,684.542898905084,1106.07993570111,505.701587859636,971.279078559785,2171.83852139988,723.744341835921,1143.00695471692,2435.45543951469,1558.66554540864,1121.29162762749,902.468964075659,462.376470755884,1198.38873493557,658.577541128352,333.591620517734,338.137753973186,612.842029489953,562.977973256947,147.741485498984,413.248979452686,90.7882093479107,285.301553314507,464.221323974921,154.786829417264,349.224098570875,520.593661605238,826.285681396684,93.3550584840077,267.876170311101,411.626171559048,643.037621142173,845.774738566943,216.76150833278,351.257822886781,550.7150936653,752.020473207074,501.911683845782,651.470621327582,833.643360449031,1078.91143399368,1600.78979097574,1014.77114400418,1083.09354808847,1385.43871747321,681.926954092736,379.718026746846,826.138400973844,1312.93089654513,582.518831359559,114.697061277141,1087.18519773308,332.947851389528,1538.45215723779,1389.84626573914,1014.68018003441,340.836345523804,1571.9585831508,806.470557797892
1082.68666516341,1231.38560208676,673.892412753198,941.611361516271,1544.46432184727,58.6381314216792,538.693221680227,1170.0807201102,121.275406276357,780.192798387644,2036.68891307088,245.491426180038,650.531559612218,1994.88029026769,1720.7275811264,601.546469941013,950.619390048668,1092.40078235665,1163.70878876878,692.543880805602,576.861012857398,548.699273221155,661.160102371975,604.711140107225,407.084193170525,429.581337712792,259.746556690511,403.214349483697,480.890150303255,259.44772837583,392.464380339444,505.082917845958,745.641807185165,173.667085672007,310.388629936382,413.490613762938,601.275254260584,749.668478300058,246.319735430739,342.671177450478,489.947117306758,662.53675173776,427.311297577566,552.632740586467,727.096430290647,939.439826235726,1257.06121498628,1065.85012939737,1047.08866154909,1368.84574463839,732.493834960471,712.643770996632,724.628238905593,1237.50554226262,901.886995925392,636.479406020194,1061.37095116484,760.663039737754,1324.02604024457,1344.32183668039,1358.98588341774,983.241995984818,1572.59706028083,1448.75626790499
872.575514926589,1206.37855002041,545.78835607536,747.919373455113,1456.2276699573,-16.9294526365399,394.134331746756,1034.86453173378,-37.404085890552,575.971118418147,1608.54284536211,113.981627961005,350.333281699112,1455.82300676354,2030.26002301634,684.867170755696,1017.87702084892,2234.96332740501,1399.23480314014,806.456403257318,1291.1504569824,717.998689399924,804.695146309042,788.649419585759,666.957220992654,519.567770727751,398.050156893199,530.252203575772,501.403098204629,341.985430369963,423.38962211748,470.61654304794,611.597151928914,225.364950218266,329.714425028159,385.645571273589,508.954239393981,577.847749603339,243.021119112107,316.039162789436,393.80126385282,503.447393404429,327.671596128163,405.519035445641,512.998731931415,595.031207905683,867.72545194347,790.749865529723,871.509907728979,1031.91281475736,561.88605587874,685.163484908697,483.983972188691,962.806344787237,834.654700755149,777.502352437495,823.506013004422,743.67408648732,1008.90334429664,1155.06384866487,1322.14035530748,1134.10886654542,1401.73511209611,1619.3767408986
830.998747801531,1195.87510613598,554.899994849067,751.017397782771,1352.49400147512,85.1095602857361,431.79054265885,945.30430987364,53.4607936180691,517.250287413693,1243.57616347966,289.530647296439,364.786628386268,1137.9240565761,2316.71240329375,1415.20387710483,1131.68192690263,3438.35850389108,1939.21732883816,1011.93546769655,2206.26775111945,815.417121463106,1037.95894578145,1116.66466587991,856.944075665003,708.415339440747,491.004232006877,644.870136059953,569.386975293102,409.406652351941,475.934067510365,470.199121232982,508.713017507826,260.310085422311,355.828445178223,381.188773447485,435.057900191988,430.116451437891,243.644320835486,309.167819029517,336.053864603922,375.235698025014,274.280878975161,300.222246200305,325.343064538362,134.051562004252,520.784527344463,337.919275816929,544.555010473309,612.716149517615,314.178289731533,452.340574156429,306.35618782002,687.525501683074,545.816846238281,612.265717131055,611.528016143921,482.397366935989,823.474865343034,1059.39592982122,1097.06621389553,920.612673694719,1296.35806909328,1497.58794550031
964.79781745516,1281.11666390854,669.757190705843,978.96251283342,1378.57205868094,213.861931112746,612.324419455969,978.596268586389,246.549593509571,627.451979298438,1134.93319755818,547.865431454622,594.73576630459,1108.22407163579,2348.72149602742,2447.73526422949,1277.26976203625,4170.39230802185,2540.72862484426,1253.13967927685,2857.38464649755,844.735364618798,1276.58825047906,1448.45070626411,934.257861843103,925.886669646676,532.796475655919,713.560997687586,679.229112872309,450.104426097031,538.410373899126,507.468949055686,450.502951141488,281.954102398539,382.051719273987,405.038580792828,393.330843154764,336.17492669773,253.798485927941,318.13412948535,324.040171276736,311.42983625144,277.019714281685,263.164795498379,231.166072009674,-232.168190993986,42.5594298820611,-107.811721528708,-25.7093494689014,136.899631947335,92.1236289817289,49.6480214786209,262.300370290644,427.401914697927,201.122374892817,254.470754908437,502.068526148831,181.089913136121,764.452928486649,988.927123482372,846.036709781802,606.354196788553,1260.38173090047,1312.37448889005
965.309357641442,1257.67402024347,684.244402618649,1080.65261699558,1409.55686447039,226.960064034564,708.709381281254,1011.57613806699,352.087366160989,745.705825248256,1236.28915861734,660.660731693531,791.493113046392,1203.82528993787,1848.96048877068,3026.88465243341,1226.8406405326,3853.75891705776,2574.00115476731,1306.21339101729,2735.54418009383,774.260435716518,1330.3700301871,1496.04304157751,841.242852412486,1005.63947284513,492.657076974467,682.997161359698,730.646232646233,425.026941703838,540.004143595524,516.918571867643,393.839408340132,269.654622337377,364.421905998419,398.277551374884,342.155980195511,265.698449564505,239.574954543635,298.695502461499,308.609014777792,275.558464625855,273.964584513977,251.093749901108,205.42119152226,-408.862933719325,-472.813037996523,-406.592729149139,-645.549457050616,-308.377354404229,-71.6476240341247,-382.144589987509,244.014530238709,178.913972537964,-66.6108199867856,-116.38872092845,381.989317244526,7.34096627765174,668.352628516962,829.943284036102,668.309981230972,426.115467235803,1135.94469978652,1182.28052949303
670.409869809943,1023.14899983506,490.397459215718,843.354210930721,1353.8697062131,134.091087606228,556.666294552149,948.452275708814,287.984605813652,728.193755800387,1387.1321110043,541.979667836986,797.823849804041,1254.0030349023,826.092702021469,2608.95581046422,820.751968699491,2384.84075625304,1736.90026371213,1008.44969487213,1791.46988096812,585.725685248915,1090.59008437586,1141.73637939025,572.014041935462,851.974039672298,365.526839910011,527.572282519975,620.570329585914,321.025156452882,430.246053445011,430.915992561225,300.150761883096,210.907743422,277.38034081401,308.472696481454,235.669497445948,170.328871409366,177.148754755832,216.366442854966,232.206489755213,203.532042570374,201.976427483465,191.958952190047,158.632691081868,-447.687599261427,-817.779351706059,-495.719066857935,-1019.38476266831,-566.907862200238,-155.78353905785,-609.778584150776,189.177206220895,18.02273631111,-180.811951541125,-297.538832011664,211.851853030347,41.7950057993693,480.284751363717,614.796103707453,594.338546893894,461.814945086625,860.626071830689,1090.11040201699
249.418805819961,753.781528008244,172.437381354642,486.732724949796,1292.15381238188,-2.05503989387419,233.655704257426,877.106370858672,104.028154599329,628.826572956995,1457.46064843077,245.044935189673,629.067098352072,1160.08795917749,-342.966959666567,1394.16993435928,229.473796523133,456.809617827194,446.81156415101,485.783909984884,577.796196401453,348.203222696008,668.699641302793,596.034916917231,242.842365241438,545.699009636142,209.952653614941,297.870649628,368.799054346912,178.921123086441,239.574172879039,249.689631067736,157.868165970025,126.259536397029,142.672477419512,144.868495852294,64.9369677662291,18.5374119897634,82.2041769252355,84.7425153997639,81.0340877063443,57.3931737434232,60.4913087208069,48.9746673156104,18.6471621713151,-413.737241350703,-946.465011607751,-414.049851255275,-1027.24141145894,-594.521879592334,-123.825384444323,-514.144530391944,149.334109244486,20.2334029816891,-122.498476934374,-209.354275600313,86.9024421312246,257.155108791172,263.638144726524,439.13559667503,592.302237611889,625.987435581264,506.883017517246,971.156176756657
-55.0557047362579,636.308672789421,-105.205811382347,304.258807541058,1273.22924070342,-155.973557296903,-53.1919570716277,883.772472558399,-131.803451855251,541.508192873093,1344.79915298147,-151.427255182224,328.466486502736,823.538363222741,-1312.38382304457,10.6051620134543,-272.344952549966,-1055.67879494773,-709.006259864497,-6.4070080075412,-343.23112922507,161.337235381793,258.059549362905,137.096744682527,9.99391997059115,254.931276016933,97.0772143078627,99.3635342936358,122.889980537987,62.1765776122006,61.8925040044204,60.0502374819514,5.0893369935943,56.6016328877299,20.1073920999853,-15.3397781353423,-104.613357021696,-139.875721429379,-0.677769517081495,-35.5887765052122,-74.1596190732275,-101.777725432614,-85.1127231906948,-115.488729534574,-150.916033629837,-321.391093500328,-779.410354588698,-216.959344523263,-665.602298436049,-362.895104449523,48.9998065594509,-87.95784327322,190.362909064307,194.694454033823,156.541672955817,164.079049379848,112.917095952621,650.407139593989,87.4408995930958,393.85233429395,681.619569854568,858.058817298095,181.174826188067,875.585769788166
-183.944462175833,646.516913886697,-225.904113148394,289.097162048457,1231.15503406571,-261.870447322251,-166.698465725753,909.369506457743,-338.114420273206,461.05788739327,1030.6349703067,-544.256503100246,-34.1401527469821,270.677063623931,-1995.54634147397,-1052.36214335748,-608.737183217786,-1820.37028869505,-1461.41715023407,-351.624852113935,-850.934678796186,49.3150048094892,-44.1217004105783,-128.72343907253,-68.4987638382627,90.8536560754955,51.5434214512255,6.43034430523111,24.0469560172647,14.600463400107,-15.3910963437385,-26.9071540262077,-79.6557025117595,32.3234414287488,-31.386254874565,-83.6581302760466,-167.39540511453,-194.474870781668,-33.5223608067532,-84.0168951913431,-136.163813537645,-156.139560905554,-159.276778070142,-187.981672005223,-203.528424572663,-180.281479273842,-298.567579417704,60.233512516863,-92.8340973910673,117.762137017771,323.011591905779,540.829499918022,320.021992800642,479.312565265686,632.962944792741,776.102744617543,312.160760023343,1179.71805167023,-8.65034488792883,516.583349365678,891.184131193896,1154.95043378683,-41.1284991637938,893.55920044291
-241.15540195705,642.449815856492,-193.163540570164,270.385111012068,1094.48862183547,-213.195575161734,-108.543365160179,862.12170820081,-381.231128572106,380.74062217862,652.121224991075,-755.820642495431,-287.690705994082,-226.635471249324,-2368.41932354951,-1601.89531202304,-842.894961503369,-1985.09551179654,-1758.45115848508,-566.815491963551,-1042.8892146632,-28.4952291556605,-231.8108855722,-212.248552437227,-51.6029133428985,48.469113220745,51.1650417404216,3.64670486161781,64.2842439677072,31.1051535368847,8.8641644443994,1.12834551663043,-72.5666280212015,50.3161298714533,-9.80932761450668,-55.6434152711309,-110.375399931227,-129.715462453876,-17.3202355136973,-59.1137321891287,-100.686971148092,-99.3962243658697,-148.127064108958,-148.363785087198,-126.500733864477,-56.5430635143028,164.190703759795,303.642114809105,330.04806153557,574.015086584417,553.094748405785,1014.54432575756,454.049016946703,721.21130302853,1018.47859380468,1297.72753971916,565.608763155309,1545.30984749824,-45.4510883866301,695.705332144479,1069.79492965482,1344.70713149119,-160.258095059397,917.271652090328
-330.289177444205,510.722738919665,-122.058395287421,164.158060370726,788.124768754468,-16.8127018914908,4.99402595310499,677.308693362472,-220.478360121918,307.958895340431,308.323736462047,-667.975228275166,-326.602083551582,-447.639055470499,-2378.06492593647,-1709.54025986577,-1000.38906729883,-1809.253915675,-1646.57654514084,-674.622795200524,-989.511088551776,-93.1220418009018,-334.414925138233,-159.397739876402,-29.365159474832,34.3792401452867,59.662070991569,10.8917506839236,96.0045541559075,54.4172002106987,38.367943325485,25.0936130716091,-62.6635981481193,74.9432076447999,19.2789883329188,-23.7738514238733,-60.0730306624363,-80.304983031418,7.27206906239774,-28.0587365669823,-68.1035212873582,-66.2384992676909,-118.333744752332,-108.49780071049,-79.6439621569494,-26.4417040470262,265.316359483386,366.265995615394,389.378929076027,682.5928016019,592.084736413018,1024.16385701839,470.429052195444,759.869910011455,1001.78366635661,1316.86724854506,679.442065550805,1432.25053435091,-105.876726163559,735.622885290531,997.849530351629,1171.84152905366,-252.979181649388,724.291603958412
-454.976283664913,238.016085246661,-122.605717020653,-19.1889474429604,286.118378408475,167.824407539389,31.2877568791077,312.801620970163,-21.4197118417049,171.059619532138,-92.495980272691,-400.455533668335,-292.944475859552,-543.327011104101,-2085.62056614638,-1633.52839583315,-1051.4555093218,-1527.9450332313,-1334.93173430544,-678.12967328187,-816.912396411075,-126.26086241921,-404.35532751657,-77.908146563988,-45.4868549411166,-52.8402483239128,57.6882458344847,-41.6628180558314,-1.874200220992,29.9009258213632,-17.3754286892725,-62.1341259168493,-147.71626702204,69.6605830577245,-8.74844394814412,-69.7914899623305,-128.379785558835,-159.802479339995,-1.22471862238676,-58.8092164249367,-123.238738474413,-153.578369675145,-148.447708319638,-171.217548903791,-176.040746263701,-83.1958382059491,89.7191683393953,260.651291749475,250.622060683511,494.638020793102,477.864362002651,695.862431532106,370.392852075705,610.885059456142,670.515574019508,896.693485813837,596.736811324799,976.255879808766,-229.77134813729,578.229115942166,697.978240371634,701.498424735984,-378.558618202021,312.51158353323
-557.158420175378,-71.8938907067061,-202.56939258077,-231.134406464167,-244.765181792527,199.613208502923,-75.5610472016551,-157.693966594429,27.1417693606087,-100.364671793104,-606.630029096186,-214.236888120898,-395.23907026149,-794.325015822002,-1665.32988162791,-1557.19835458205,-978.56425694871,-1279.58934022568,-1067.11953602449,-599.118390372324,-687.915991729462,-130.810351332568,-484.425622723449,-89.144705035755,-97.9879093804462,-238.575096320506,44.2249202646878,-156.357446621188,-195.878768542898,-37.672628689923,-145.544142645663,-226.258537099656,-302.883374042437,31.2748056046745,-87.4548850620725,-177.645816462074,-272.735226471416,-315.297176026519,-45.0731622382822,-142.480808236739,-240.053008267493,-305.311508511277,-238.733172260801,-302.21563501462,-342.197932446142,-138.563641039558,-53.733473649511,159.899144693384,170.629325755437,322.746122971667,401.737827406912,419.133107038216,308.073588270835,457.452921313384,385.5953056295,514.602798955097,465.147373432547,612.887574031599,-337.837189754289,357.333077229705,412.113212470799,319.623178090663,-500.541118647281,-66.1939409672208
-636.224015801393,-328.73769479892,-337.895266771054,-439.181448989299,-621.571555376721,78.1612989598156,-275.15179303706,-591.099413293076,-93.0369687242341,-463.128899956153,-1092.50165316025,-256.387707524548,-631.752106563676,-1186.65458712687,-1271.77696263608,-1447.25119497707,-831.044303918017,-1084.83806490333,-906.890662392982,-513.776176386511,-644.757318624548,-175.031528785014,-582.290814618382,-218.634014740719,-201.164993516782,-460.159342764813,4.44485554837365,-289.49395599073,-368.249606684842,-113.568652832565,-272.702146819001,-361.427566450316,-424.205772507454,-18.9852576297473,-164.960382547843,-276.223742521587,-380.162913906246,-422.020683542609,-97.2954385670918,-216.110949901724,-331.202601686168,-409.023470399126,-317.561225655262,-393.439421489812,-444.148965517095,-97.2010315265731,-15.1277527760018,195.077751633822,208.201042414592,319.332359866728,458.490726189774,366.52642195376,377.015334547655,417.525344099384,311.126222095952,417.19985676914,422.369968535217,513.171366058225,-339.750653082546,200.492389787564,284.062495436276,241.00556010717,-551.675838806672,-241.267923216615
-741.477483570485,-578.122716544118,-521.403676363611,-669.228966041952,-907.135214863764,-110.584349435622,-521.608214979537,-949.416458118821,-290.081130529553,-819.756248456597,-1395.12092719478,-468.146510412188,-843.783483901167,-1461.95467930389,-1007.21231991027,-1269.32256805263,-707.102320601513,-973.122050120259,-824.834622950338,-515.602138446714,-659.829254390419,-327.315775820746,-679.589088070119,-413.106150785877,-382.535868120214,-624.861063612673,-94.0681771658176,-404.308648994708,-459.230486431875,-187.297374605124,-355.012348951382,-419.142963297138,-455.011336092702,-68.4309353865427,-215.675151630753,-322.552648631093,-407.202557885655,-431.681345241589,-135.865198742219,-245.43501419879,-352.218352105363,-418.823729948258,-330.47358722802,-397.175809929407,-438.693149282323,45.4770046661858,149.903664272381,318.743936322926,290.810877700201,393.47229492516,524.353290928871,416.974138700633,451.584673173517,413.0260649235,318.531605738572,427.848519236672,400.678134634796,482.814695069396,-281.82180694631,73.9703896474682,219.654527024942,287.335064463689,-533.528734350356,-306.510797647342
-841.458015337583,-882.693997952448,-682.712346588019,-916.099602701489,-1219.90908939373,-279.95417854521,-735.184789610379,-1244.03767335055,-464.173417029391,-1071.04559136139,-1488.98373127671,-661.591296985324,-916.978583861097,-1461.07585579938,-899.4455732344,-1113.21781696259,-642.645368516882,-1002.19568311043,-862.069222619806,-598.265323414694,-760.86590348988,-536.435336234101,-739.653238207424,-628.000086318024,-580.222060874919,-679.892534761672,-235.440437269295,-469.213055002878,-481.70719615806,-251.329672314755,-382.4185463137,-413.482089624549,-410.804404397771,-110.717642675244,-239.963901482993,-314.41385236423,-370.681462499012,-369.41216934857,-149.902473730195,-236.477891054992,-313.857031155701,-353.262529872049,-282.218999181981,-336.234572635301,-357.351400954648,165.178511507292,305.158069367239,366.066264688922,342.336290238749,411.043030823041,408.601940440476,429.330122243501,328.05067677432,277.117692586649,243.729947745861,348.967196379709,220.834497636362,333.504584689124,-289.043689645553,-133.406479441943,49.1823638480387,222.238538210937,-505.023138924579,-418.652336361258
-853.098989277156,-1165.18118804673,-736.916922222764,-1071.99794254096,-1451.94520096367,-393.756773025475,-809.589762057479,-1381.96017916511,-524.243082389538,-1115.57029199769,-1409.92621375055,-652.7555289734,-819.701585295862,-1239.84779098885,-822.24736714585,-987.724742231481,-553.156440329988,-1088.00220539479,-1009.45496748111,-626.136314871707,-930.939807813802,-630.172817048824,-724.591462992878,-819.070661682391,-634.984423438396,-651.038134131153,-318.765832732024,-453.015989151026,-461.145801750546,-264.113908950832,-350.613049565388,-369.106044039086,-336.394021810349,-122.586390011687,-224.10811096056,-266.618284041756,-291.691000654567,-275.923269666821,-130.954739370491,-195.498371824463,-239.77885183113,-255.457344689737,-204.720186164696,-246.16857198178,-250.307447695697,126.729615985087,323.408135493912,228.719401245443,280.614201809089,297.779057657141,70.3822202233457,344.646682293032,-24.6903869006621,-68.6123933072623,19.8817553490571,183.612504381049,-165.258483667264,58.6619900876073,-383.80756988028,-453.679016402658,-290.92914488439,42.8766247933546,-510.153250715178,-580.693682968893
-758.855789915481,-1263.37349590092,-697.378525993998,-1027.80896513726,-1425.07060274915,-474.971191934825,-725.034934322244,-1244.7443053586,-442.49204935073,-929.586171982919,-1189.23116525237,-421.240174301789,-574.299451062297,-915.376341868823,-586.261234340503,-747.186497098379,-352.931001690261,-1030.539004663,-1069.38419380673,-478.85779702849,-998.202704015983,-488.992865557679,-619.486213748317,-894.288058025084,-464.925668740999,-596.54792928531,-257.940209370024,-360.049110191352,-417.851919960079,-194.637633235187,-272.001000012429,-309.523904376986,-270.908368412464,-82.6950296544562,-158.546188337659,-200.473323980042,-200.434819291866,-190.018023113995,-78.1740600705372,-126.439679463556,-157.013557232297,-171.838782035423,-122.754818243289,-157.791157995512,-166.115165700174,-97.8133380735145,154.334560978242,-54.7685716082373,53.0335290815951,47.4023962852615,-346.391153109259,119.328121650353,-439.17569054419,-544.137453052328,-348.176577531745,-26.9545342136091,-607.523529185102,-305.86263315119,-461.545047346197,-823.735509354151,-760.782582399894,-157.778287703538,-533.905877970618,-687.238968476228
-548.407290832495,-1081.05247900085,-583.764456949193,-773.763701698834,-1190.47400151492,-527.130180682496,-561.874027429566,-868.5294363032,-297.098840127721,-622.374678545167,-861.372590362758,-146.402216549811,-270.830699018395,-536.323088448786,-204.365809970213,-325.323853833237,-91.132526620368,-855.509052910905,-839.448821760124,-202.741830050715,-819.237777912994,-197.272254995019,-435.324169629821,-772.25522828003,-180.994624839455,-516.237128082483,-100.351180110507,-230.388683126104,-364.123154984455,-80.918626246083,-180.800317404673,-254.268627986929,-223.013592596435,-13.1857385746263,-72.7834267366336,-134.267994799342,-131.450200125042,-132.009723149902,-11.445132463759,-50.890712589969,-90.1907645829128,-119.103666698413,-49.8121989011047,-88.7916146539753,-117.297437814387,-440.218053353396,-117.895739236121,-354.412225393717,-251.311642567572,-247.927789246701,-674.582453779305,-216.054926771042,-751.466185968062,-993.404429862458,-761.297219840307,-298.976226602222,-948.793422737878,-745.530589981462,-436.685025413461,-1148.16680723989,-1276.58142211135,-401.505161747816,-499.702265996775,-667.5636900974
-171.00105253744,-653.609298707248,-338.787631530204,-369.070910915606,-928.860560878472,-476.319847215985,-386.897484453446,-430.855541716261,-176.281758113069,-333.264110603966,-483.865494847645,-0.178380977545157,-25.5337270878279,-135.45847117534,93.7966304026143,144.949640124201,104.730780353303,-856.940543282969,-374.303458762681,25.6862397708923,-504.901230695838,41.0952647114111,-216.494709417919,-513.25934402417,25.36490918883,-372.173517372163,19.3556529427916,-110.302370820063,-304.310382017903,-2.42759803765596,-111.909023184468,-211.371070344732,-184.031375244368,27.6971637545591,-17.9234644210771,-85.6640069420455,-98.1584403278984,-102.609649270965,26.4457656932626,-7.3776319558695,-50.0815399690622,-88.0175066426033,-4.52934253959416,-44.2340595456509,-84.6448620607038,-769.854694957465,-333.561516887237,-558.324000303185,-449.300240507863,-464.28569811449,-880.34656786294,-511.01612479978,-919.243154964491,-1287.04559624816,-1033.65648714314,-599.371960342015,-1162.08460584822,-1155.47569358273,-325.980343472211,-1285.05573613464,-1647.08066025708,-733.814654712644,-324.465980698266,-527.934551848404
339.255984247909,-107.877722053108,56.7589412457397,118.58508786781,-631.195447361922,-248.1651342103,-172.607218519113,-67.2927603357325,-59.1352118095193,-101.264313910885,-145.32992716816,61.2148155142689,119.617535735243,180.583851393927,222.421192894562,468.206643985947,201.401492284895,-1025.22138413182,60.2825707578027,110.700380685041,-285.330818032183,128.832474654052,-27.1219951971493,-304.539211588638,75.2633735248412,-182.867801440959,36.1262977148254,-34.3196937784067,-244.559492068531,4.52824872924986,-78.049684010355,-178.946957335773,-155.645259949101,9.28297498615256,-16.7983022049102,-69.7655912327284,-89.6671873104953,-98.9088787748501,8.23977265869076,-17.3082221520441,-40.2668831468695,-76.6669602325684,-4.0727304717387,-32.2862067494157,-63.4627999251698,-947.349960502067,-424.534020001914,-651.746045871602,-478.203330124827,-578.69623378298,-1002.47868589737,-644.522405678592,-939.090867272677,-1319.79237517348,-1031.95207045524,-788.209954300623,-1203.82294276309,-1302.72106654365,-182.37089704656,-1082.38729983947,-1581.73048830058,-993.902310485473,-11.0284886565117,-293.49531006619
808.436869676556,396.036179604285,498.826262807477,587.210865254447,-188.357238807714,119.806330652437,134.417756440274,199.785898881114,126.131630855415,114.058391710703,54.2099461802084,189.411949096517,213.74393739869,300.797218482189,401.093439139752,517.54776535327,302.6074062352,-835.189058610221,280.877217989757,151.579422888313,-193.925762405592,156.154355103756,118.670357103692,-228.129976509229,69.1844601886179,6.82363341031373,8.65013822657428,12.0210978947531,-168.530075159832,-12.1359386585924,-48.280404177878,-133.760167819689,-129.532886860586,-29.0317695465103,-32.1761024009313,-62.3611976160928,-71.6792966452383,-98.0211868471709,-30.3281016344936,-44.7613111724792,-46.8490858024511,-73.6528117338205,-27.537066188706,-43.5597568596962,-56.2875936658687,-942.735228252371,-492.064459724663,-707.172816594522,-474.925709405002,-677.854621079669,-988.825060963792,-665.557102456733,-798.561541432648,-1065.70925365952,-818.921165088425,-773.363874904893,-965.361074829649,-1069.93513365783,-39.7633757743718,-594.805147377411,-1030.01819849752,-932.461786157862,318.452124941472,-1.85726218098757
1050.6017412378,710.618083888749,814.559295035109,871.363614158814,286.415202669625,470.21627003891,462.822814618958,364.90918864948,352.044873422861,311.058464232842,73.3907175363662,388.707774271767,309.388187714652,251.139716922704,798.827707136379,288.304051582306,490.279996409654,4.69137911514034,375.531104734359,264.23339231308,-50.3725759590638,249.002130735902,254.16418259025,-130.422236736252,152.384721297707,206.394999681423,14.8420051820435,88.700849332765,-24.4908193891884,15.1182837013483,30.711584327497,-33.29912370434,-68.2398714402172,-29.3493840834373,-4.56210420706908,-7.08480624755489,-5.52044492458842,-52.9412109438619,-28.6190569850053,-25.8424127107392,-26.5619296513186,-40.8787467608919,-26.957306639484,-36.1071481464595,-39.2941695680535,-861.039835590745,-689.029947027735,-773.068485839524,-589.572337380795,-853.798243094918,-771.89650299327,-720.600324324367,-538.226255915446,-688.805428250107,-593.773018013051,-676.123949487657,-521.434793642546,-694.102201311229,61.5095940877372,-118.625592538755,-373.553014001847,-628.941088707346,511.077641281539,226.926874622131
1038.88206826023,807.129105252163,891.91516236595,890.656946927259,583.65520031207,644.038218631343,653.160594280524,435.579598014909,516.182576446207,434.707067966653,29.2691743627726,530.616493792912,419.757716948526,199.153985303552,1248.43895801976,-30.1915084753548,681.207224110217,1076.01936085739,584.234458340311,380.809539218573,274.986832696491,397.449592495625,360.334864297314,164.789962387499,325.171169552791,427.101221422255,62.1589906994981,209.160446257142,200.803994387139,85.5049777500414,159.613238652856,128.213139106558,48.8731653417306,4.74472792679279,69.9537098600993,103.381891401288,104.659370256659,53.6394225377699,14.2693469706802,46.3231142935057,46.2585987445478,42.3424871037389,15.8096445775201,16.6035083728514,16.3745400706222,-756.410946739701,-975.586075735321,-731.112068064971,-719.704752858099,-1079.12628550281,-411.262592655259,-836.873788122422,-203.296244864624,-359.146332507836,-427.852629898511,-646.252135675974,-88.1547248084353,-465.290974410594,111.124013540909,158.848171334742,40.0791524995101,-410.999691518142,536.531463670996,303.155735289828
938.378994857919,820.268221496545,796.37119357459,803.670579268059,725.559590151997,615.697037001323,671.901179423114,523.244361303975,575.069998915302,486.887496748853,163.723382861473,553.672605151549,539.558262552444,309.086747226836,1448.54071499561,-83.0379218752182,701.56853352373,1823.95723892889,976.357608669616,361.767690926426,699.113865328329,472.428404006361,374.17747820969,587.626053455607,449.996757552448,597.742124491173,109.049883572413,300.84913411621,405.460991825724,135.652680094979,257.45260875473,270.896591488902,167.14070479155,15.935286782068,123.598483969632,190.890944620179,191.272551504669,160.322170960959,35.2160402914189,99.616222247684,119.224205751855,127.926105608995,61.0964168795636,73.3595590704596,83.8015123530985,-499.554147703972,-1030.95906104626,-359.259309498546,-552.167947774986,-1179.38699158346,46.4091400445576,-852.939778363655,247.319721819822,-5.39240009299966,-187.191717822753,-570.768228982699,314.360845436923,-276.139553989898,182.910348604451,350.263871409465,310.839632855198,-291.551275956529,517.517643396392,356.665502531573
909.395951042015,868.742642588647,694.254713169244,821.483093191521,861.171023670025,491.574403573371,619.970989853716,735.114873874536,531.256703889794,519.797347230743,566.635710688382,480.099447106622,618.175677838113,575.491579093855,1268.53940796508,370.263765061265,504.166393514274,2115.86092446157,1301.32147630641,253.246880042016,1019.67508181392,412.206217264071,312.550081297522,884.370334053962,459.805621627022,623.483942439587,124.23615808686,299.45595778436,448.938037202184,120.881331734409,245.591280666435,293.713885311812,194.776860250414,-23.832292639444,95.3853670932201,172.76317224972,179.011802122615,171.734443540436,-7.83992357386804,67.7028888067471,105.441933273484,129.241680790791,45.0032609391068,58.3999027623985,83.9909533465654,3.82418579925732,-570.170099258845,324.312880955987,22.4108230311654,-952.878687706756,618.117777000981,-597.606191996988,789.992881180463,470.128307572554,209.500411248263,-226.533075164605,757.74609838439,138.919535720302,323.814737960942,591.43473023536,649.462966007474,25.2999214871203,557.943848758046,573.587352364719
906.709352815769,893.545384757692,623.258258475029,897.471168420384,977.649488099092,359.584588089326,523.188963085707,962.453808274935,357.303116784226,508.790749184374,998.750531574036,305.833375935517,557.363419869075,800.352658600029,771.277047068302,1113.77650521932,237.607076413134,2017.26468989155,1234.81634103238,241.269403104845,1086.82798943018,331.821130249164,273.352388229153,897.521715043313,450.642986453687,503.766971491676,128.988877411913,231.634965235808,318.98818652654,70.9292271874057,144.57431611794,196.017583571933,116.419430535179,-70.0749853896317,12.5110984023846,65.9051350306094,72.0807791326843,71.3567993324859,-76.2166021209971,-26.8027082993303,0.581618937376994,27.5567846252612,-44.8458806400202,-40.4207567175035,-8.84477983900949,553.565194383702,209.359188039475,919.037554640778,670.461651759422,-383.95566710632,1128.52698999633,-87.2199134275747,1153.10237157079,879.91292929088,614.13848897905,347.589360167063,1056.00921421178,677.010782937244,412.524301159386,783.388072814439,955.431984014966,566.867086875164,589.489434288296,888.612433520364
