41.9754375552711,44.3678200066078,40.7429981106431,42.8453948103026,45.4552665753972,38.2056227834678,43.0628841240605,45.4552665753972,41.6129553656746,42.192926869029,44.2228271307692,37.8431405938713,42.2654233069483,43.0628841240605,37.770644155952,39.5105586660151,34.1458222599874,38.8580907247415,40.5255087968852,37.0456797767591,38.6406014109836,37.9156370317906,38.0606299076292,40.3805159210466,45.3827701374779,38.4231120972257,52.3424281777301,38.495608535145,31.82593624657,51.9799459881336,13.7743232046658,18.5590881073392,15.296748400971,49.8775492884741,28.8535822918789,-5.72721859562421,-8.26459392279949,-14.6442804596973,68.0741552062168,2.24738957549811,-3.18984326844893,-0.362482189596469,13.6293303288272,12.0344086946028,15.0067626492938,44.657805758285,41.8304446794325,47.9201454646532,46.7602024579445,44.2228271307692,50.602513667667,47.0501882096217,48.9350955955233,49.5875635367969,49.0800884713619,48.862599157604,47.2676775233795,47.3401739612988,44.657805758285,47.7751525888146,48.1376347784111,46.0352380787515,44.2953235686885,47.4851668371374
200.042450879486,210.234308027539,194.484539581741,202.937938763863,214.81424568544,182.154765787135,204.839877851145,214.669252809602,198.032495407391,199.986986142948,208.67636288434,180.362299628797,199.606015707839,203.244956216921,177.988405422973,186.461749394739,160.716211780869,183.148314584228,190.552700232718,174.18598379254,182.478814941574,179.328861252414,180.16184201642,189.067251527439,215.920180499743,181.301840233484,245.46377011165,185.995620452725,146.446065863823,252.660862255305,73.7684361745386,84.2201384757013,59.3158740624272,232.753025881935,130.239917456733,-13.038716188349,-35.3005019778985,-85.2910001713108,309.598472479513,16.8260094897343,-12.3083724608298,1.17988779635331,52.781445668969,67.0350067128353,63.5221240058781,219.584891974996,191.959826323551,230.424847431928,218.758747103449,203.094137164555,242.935134049266,219.48225493851,235.603244838696,236.959275825386,231.43397138627,228.29959285436,226.893923307659,223.613095355778,214.727630634404,228.141937909536,228.556971747407,216.841232858917,212.717675162308,224.228586806026
386.969995374575,401.641601819966,376.985907664641,388.603640128529,408.132832864637,355.419938148311,395.290669068611,409.764730989887,382.875440922057,383.789216321044,396.121757981227,351.994883338446,382.096433484904,387.432816547092,342.428307247388,358.133386934715,310.838726017984,351.671489844729,362.696948551957,334.691208671247,351.484825895345,348.656083763939,349.068570089697,357.666091533141,422.617595633203,351.13759391287,467.118163750905,376.641733993119,273.305823692223,518.382766702019,181.269917116329,157.976230385777,78.2053296330243,438.422178554487,239.616723985869,35.1157360011768,-43.5819122874823,-191.867912093832,545.534349877278,73.6143208736181,-4.51952275902168,21.5531625854611,72.7577270131871,154.681632476317,96.9792725294871,442.989733067833,344.400995783085,447.253739680116,405.718979348416,364.196991442836,470.413539862689,404.971888243616,459.152103596192,455.673696254646,434.959050525145,422.206635221882,440.267335823315,421.47995907954,419.652153062549,439.236410093491,435.400615586571,406.925723318452,413.382705472452,423.905313965657
393.293302294789,397.168234792057,384.71142685616,388.395852816748,398.365384530164,374.539650534435,402.573401538961,408.416252858621,393.140178192533,387.269210684422,388.888221938062,372.398297243974,388.379144053286,386.973790724336,359.314010263708,370.522506598143,335.901692546399,366.803790419953,367.348549720585,354.392629404524,368.09720081164,377.640562439794,372.136578599975,360.996206294025,459.464718184666,378.046324983649,480.581168919198,440.562679089165,283.379230951315,620.609194505555,290.694684602545,181.268266986088,41.7005660791159,440.427540191945,258.430186207666,187.037875262737,34.8823627767045,-173.59831645603,444.186267324502,204.258892598256,62.996532095484,86.8728404167747,55.3722345876997,186.30822197406,59.8975825635598,469.11849812626,295.293966147696,441.616560160192,369.589735074296,309.173656536367,462.310023092011,365.142727011675,458.875561457515,445.020997313739,407.275983269111,382.228814424687,439.124132299977,396.717006922135,428.036729095109,433.386261357787,420.350645342268,380.515879266164,416.113857911954,405.494049574091
250.163904632266,240.194632206667,247.714684598297,242.853690957987,234.84986326542,265.830469846051,264.852914525291,256.50111264914,266.516096613043,251.813000320408,238.896891796544,270.496936674666,265.320638363496,250.036222311669,271.965307206188,268.343805523973,277.036433405049,276.73419092838,257.696532143272,281.987040379653,277.506449300843,309.34690830326,293.52152496512,259.827444655894,370.953328584126,309.377838024695,359.370181214667,397.134798603837,243.844432798287,564.545996054028,371.327379126356,208.881101040704,65.6353440993131,317.056261835589,266.867949958531,363.705948741263,181.392794146846,63.2658795237454,147.987069310431,364.904705405438,194.5041105539,183.444839650936,114.516295410557,139.108232690924,34.5942268919099,281.676886799795,132.915803963318,235.844531721686,176.774240426976,128.203452176626,240.168289576131,170.453886905328,249.791601739026,237.902462709208,205.187023927312,179.676706385069,247.532822389482,203.305460524154,256.57709158035,244.718271593398,228.136340375868,194.051914535446,247.345550170994,221.00363493678
164.833643333319,159.428904119828,165.608115915406,166.867838094698,158.404375924623,198.471597688034,191.925846911361,181.798691062144,201.97944184768,185.689971331111,175.686753578146,214.999828560166,211.102949151364,190.673667573891,241.788461524066,230.599194968874,265.893138037267,252.637785540958,227.679365587005,271.067389565763,251.58519755837,297.354693958992,277.007109157104,244.767798211786,345.242747696285,305.700641096243,334.301717431239,382.020042206331,287.048329770798,506.916296115191,419.479155783039,300.026989086222,216.118931546413,303.793709250391,361.675208306801,453.613584999694,305.312745727,340.729522668764,57.9212600216395,459.975317422387,349.110235915512,247.860600041825,324.533581344988,155.234611238094,108.699025966223,122.512318260409,118.522916210828,104.859957453704,108.645486643287,97.6863424124533,83.8538063130095,102.62741819253,89.3972438305793,107.305503737311,110.020491061564,105.67483637401,114.908445262076,115.85135940066,127.306231465448,128.30635737211,125.287429967839,112.421623945537,136.696215875242,130.559841771892
155.201920343897,169.626303538706,152.54450527236,172.018936087024,181.381406255861,177.619180135339,189.320839217175,194.70581237907,199.15190764009,193.930802132031,201.24375368581,205.646398868389,214.262481624998,209.342538533837,246.475673535109,240.581831876226,267.048706892878,266.582041396167,257.713024361409,285.772850125471,270.154196310459,308.040092068562,296.125497864092,285.694395621222,355.442987026645,334.807394492853,364.576539267733,379.406297926766,353.253244599554,446.331461278251,430.112422440448,384.800549741933,363.652971331678,368.028784606195,454.759672099624,469.891309606765,375.289718342267,460.515496698343,179.689402874823,492.762775139715,480.409869401208,263.842877772929,563.96358434925,301.539013092461,212.440105381171,106.244000267814,249.692745551816,126.470705249488,192.408639347352,217.568247542606,71.8302336268641,184.186446208362,48.5381280709532,108.762205502422,153.760237239472,182.16076165329,91.8206606516898,164.253488803689,86.8323031270252,123.112239642919,145.872637903211,157.547420094222,115.655792777924,155.577603887778
113.295384540279,142.980882143693,105.69232801354,137.653283630249,160.408947758285,119.508153681735,141.048528290754,164.779494799957,144.793112089328,155.344287916275,174.905060052084,148.569311027557,159.572279722,176.8077169153,186.058743293534,187.690253629241,195.409213569566,207.708757923438,217.634084812935,223.734628303964,223.004997583061,238.372426954145,241.18296207259,250.963548948063,283.460749649037,285.64966970577,309.713445800278,312.135083844553,329.038485222395,336.280534831462,395.654612092038,381.36923881769,394.726751203704,354.007277444873,452.876929522945,458.118549985333,402.128127478187,472.270727142058,276.19812157578,520.189099108946,522.79953410957,297.455553427849,653.22917223512,369.008630771509,290.833482694762,143.429070677749,319.201224914414,163.437589561254,240.773009663152,279.612208154399,85.4631780896897,229.560510403756,34.6563614324178,110.640931065607,172.987115160499,218.304112026164,69.8001822054886,179.748903762517,47.8542105752279,101.825893871599,141.655237740783,167.158524964336,75.7728084951903,146.099605659645
41.2960093929602,67.8680099608969,32.89752128851,57.4345197560541,77.5727711736604,40.1948047348984,53.1330024196481,78.8107898328629,49.1606704320451,64.8503334749007,85.0246659051724,52.8103956952233,59.6678238429992,82.3453141185444,75.327494273553,82.5491408036922,78.1627649798032,93.5930942806866,107.428318803393,104.366045715982,113.550980737505,112.932795915873,121.093681315992,139.001767630455,149.206767656968,164.653117794768,197.317646595536,189.292623163269,217.134589455512,210.021981660671,299.535696357745,287.846447904713,326.954580456231,250.293017281014,371.111603289045,371.355174982369,350.883798812007,474.135034611829,253.610621464357,475.443674060392,403.110195203808,348.964098864942,514.326355305487,168.390132905702,379.219926459002,150.179452744936,232.23925186889,140.718760298394,175.008976776482,200.291391389351,79.0407673358764,165.96141373831,34.7567335467354,76.7000752187841,118.403246262081,147.133762719172,39.1636420633924,111.177879802032,13.4938707477267,49.310448713443,80.661293189105,102.454879049762,24.4101038096681,77.0389541033925
0.578906132664672,6.5974539399871,-6.37178759277298,-4.64502157008329,3.67596714960866,-8.75960588292305,-11.1438796625773,-1.40381467791073,-18.9406780075178,-13.4079175048717,0.611959284513345,-23.7745211561636,-20.9659881541354,-9.17401857456288,-23.1730460518507,-12.8333265923936,-26.4867419515012,-12.7330815746509,-2.84350304886657,-11.3648327294535,-3.40975544547233,0.729900991005768,-5.16418347845903,10.2560444528513,22.1349764957855,21.51169027388,95.6328612410267,39.7160710901637,63.3277286557622,79.8397955416345,127.180452841463,130.361625687186,183.300022127713,111.714383517246,226.817063170277,164.925793207392,182.806733957107,394.783083332722,133.615138548161,256.676959780128,131.52678793616,284.932006318409,191.323155825647,-146.62696876443,405.064606021829,120.968593535058,71.8325950207703,89.647905640302,65.1649426888284,60.9815207586053,76.8932038298075,61.2749126035062,70.0159925143014,51.4581921768969,49.4427675551303,43.1280794633421,42.7562251318093,29.5413505405509,24.7119750605902,25.1330865496057,27.2784103465621,32.096115565282,18.1215419299137,16.7910871710164
-20.3645180662697,-38.4144169580063,-28.1756641791514,-48.697903885071,-50.3640192830455,-43.0127134721054,-61.4885749445731,-67.6282579912773,-65.5678261468003,-76.0635447488651,-71.7006050170142,-81.6001212566608,-86.0248846578849,-85.9258951906512,-103.815117543012,-99.0378393845093,-115.787998169633,-113.459177647419,-104.807265384263,-117.215957540766,-119.846755081952,-99.7150916799832,-131.883350900248,-122.553564242374,-100.747778083408,-139.284248788975,-18.8463513431386,-135.749243364517,-106.758808518423,-77.8694613324429,-89.4490966770992,-52.9535235290487,-46.4658595787353,-47.1520122017469,30.8655859361965,-89.0347837771785,-70.3007268436774,132.126316834507,-42.1142825591157,-69.7870877011306,-171.56767479496,20.5643505217077,-182.10140592431,-319.682019094892,221.965082744846,63.5217244547039,-46.4097476280558,33.6650169730421,-19.0325916065051,-45.8558588851389,61.6051081801248,-21.6039634929546,88.8611911740632,28.904881332363,-7.01885439401592,-37.8008666755778,45.7457191821789,-29.028306424135,42.7476647831901,15.0086161310906,-10.6987473454413,-24.6151858122343,20.5653459263059,-25.4407983685918
-68.0042782764627,-100.545004554918,-80.3907826327843,-111.888367626219,-116.029402611773,-99.2313654713955,-133.243313957553,-142.929547573237,-132.903918242074,-152.986520199141,-157.14886497078,-150.768023719583,-166.4565585922,-171.69996174517,-190.289423254273,-198.373436413028,-206.121761850872,-223.490324626169,-220.851583443138,-225.509385956909,-242.338291503496,-213.638506530543,-264.04550601227,-257.621057561623,-241.618820854223,-303.70789697967,-170.925198347177,-307.430553179439,-252.432771669348,-242.691412628071,-267.32570152742,-192.663671361937,-323.870625504721,-201.787594007862,-149.71401334798,-266.122691017448,-317.602374756419,-283.751348368201,-194.166266977982,-322.058082508768,-372.694485465158,-340.281483197006,-445.622040325918,-365.650234260762,-139.853241699942,-12.5022148157931,-94.5267345441606,-32.3677232493723,-73.4777150244435,-100.788745872044,6.18823087484487,-79.2071307245507,41.8021730447464,-24.5564844692339,-64.2469468896062,-97.3066868804271,-4.82114789720777,-83.5216937564668,6.89371952076074,-33.5565547002313,-67.5965534110672,-89.7831881081629,-26.9594072791238,-83.5041243394267
-137.414353334803,-175.216954167839,-154.076993035428,-186.047910922758,-189.002707969486,-164.245485703006,-208.284364145577,-218.229941155264,-209.063952019129,-229.977240692745,-237.42455569036,-220.038568200762,-247.178085267563,-253.957985482284,-264.12458166856,-285.6177888739,-273.418629784065,-308.153421210242,-324.269868286851,-309.624639960087,-338.916547378383,-308.24868256764,-359.227211681346,-356.088360495931,-363.046978644212,-411.266597289462,-303.155130291947,-406.960018431795,-324.319951562945,-352.617599929247,-337.381875062419,-237.716423314748,-538.160099973417,-293.798957269196,-237.193818299599,-310.881915192347,-460.713549944784,-704.322455434609,-241.795378892185,-397.393988846948,-420.293016010645,-607.865799388878,-506.490066686362,-447.335965736775,-481.70589483233,-92.2746485861833,-128.62215636007,-110.595236335451,-131.44566365425,-142.48737650806,-78.597307635336,-138.218261083525,-48.6467503677868,-107.412395139381,-131.490741511708,-153.473201132269,-92.6766146696285,-149.412860729252,-75.5680489630706,-115.909914204022,-143.440370555066,-160.308010516128,-106.985395941275,-159.801813708352
-191.044976074401,-233.696973034566,-202.870395367426,-234.989257768351,-240.707955336391,-196.684503299235,-244.493972764478,-265.323517469821,-243.655730895408,-267.147082277431,-279.181539653218,-242.159113085624,-279.528824604415,-294.027455584196,-274.637003023053,-309.736982321881,-265.41421957271,-319.099340119347,-359.83042048518,-320.382049190857,-361.21427206002,-320.207938935252,-369.263077889926,-377.705230083533,-397.742700606678,-414.995726234795,-342.160874029608,-395.283623798929,-311.499123546493,-370.066500831686,-292.578163459511,-206.507826849333,-589.117350855814,-299.808924008004,-218.7871823335,-248.155444350192,-447.221523821145,-934.423712685998,-191.141661462884,-325.2051155689,-337.111066871959,-674.95054933163,-384.614107170659,-541.778638382215,-654.24067870202,-210.779098156495,-207.804171726523,-219.56694465102,-226.041833903354,-215.172595036577,-190.899357745001,-222.797655592201,-155.718125309564,-210.442923043124,-217.999648146498,-226.520251481843,-183.162584576151,-228.936344203235,-163.194735658167,-198.92997058455,-221.214997312851,-229.018018047481,-177.772245009111,-236.239019246153
-217.567417757579,-265.064466719911,-213.51263658943,-249.887827260349,-261.316928014604,-187.323044650491,-236.667825938339,-272.70118823311,-224.60225681717,-256.831745575967,-279.48560888848,-202.23238617059,-248.021092357601,-280.668402794636,-214.528934213581,-260.900132923889,-179.153442397899,-253.806836906663,-315.745646022175,-249.429196404767,-302.275089757429,-242.39274937492,-299.862925930999,-325.017465645024,-330.83063217182,-325.929467333715,-279.907002327845,-297.54086684192,-230.123079645687,-305.190603394476,-165.864769897019,-137.069584518763,-486.123863009193,-246.858548447931,-128.713353095026,-116.835044124389,-296.853243081578,-867.431908831212,-105.624855573491,-178.46044793853,-158.112883865621,-550.658868045251,-154.308679562294,-468.235790865039,-634.514847799896,-410.234560204827,-308.488752486319,-372.993397051732,-342.105355045886,-298.663314623875,-342.854604012129,-315.794983291099,-290.803049534328,-330.833734110349,-318.05976596152,-307.333274690342,-280.417603532437,-307.781231374557,-247.008909824003,-277.159976839689,-293.207360487011,-293.634515218534,-239.690590425178,-298.187017368406
-232.033479510908,-271.853080973479,-213.901906543113,-244.81013014598,-257.111281769684,-170.261664012185,-215.36082714472,-250.758430631973,-191.006331948789,-225.610171064754,-252.859652273955,-147.787019403575,-193.337211892873,-236.931186593336,-139.606186118133,-188.758895415511,-88.012155143935,-165.179067593171,-236.117974900864,-152.943063138111,-211.654475566554,-141.265109725783,-204.169003073675,-238.13767273279,-228.220280494553,-200.99093928357,-166.195038424362,-183.841854712906,-106.138045129418,-201.855175020398,-14.2237257193871,-40.8291772026868,-326.718370889947,-166.803018032477,-13.4945123782939,51.2431767968922,-78.4314763845484,-591.505634253208,-14.9241674830181,-14.7966195506716,77.3807238024855,-291.652486482823,111.195464800943,-180.485787314783,-466.008931097601,-615.50244294716,-340.896055301758,-509.977701893077,-407.104324727461,-314.421572924636,-491.644179253245,-357.30395894441,-435.15867569058,-431.134408343653,-382.5842428953,-340.088323804074,-380.005831611777,-347.687693236321,-332.36985038487,-345.654916888661,-338.784364135564,-325.096093360071,-301.760686512367,-325.177901980158
-247.397764515239,-264.026433665384,-227.948901701593,-235.513015227213,-243.727654136428,-180.505690956362,-210.447638149579,-228.490791601736,-181.93234140489,-204.613468427799,-222.319933894507,-134.59680125419,-167.371374077507,-198.612227394528,-109.134977476019,-152.114072409253,-63.3594955845734,-120.789507192629,-178.826759806223,-104.438319042427,-155.899650143341,-91.0764139920466,-145.206661891606,-171.289114899259,-179.430268269698,-117.616412965074,-78.7620356323714,-132.489415918293,-4.58783315291072,-131.347144839067,78.1011539576803,43.7241729260057,-198.873628069147,-105.357177846015,49.8611569461849,189.202015555208,112.684849522596,-306.054638621639,53.3171056282545,97.5777127753938,275.007357234503,-4.72567218736126,307.982131935964,123.365036539195,-257.898805976199,-697.868627031822,-298.311244524072,-550.662467134153,-391.308170242697,-260.124290943419,-557.498031655597,-332.573327420755,-519.083191238394,-463.873432736335,-378.775508959321,-308.73353657866,-438.513588100094,-336.541486637884,-395.711716348813,-381.77200283768,-342.018503890379,-308.826239212877,-346.98148247001,-314.290505255513
-269.515565278252,-266.805692657501,-254.910967498253,-242.965833298872,-250.091940643444,-220.097732233756,-233.582397143254,-239.287247134828,-208.133876442212,-215.502766634657,-223.845557486182,-172.417023439064,-191.58533179967,-201.949044569208,-140.578707526245,-170.977543042547,-109.982570822503,-149.746300394454,-178.811178170243,-132.827307838504,-168.122314949207,-121.7223360008,-157.097436284338,-166.325597522239,-223.181385680587,-120.024565078047,-119.672868680386,-166.595712882823,0.9570817675172,-158.588956959653,54.9115920413298,31.7249924166839,-158.587601739758,-130.236970853501,-12.3187606170247,194.142294726012,182.986915441583,-163.164603237574,24.9058243702664,81.4349583737906,307.966961853689,145.384549189787,322.27351537214,207.623053337272,-164.043966652176,-645.758235241821,-293.229102947386,-509.928666505745,-364.5839876679,-245.6297604228,-523.394095700226,-311.995626094521,-505.230250152503,-438.164913443779,-352.939878991117,-288.301593073696,-433.227571062343,-319.685470600324,-406.730283755994,-380.038411677067,-328.96368415556,-290.763351835999,-359.400827270775,-302.872881088166
-290.937073065236,-286.888415713029,-278.627626637817,-272.112652667736,-282.802020188626,-262.446273547575,-270.915656106251,-280.862632509544,-253.257644312478,-254.836189059632,-265.63743554231,-231.928682509525,-247.213053610489,-250.306910508513,-212.61908813073,-227.338894301328,-194.431633215052,-224.487674338615,-228.66535978288,-212.398971538503,-228.53989878697,-223.873386971165,-219.568670452257,-218.889389520798,-330.522717005814,-180.084757876217,-356.30656132956,-232.856372026711,-92.5145673074592,-288.099291824162,-63.1806742201156,-126.377597955205,-215.12385648426,-264.320903501446,-190.726202618668,0.364777805097274,120.188765670666,-170.767534098961,-134.170235639231,-79.3805316641016,137.776021739924,86.8544205233257,151.077722105497,55.308928918268,-220.963036036083,-525.703209926737,-362.380336754794,-438.76104340989,-371.62480410299,-311.583200539439,-428.350070135313,-332.544091933924,-414.220799180473,-385.257678918663,-346.882619259318,-321.348029546379,-381.500624720786,-323.631421754164,-361.276614809475,-351.428981594888,-322.057836372318,-302.768671279153,-336.586766322306,-309.836657955739
-277.165303571921,-277.949398145645,-270.164159796134,-278.224367928942,-290.116066693051,-273.766427103728,-281.418613218777,-296.932470952059,-276.595734951737,-277.677826118629,-289.387055252339,-272.422266538241,-282.218207622253,-285.821008413258,-279.073526444063,-277.695837346211,-281.796324970713,-286.883388092737,-276.570223719279,-293.943121501548,-283.692067709704,-353.966451185199,-281.478166795857,-276.058425959221,-435.47171924414,-247.517802286735,-684.434061300765,-295.94367246833,-242.651262475479,-499.2957182083,-242.850752704158,-406.477426423225,-266.111090767258,-452.892646043422,-433.48909279425,-376.023982955196,4.83096185777987,-179.143991585681,-359.993675181837,-326.909350170584,-168.905691444293,-72.4217453157908,-94.894270477324,-152.768300455334,-277.716243314109,-335.265973905629,-379.961510813988,-310.609720444258,-335.48358703697,-341.138220832405,-276.050079002269,-315.405484743357,-262.341745511997,-285.792810663322,-305.261350394594,-322.946740648173,-282.543509625158,-293.806306118165,-262.790148708113,-282.097999531206,-282.841953395129,-288.389053202972,-268.617840192532,-285.132427255114
-196.809208226428,-188.587416638524,-203.898813262879,-206.685951633233,-210.235555982679,-237.575368998099,-229.530905913956,-228.637130084603,-241.99021714505,-230.10766899315,-224.954866791859,-263.8342511723,-250.801138854649,-239.810808082356,-294.089853681976,-271.34020012527,-333.340206649651,-293.585175787504,-261.121818954966,-332.354090088786,-287.048645122445,-439.548772120152,-309.161172682372,-288.35179037519,-489.500144497764,-308.573427094816,-863.291231603596,-393.213599594794,-445.277467167237,-803.621073296648,-507.303103381333,-749.857814624116,-157.859873939202,-621.490526870898,-734.33657421458,-843.594145226957,-136.161919195974,12.6654871479215,-576.99207765256,-589.819034126338,-532.421896744403,-191.567079877687,-320.676764293698,-269.643639796066,-176.587549430011,-32.6652111653408,-228.607849052284,-77.9845938020761,-163.122129527577,-213.539343777552,-47.9517123852766,-170.148266725993,-57.241039998785,-105.525353341581,-153.461928008896,-192.273382188634,-120.499181252148,-162.318138741752,-115.944240074966,-144.323455473089,-159.710096038967,-170.327289046051,-148.520260760079,-169.808171158154
-71.2217678983988,-37.5150367549019,-93.6373359627585,-69.6876273814033,-54.6119988911291,-165.017907806419,-123.680934618453,-86.3495721540501,-154.37715937227,-113.445132716913,-78.5141410601415,-203.588198114713,-157.868366494348,-113.437010621661,-246.163213465248,-195.152958214297,-317.843413014442,-243.005638170382,-168.08889805299,-307.067725925225,-231.45471764032,-430.533782333087,-297.601307926158,-254.136807948535,-495.389846778841,-359.598493715859,-796.582703612902,-515.600508390594,-698.394064634174,-1126.29594435978,-847.180389775267,-1064.26272506371,126.523442472665,-714.913243754279,-1053.97154823048,-1222.72688067022,-365.842632842682,466.260710565426,-745.958024419189,-783.964897471395,-825.08921885255,-219.024200285843,-469.637102789589,-287.517769641765,53.1386932339307,304.834494866465,50.5913550542197,197.52390243494,105.661994240902,43.8485988501808,194.164437688298,71.7008130902368,140.569708383308,111.692348031708,73.5114791375077,39.5885540880605,64.4722375767211,47.6617511272579,37.2836311611458,34.3061651545997,24.5842941096002,33.6990945190037,-8.07338914154544,16.2973745879688
44.2951782458724,101.229828067288,14.003237812748,65.8861416957799,99.4082095742567,-77.0588045842498,-3.33703355581728,60.8523620078339,-47.6329213175893,17.5759739503786,77.4957693730164,-111.860607554569,-43.3414948894379,29.303419485922,-155.393345271082,-83.4151460359835,-234.219672704361,-152.432203410032,-36.2629695968885,-223.571201468653,-133.644385032764,-334.565352234886,-241.557348336806,-185.247191209719,-459.103628494529,-353.955780443854,-614.059209907602,-548.097240081256,-869.712236319337,-1229.85415101978,-1081.40439385691,-1174.11515343108,426.112974235146,-682.284644283887,-1211.3110641312,-1274.73860453866,-592.777754843204,1002.28155776652,-798.619850360881,-793.355952702235,-867.374549282755,-142.69585696903,-472.371400324728,-242.205010849819,274.860856446357,486.293143904843,296.502319146089,367.713716045941,317.162622359135,279.184357692361,325.773540621884,276.367112254764,241.169068862218,258.434129407222,253.395063211673,239.123908003732,189.470605672506,229.766663578989,132.794799539843,168.643307696334,181.367112568318,215.926489774278,97.2628251879571,182.626443707764
114.025761438124,177.53314074381,83.0238531392411,148.275427278545,189.81808235886,2.13053821249077,90.8706296279999,156.042258785202,39.6130017413184,112.989865388935,181.145444287957,-24.2282740129166,52.7734490768527,132.371752585847,-59.3636245232865,19.4239368113857,-122.967905101481,-43.3796758987546,83.7897858127755,-111.508571454485,-14.5392895798093,-204.019305941136,-141.911993086075,-73.3578976180969,-364.15403671378,-246.368475436698,-436.292945051818,-462.753264123116,-745.264941564976,-996.761421974195,-1001.33215778733,-904.675148611705,581.257859535965,-515.685958815351,-1056.06947948415,-927.854926205595,-551.28611967906,1354.7586236814,-664.426253653314,-597.207816969009,-673.026771170173,60.4436105731888,-346.999768265757,-137.235546789717,476.233624632273,453.577223261784,386.444107026217,378.735675299828,377.52080846502,370.959714389025,320.588591198521,351.223256494977,238.050521823676,292.716239546051,315.997043192525,321.249261135131,226.079043468194,307.872570021349,156.399203125026,212.152998036446,251.197895137792,297.054959634921,144.21643929853,259.211741702489
112.88023253324,172.968130328265,85.7084844800617,145.469061957636,187.196712749674,23.420879114122,108.54225516566,163.364249508041,55.0518400190382,131.415119547869,190.554596432431,-0.0432034539924526,77.3475430991124,153.388635601044,-25.7534604561849,57.5741263020856,-69.1734113753035,17.9828133176672,129.332133333657,-45.9286159498377,59.9778190018484,-123.80643110493,-63.3470949904562,34.4178546938507,-248.118639800848,-115.246222793263,-288.492202445661,-420.015263481731,-352.318584649026,-652.769624173283,-696.885375200266,-354.840426661269,572.90957968307,-320.942869673302,-720.527074034904,-455.823532252653,-241.307061672944,1391.08340898922,-426.616713702814,-377.546224958654,-487.006451632072,341.875136270302,-278.576593541679,17.5452810825522,685.008916172122,361.363236194934,321.101808144984,316.936802071026,319.360401550803,311.359491436878,268.264109201443,301.358080377705,200.213398662887,259.92538385521,277.222621261772,286.570681524753,202.348053438414,278.152426763443,134.191223913257,183.083544598255,229.905308246805,269.658077969796,133.130574063101,234.027609744034
23.9824895431556,75.2597644532439,4.5481177333719,44.6229759353086,78.8634615580764,-44.4582333402624,19.9843825014934,63.8700717984864,-27.4579133424189,45.1100256919664,82.0591733478343,-69.9504920784661,-5.20657990727879,61.1843528125537,-93.1395613195529,-11.4245644122813,-120.898086685089,-33.5796899150061,51.0934964287735,-87.0236005582025,12.5546397432281,-143.758004691788,-84.526823506498,30.402039949675,-183.621892885768,-104.09369897113,-195.512402650385,-481.886571763767,-31.2339860171575,-453.491691135759,-438.237809166747,106.359823468789,463.491497966661,-226.671620961769,-468.583810948061,-159.091128993608,2.85220233669691,1095.91246154891,-288.233281344446,-312.020963124173,-390.416240449855,528.150417843128,-383.57367414551,206.631528718437,741.839611792319,312.364227770065,160.312056195693,238.073980298894,192.4585382963,146.779297512489,208.207560488276,159.304523847879,147.183917275776,180.995753627405,159.436781104545,151.072112512568,128.158113399857,155.266827788563,71.8392736862448,98.3927533986373,123.553313546877,146.263466924649,57.968445659557,119.359803667344
-104.841452397744,-76.3234086035891,-112.532246547632,-98.5562557202037,-87.3043564256979,-139.230343566025,-112.461295860087,-91.3237094754414,-141.201493478579,-95.1691329078195,-87.3265420550927,-163.888114008911,-131.295627410159,-91.916154292141,-183.483188878601,-129.926723683754,-195.521839814558,-139.600016596849,-95.1616089815019,-169.610583230606,-110.232001914045,-194.239368998689,-160.161935518193,-82.3633167067,-149.183473371986,-191.909684100656,-156.960887888422,-443.382254351132,16.767373228606,-342.844612064375,-260.159522976685,270.790284302324,289.831473660515,-217.036101774524,-361.010107744155,-6.07378604941212,44.0385789688588,516.812591381057,-312.924310183144,-349.382978856099,-191.795403915904,486.332879416315,-537.649399530758,443.904302323271,521.336589305391,225.526037876852,-33.4956866733288,109.70155629394,20.8684273953804,-59.8642946157411,99.5111869130062,-33.8957759079058,47.1506585040665,45.6088554325501,-11.5003072615264,-44.1116342193248,8.98684712072726,-24.7276160956214,-23.8925057108711,-26.3158741716256,-36.0840734814888,-33.8920576242066,-54.4050203744278,-43.4002798781949
-200.16968406573,-204.894331558326,-190.349817883721,-206.216319595889,-227.553747895977,-182.840901370023,-200.157341401888,-217.578068859987,-203.01123538523,-200.559940979098,-220.475579547549,-199.291583531466,-203.807811160723,-206.384432199103,-202.557183408672,-196.383830476293,-193.10925782255,-188.158388589255,-196.633699765388,-185.824650795113,-183.808922614302,-178.983609945259,-179.02009141073,-172.833114003719,-68.1410979228818,-218.361597473162,-116.96929782464,-182.379585461027,-32.3909835034649,-150.956957835726,-42.8163620256439,252.209167628312,63.9285747816528,-190.692249015894,-271.102464469803,130.66933793153,58.1629777932159,-132.053778183226,-369.598218650503,-357.505768674148,141.569997743336,293.85654836409,-622.476854956184,686.187923332046,191.303956598267,25.9544224613823,-216.047442003981,-79.24247560342,-165.224084397087,-247.743828648288,-68.1069959914854,-223.217926545636,-94.8381540662188,-121.385293355861,-185.671255493441,-229.635962591637,-123.731675390836,-200.088107052106,-125.563078727948,-155.846419844588,-190.916368270296,-204.761605225303,-153.418594095413,-195.251504156406
-261.51337960748,-292.932357770582,-231.742581750249,-275.796533801372,-321.381183883263,-196.953971830039,-247.072135652455,-299.904873427641,-225.562811652318,-259.97842495625,-303.96624130786,-196.858881942611,-227.53554231791,-269.20157114489,-177.97932346639,-211.247697892136,-143.356168632083,-180.413629809875,-233.416215374595,-145.65714107361,-188.681995347534,-113.711729788334,-132.81175932951,-182.444225450692,52.3114996776118,-129.794233118585,-40.8850838912049,124.481806875976,18.4181442787836,107.871310560906,176.910924880513,199.963155022567,-165.298793043967,-122.823194650725,-108.550071781042,218.56183004642,121.625901060238,-517.568062654906,-340.736829596563,-304.482145057678,358.254952700676,132.406362565089,-661.737011537263,785.369282492056,-33.8702480558576,-216.799150408451,-379.655588130165,-277.594536461849,-339.820141021222,-403.770118785439,-248.961190717368,-382.328508015778,-236.328835920006,-278.714668968825,-336.456900404312,-379.662051082671,-246.383853927937,-342.528159847982,-221.410629894418,-269.316995875325,-317.474966700301,-341.804884695889,-232.448543597192,-316.770400691452
-324.304309690679,-370.367421205311,-283.318793417151,-341.959492462349,-397.439150077187,-233.333437177802,-298.558398017334,-368.738121804471,-260.32732525696,-312.509316040704,-378.042716929262,-210.102959392539,-261.852808525416,-326.350996235294,-176.297979414413,-235.255625135129,-119.298278420378,-183.35636847803,-260.866298625471,-121.990941139636,-191.62534180651,-64.5092597411031,-88.6530850412282,-172.012853524786,140.342089386879,-16.3355307699404,50.5826079695089,295.520075725527,118.152447207962,312.311628966403,300.303297375837,147.52384078577,-322.254900275895,-56.8968277447629,95.1049044894433,237.295080281207,139.401373070695,-524.188710133872,-235.242633979388,-205.358454697101,331.724736860991,50.449205653101,-634.097820756771,639.837877499695,-152.643071991367,-388.912496889426,-514.31198329798,-425.18828849328,-479.352111341122,-532.702015949752,-392.909096658417,-507.024568012558,-348.823328584773,-403.040965266362,-461.085761148102,-501.018393286412,-350.731488222911,-456.724861668111,-310.706073272201,-364.898516645447,-421.707922141831,-456.284691964861,-309.495537494488,-415.792893019584
-375.732670029649,-428.087534015695,-333.432583019979,-391.757557874159,-449.388263784478,-272.613148897036,-343.459953671352,-417.263310030785,-298.250172112389,-352.152279326503,-429.057676734899,-230.42557804988,-301.510364556754,-371.370847485059,-187.3568429918,-263.95153685136,-118.093000387602,-201.646544636975,-290.467215047358,-122.828427565981,-208.161628612854,-40.3721022096303,-73.7359433032635,-182.043756043296,157.014367546379,39.3016853514449,124.206663810258,336.125588041886,144.766977143344,409.770862024862,336.879098988071,94.2423645876172,-378.719429585683,-29.5490479438597,250.989642127123,254.286326728907,76.34472986272,-394.804550397094,-122.779516882719,-84.8190073193859,202.474803898407,-52.1658914188345,-477.491188373735,315.086217657285,-253.749705190458,-468.593080630219,-582.512034357198,-500.488149773295,-553.435532191131,-603.137515520023,-475.975042466599,-574.77840151375,-422.695073034937,-477.207920685397,-535.239331265092,-570.483109630404,-420.114613659953,-527.193049579214,-372.802411151919,-427.90936070158,-488.996585981433,-529.184217188121,-369.104304982578,-477.374146271935
-365.774753227957,-416.486840876384,-322.943654007128,-374.428250010396,-430.853467625428,-260.526403963307,-331.311315034336,-400.337397480973,-285.5537395741,-334.20000548208,-403.352156247578,-212.907113922216,-289.178163815496,-354.821120894696,-163.791541943258,-245.109628071761,-97.8420022056093,-190.105081341052,-276.70408932644,-106.118842053956,-197.002170743383,-14.1647421818279,-63.8902734263574,-174.832191109584,121.731236704628,45.1142327140999,161.778070484878,323.104352407273,110.940115019919,419.623620449456,333.792173538706,52.1977949984984,-352.090541679291,-43.0934795950358,323.96350793898,285.667597975594,-12.2898130522359,-362.176868694922,-39.3102569597683,14.8131764451766,107.084232177467,-193.393461091819,-242.388488329781,-13.1718407696583,-319.719710799822,-495.36254229167,-553.167153893277,-506.14390302358,-538.26641105167,-571.545243748491,-487.425760028194,-550.944597920231,-435.958687878455,-476.510594241664,-521.390149176158,-545.591019698032,-424.443474113468,-514.385343161817,-370.965432805172,-422.729410285214,-480.494267851006,-513.008371678332,-366.959450905813,-464.88710149674
-283.744533346561,-328.175511931345,-243.180493996201,-283.232047410695,-335.285781216715,-193.763952767127,-252.257874391802,-308.767039993538,-212.011460549432,-254.43652540546,-304.925905659448,-149.884448087886,-213.389956095122,-271.963275233088,-105.960543512953,-176.737673799093,-57.0191454542203,-138.882621936785,-205.087390175619,-65.2228389022222,-145.755686351944,9.39036161335223,-38.5474937334908,-124.709823795121,61.8993885024899,45.9203593079595,111.455709706565,304.084145051579,89.98601306413,346.694338872639,293.269614274358,21.6584571857074,-265.544931479285,-71.0465433618224,333.336868510177,281.658882368694,-69.1177631947185,-362.977677715852,20.9128626375696,70.9778881717399,59.0069121353231,-251.399496341843,-41.0466975713207,-196.144333106713,-273.961330200458,-495.31469005938,-443.861360985631,-456.808401397554,-448.291001630905,-448.010586194386,-438.086185240716,-443.073952852393,-382.632434108614,-406.090845149114,-428.024698524072,-432.791587805407,-358.674233098693,-416.743718124899,-302.130764263039,-344.687832551233,-389.602425883114,-406.568050450603,-294.672392020772,-375.558101648051
-207.657526345731,-247.082459725071,-177.69952714739,-204.522542445606,-249.353824774551,-143.498651293629,-183.957865412684,-227.182999848622,-155.463622067073,-190.376203040384,-228.839418083669,-108.017487791113,-154.797426180273,-202.703907654349,-83.4424914632145,-135.70455005515,-55.3637571840366,-113.392809431361,-150.706036237669,-65.0533004064614,-116.852774629545,-33.1385997729358,-42.6990738852187,-97.1532933271035,-59.4520715409057,19.4293265852051,-122.128995564602,227.338010569448,53.9478202539002,142.379809059618,174.23071463338,-30.0547307491789,-167.94385343561,-121.336262826774,249.796696797938,182.055294910226,-64.5966163829116,-281.240091330011,20.1105386419497,72.2695583636112,28.9768228079421,-185.999763031257,61.9584382386277,-234.887055435747,-164.2364488601,-513.932480495647,-346.017298866146,-421.340317834858,-370.979766574792,-330.260742122431,-401.205797393934,-344.748263350904,-334.390133978635,-347.234881455348,-344.170615204008,-330.004542138421,-295.341445555235,-323.512883599829,-241.772817586239,-276.530766902598,-301.44844416366,-304.154423225026,-229.158231303646,-291.181604789031
-221.632244215934,-256.410857999789,-203.10859107478,-223.609797812957,-259.585078352252,-176.244603575275,-210.497850824635,-246.449523587039,-192.160342049799,-217.575859433185,-253.298515795553,-156.800164919772,-195.319887556401,-226.741666677285,-157.668287309578,-188.982216989959,-146.973736339035,-184.820429221289,-195.64390206242,-169.036221819241,-184.327888765344,-194.508639187588,-156.57578753601,-168.11002251812,-298.175832104496,-114.366194936976,-506.997397815061,-47.9820199403562,-76.585978032554,-194.878780185574,-71.6892210513777,-116.380274519742,-99.9669639737717,-240.086305442409,23.7642096950075,-56.3022055871703,5.79837023700987,-157.016990210981,-106.802640529983,-2.00104141420295,-21.629031245838,-89.2566751495137,62.5486445098075,-240.828003270681,-123.234997927646,-589.569609289024,-339.551260924734,-466.119606841888,-386.124314958026,-311.456353734857,-442.944902020874,-345.612044850227,-367.021018807036,-375.156908455229,-351.559655154444,-329.092430865326,-317.323363015862,-326.969070662437,-267.381421322829,-303.935677893603,-311.810127186586,-300.668869397199,-250.741940598662,-299.864162244135
-293.530779595587,-319.857102986062,-280.561285526603,-298.81553645083,-327.043572822251,-260.271976106306,-296.999974105041,-326.814205762091,-282.892546616808,-297.355203212672,-327.028200530773,-260.14794388257,-294.692569517552,-308.488668272738,-281.820764851701,-294.69566291779,-284.816444454,-313.254378363071,-303.199952816425,-326.234218516054,-319.782212342161,-397.991993803738,-360.268470086913,-304.371994359221,-568.936479215233,-381.166678077759,-774.39795865829,-533.468031329292,-290.013283984175,-520.146713842132,-442.492709892236,-174.759245996187,-29.5467158030942,-386.559493210372,-275.079710101666,-390.526295568281,101.598684502982,-51.5626662717754,-293.222815693277,-144.468074280943,-117.720612145502,-26.5281941268621,10.2402326449166,-261.849947805581,-161.72161484727,-656.203784066804,-374.732869637295,-534.993947895459,-441.229721743627,-351.637722247353,-508.186470328309,-399.355492105515,-437.20866769135,-439.939629130742,-406.19177584336,-381.052354834976,-387.487923307882,-386.280524678389,-340.979123984507,-380.534672820682,-381.55271061934,-356.759874544575,-323.264673998409,-365.115996561095
-315.849634986592,-332.094398602755,-303.377152379359,-316.01714175238,-339.889215952398,-292.84071851301,-326.264270114061,-346.164906593571,-312.522401883725,-320.59394180412,-336.086426358704,-299.554590322886,-328.902834275807,-335.227325770347,-328.018249943661,-336.13845836476,-339.016080908509,-365.211647981251,-349.675866083242,-390.887624869665,-397.232224171487,-460.902357896434,-496.693469533078,-399.60882512712,-652.975719825361,-677.935047186727,-671.9300564379,-962.765221534766,-506.939651371895,-659.675406492364,-812.050709942909,-144.372244555606,60.6435933234247,-425.221292847424,-469.076579209306,-657.984998569017,113.973005292288,-1.37502379524799,-355.900518405672,-293.382464332108,-222.068403982897,-24.3519300925024,-34.7286589712764,-262.898705464546,-202.033147812912,-633.06262182938,-367.91305546542,-528.792077536019,-436.345200397865,-353.276594579423,-496.74204066364,-401.712373808501,-440.990025612656,-437.365427074756,-404.046090302396,-376.732055572934,-394.148771613785,-390.242310008026,-355.199871881859,-387.187470523683,-389.92574536078,-360.626293478793,-340.553601139908,-374.279053588407
-236.827576125819,-248.785121520808,-218.992864812758,-229.74156248958,-252.203326073617,-213.386730302365,-240.625602654779,-253.591239986014,-221.579080023539,-235.058759137727,-240.668735820086,-205.424148446342,-235.012281482341,-247.865085322309,-223.98717446109,-244.210801159654,-231.190096995921,-263.909376854415,-264.170435986278,-277.076479843806,-322.018096068147,-292.920045537266,-423.00487296337,-371.877575880193,-453.111871419791,-790.768729206841,-284.492368735084,-1015.7315864105,-612.663171258032,-586.220419536802,-927.253245987688,-44.5956557857021,92.632084503335,-302.37560503345,-435.695064704364,-671.852355249866,-1.95073061463634,-70.6673312427879,-221.560674281368,-348.98448633104,-251.557731161533,-90.076570205825,-58.6224977546186,-233.991156403379,-237.856633219451,-542.691783812868,-329.449130706697,-441.596704936334,-364.223694242646,-301.519102179697,-394.136049208413,-333.314770971721,-344.14325443785,-344.064206920693,-318.955712260996,-297.353232043243,-298.489676276304,-307.7389566325,-266.749713793554,-288.420360241246,-296.886162373095,-278.547350604581,-256.763755344803,-283.964553698225
-100.245149221505,-112.951879253081,-77.7959372330651,-91.1608016022221,-110.979355868656,-72.9091351552526,-94.4586083025364,-104.836809723216,-70.1219142372637,-85.5898420897046,-94.5200993774074,-41.350266701971,-72.3286145419386,-92.1499787701059,-42.8229443529908,-70.6149656005649,-34.2144671360222,-76.1638688743555,-95.5691287705684,-63.1284972995375,-128.784757929431,-24.4378145167717,-180.646762252252,-212.053259705748,-140.621519169769,-590.595269164822,64.0187828277638,-695.334866696196,-470.59495018145,-398.048164630339,-652.292030120343,83.6882961364194,12.5788379054997,-111.180038135106,-212.685753429141,-395.59781119909,-93.6876416963907,-236.057265796775,2.138055103536,-239.739791972794,-163.067538866284,-134.029803708101,-57.1949263446052,-185.098070978391,-270.608331128601,-389.414586267068,-259.394248219031,-291.337017909128,-243.577324215937,-210.254218478744,-230.580924011349,-214.396351564793,-183.835733235584,-196.195834370383,-183.97359647337,-175.726838057278,-148.631920759879,-175.313520770075,-125.317503914939,-143.272172977838,-151.789584249795,-148.79297723367,-118.008953119022,-138.574440283754
8.85680145362943,6.86167006130051,22.8865155546516,19.6482009750468,11.9117412067466,16.8148981955054,14.9149387530517,15.9419316645486,29.581348423797,35.8522478090554,24.803398093648,59.1141470240719,45.8535951688689,34.9183568004344,68.6511934709987,62.9226507124113,91.1169282952246,62.3633471455755,45.6070562720123,89.0461047420987,51.3559964199346,135.095633287855,39.5195799658422,-8.91432266411826,55.0382082010844,-241.158209862967,196.754480370436,-317.43565884989,-130.511696534763,-183.211774797374,-206.210508558102,209.32455028416,-114.753624756827,43.5220846577166,41.0771108154778,-22.7605953940181,-31.5978516393918,-352.266813210822,176.434881449182,-22.439488446752,-12.6580906189364,-71.591714523647,-3.50952747004082,-114.230759893679,-246.588284669815,-114.048455162879,-99.8700005303553,-66.8971483873099,-61.7938881174894,-62.0860263889273,-27.5142088892078,-48.5776755280214,-13.4770428158165,-25.5794990482795,-24.9439942385405,-27.9092925116017,-4.70778024205967,-24.7381201803838,-5.39271312358428,-15.2630931181635,-10.0435503892067,-7.56495852787893,-3.33447231490433,-0.639586479995891
51.2339716398125,78.4935867029196,47.1070392336119,70.6998477106279,86.5722267817792,17.0006938177283,52.3496098459703,77.174832940016,45.2356033773512,83.0734455628517,89.9380602397851,53.2326364374493,76.2548621479299,90.4806577241648,64.8300551028169,101.498255956185,82.6817919555337,97.0833802215925,109.165757702984,117.172988799054,138.294296400895,141.640446990458,130.941850104024,132.606568998994,120.022227163604,3.82533960673134,220.283584923607,-79.1360351734578,144.502793400971,34.533137117023,87.1902938854384,280.888696132715,-191.403189276132,153.152064504748,187.559085745123,204.036674106486,64.0119563989,-346.81743473671,254.151368659524,145.753385266413,99.3960095069718,5.30274836259325,95.0197618956359,-30.7310298883131,-194.232357968202,220.046601015242,122.861100439001,173.475737323853,141.508277756585,119.009250520725,159.370692244913,125.104138013369,116.470059518326,127.541357896896,125.938746979088,116.936669414888,98.6221866813402,114.001223185537,59.744626810887,73.5019873872828,98.4164345441222,116.522040331592,51.6217939779353,98.2891800295989
69.445989288453,121.829759720766,52.1537987212791,100.626419216384,138.03216724567,4.5248878971626,69.163307508019,115.20620338508,48.3347316067642,104.217767026104,138.431967990384,32.9123901680807,84.4771700900094,124.493866224797,44.5813350077899,108.762794693036,43.9876494873102,102.214044590048,148.171377688792,110.600551143878,184.199551776314,126.533804784754,178.318809008008,224.782111478616,195.707731923011,151.531131181945,286.582795413403,126.786750824274,256.390438756969,250.746261050251,206.984736304763,285.566128986877,-180.407152883211,263.361297613039,237.451147234411,258.857763772755,52.7796466153807,-298.155100968481,289.038459359326,202.265753212758,152.165886930354,-28.8261974583005,206.949137739129,58.884291186816,-218.500429065124,431.344908075728,303.57009753855,321.09242002941,286.377338393481,267.333972824001,259.79907323412,248.09464364002,175.512578772215,219.481780191246,230.602291893621,225.135491564903,155.22451543829,213.585982359315,87.5492520124291,131.389684045296,170.942691823484,203.051227282308,77.4062571085077,167.422832957924
113.122534281082,168.854179258963,97.0364526034778,153.289465215368,193.459604271619,52.3502758085771,119.103783065716,172.58515888539,101.558279164015,160.324309719559,203.996060731396,81.9481550822281,137.778912412705,189.046912049647,97.2438643985496,160.817966978051,84.3654789153226,161.830699433164,219.033488653729,164.249070587412,261.491264012587,183.025256187938,276.585113406815,334.826120240981,325.131024623071,340.909293675203,387.658207704299,408.630006046708,359.06776268702,437.733463127732,345.025690296451,288.215865349762,-113.599143024921,381.530027204106,302.944636559384,302.154179946179,0.57135333389134,-292.217764160159,355.484912295189,247.278280832052,204.937323737898,-126.366638304881,332.229936212918,129.030740030294,-316.892068503259,445.558589212574,391.254972591064,347.649281140956,345.225590620851,349.305421854871,267.278837992995,305.847199261221,172.79547013335,243.153679467921,276.810147070223,290.496889527649,175.686674374263,267.877995887599,107.133680257539,170.390799474713,217.186275743881,252.063078064603,112.288018903482,220.753123259877
166.103115111045,215.745656322261,164.612978875945,211.199139344427,236.382249389653,134.737607365663,187.392159408328,236.462220607347,182.952315845295,230.90331136645,264.106931215077,170.892058174768,212.694336814485,260.700147038142,189.820796200065,242.416677822164,177.176937092054,252.814118173779,294.149451545964,250.05330667895,343.739737461376,256.040329119618,375.258173514099,434.001983194165,403.20591414747,531.731254635973,430.561849260763,656.376218400779,508.441645899215,546.538916959538,552.70315663625,322.676459147164,-54.2419932674471,458.649170871675,413.814151233371,410.875882871708,-12.2432664904693,-328.25860289335,437.172887216378,355.444001422374,265.501331202643,-192.512739861812,445.829525841619,94.3753527819332,-412.265180986948,339.004046333833,383.88517998486,298.093675329698,328.130146926234,354.224233777277,228.826752384703,304.44182505333,146.245193314502,222.820439330684,270.497325311585,304.914957703204,172.176547064297,276.084956966446,125.643314941305,189.838664433581,232.377746975001,265.673114196556,149.67660607104,246.378732557275
194.987426168378,240.439157246898,208.431862134993,237.333744915708,246.751095792032,193.389226566315,230.729770227964,269.276054560296,238.303424139301,265.874085358931,288.245927898138,230.924261568292,257.394789628053,293.939123882837,245.692975498363,290.54295750953,234.186112978733,299.379343809497,323.641430312022,287.260792655322,369.937537504073,262.512371541269,395.865122294597,453.727733121293,353.163090326853,612.318232702198,387.986014856511,725.93414314218,603.840304898745,548.502739018063,720.523554454451,342.589637776115,-28.7243368799496,456.443082379275,480.1137118694,507.61080871985,-34.816329968983,-349.51499989012,451.927680731857,461.927051254163,273.464749547701,-255.239217680754,479.530595998778,-88.717099226821,-474.96649539639,212.055103857491,295.077926095375,219.381471526996,253.502589507439,287.882608650801,186.885705949458,254.976242667358,133.971433198663,192.844103887786,231.204364794287,265.996230001604,164.244119267719,246.17250789493,142.10987037407,192.881912807288,219.05459640812,248.782527226443,169.433851833663,241.430774934885
215.937705976071,257.624764984414,231.182994501397,250.858702392976,256.055816761973,223.867534029579,251.157877854344,281.836622511917,259.791086865516,279.072947145006,299.272653097831,250.744916447892,277.017844982024,301.556093236021,253.591683083288,294.988294913955,231.47236520378,291.372718931446,321.846442370141,269.152532232516,353.098276926985,209.615642263593,377.984441454854,418.987902080756,235.815216629703,630.204390194619,309.781742969039,655.179685220277,619.365373830297,485.98180953869,787.152298109273,320.570822317361,-12.1635887310341,400.263773442849,455.500688104296,529.389201355267,-98.016749409643,-306.649326406386,389.76569195495,494.231629879693,203.653107424943,-368.528799148338,427.0427734773,-327.879559721326,-436.585518215852,146.831806607563,209.650486226954,176.984815304093,195.137378797259,228.456483606538,183.502318872368,221.982684319244,163.062946474495,200.937804698188,216.290823503478,236.507912970261,187.446819506349,232.100779083123,174.119499290959,211.768151900104,223.850124514884,244.48635934235,191.656336629109,248.794225567769
259.80450404927,304.020455425208,264.816635766701,294.618942734177,306.391655253281,247.32096585882,278.817273926184,317.082193143361,273.530573240478,310.165078673414,336.148786963589,252.794697625287,297.406451642459,326.430086671162,240.220245400405,289.671549262235,193.434177681171,269.718173177118,327.235154474643,236.923731083791,343.109361267957,142.114053619534,390.951420108833,396.761639673355,162.888407289454,674.923140530984,249.076603188544,575.824065515681,600.674843185772,452.584855577595,779.473311240866,279.531156848053,-10.5516743594076,346.033485839844,414.221650673699,498.768541383618,-167.285614987043,-228.417332985457,324.664644244918,478.141779576053,89.2231136734879,-501.672345297334,348.104736139867,-480.000716971856,-214.671271519097,219.621489565424,251.370606855148,251.763686753526,258.015138581389,286.506037317304,268.531106820333,291.675733242844,250.562833408958,285.958112012002,289.796968843214,303.056045841983,267.14321306497,301.657783115985,241.214222084363,282.365964465182,297.073975356501,310.253317387645,252.639558284646,314.604292939405
324.21532238771,380.295273881564,315.875732352524,363.463537921958,386.706114092513,271.673363203351,319.593795964368,380.167587167725,294.176524926385,354.933894653918,393.592384671198,251.655961440159,319.740678381984,372.434075993101,221.816735795901,292.862727155737,147.77550070598,254.733478578854,342.493457678127,212.775015495691,347.365481585807,95.261632596994,413.518620922239,391.146121616284,190.326000517285,693.863422384098,224.553376776905,525.640933835926,551.550703494665,497.914482860897,731.96799028691,233.695344226721,-73.1627930706632,304.378238657385,436.451454357532,456.179902869687,-250.800267501234,-226.227314533078,297.405443120515,464.258726401681,-21.0491199490735,-614.850671826553,260.750085155024,-492.318873836361,43.5277366932576,430.311381283947,420.504157930673,439.982840737448,436.31445213978,452.946527946044,436.709170205729,450.5204036543,389.763989602567,429.523585775627,437.852597711903,453.082111958003,388.04181941046,442.930440347906,339.29082337768,395.842546186723,422.656649601695,434.980851633117,348.582812180831,424.196268864839
386.885928224486,447.104077447314,369.87069709417,417.325211387893,450.071134156798,309.358713364451,364.143762781955,435.637816888723,328.184428672399,392.092029788308,438.640030951906,269.882972292829,344.936252616659,411.938800074277,227.444283374173,311.396805371559,143.121041849756,257.624262315235,358.503849775675,219.752599891534,351.73458392091,126.389459038592,401.668008888901,376.813230850032,297.404271378557,601.820771398726,219.964448873754,475.409736691992,467.164825017881,571.822667040958,664.730200190508,178.756728529414,-200.490357434506,229.887488427593,504.265130008833,411.471349713676,-380.325552758835,-388.373653047281,274.788332421374,438.820277892818,-105.243558420731,-734.364129165033,134.250070516209,-458.910040029003,54.2832280438967,636.325020041592,552.606312720015,608.35532080618,576.39547061412,569.792827305085,590.241426929668,568.809063311188,528.848818401126,550.036752157503,554.888058238548,563.265297683871,500.431586762926,553.913986357181,440.561712709313,498.021953058353,524.044212799258,530.299028444002,439.887991067062,509.967238156363
428.347303226729,471.211209822147,412.608464022613,435.469697780875,468.265864388114,365.605596606455,405.937545083194,457.469264798103,374.026404972877,416.425397416126,452.355011526741,321.853977747582,375.335987290265,428.327095533153,278.549266823103,346.972441169955,211.941478791278,292.832733433669,373.479810975449,273.948927745595,354.533028867938,257.022758647051,370.787216029014,355.569534199838,414.360184926547,440.776239964996,230.999272864321,452.438050716193,370.121621712546,587.831381013573,591.586576813668,117.192508938249,-314.300566270825,139.761165633593,558.623783318399,353.540743365049,-502.302620749357,-636.958746227285,244.00400133849,375.576506737511,-172.870900686656,-835.836943297126,-3.12046842977237,-483.830975481364,-133.617074152572,691.84953400634,534.99602271571,640.211173911474,571.617954998585,535.117927318257,634.713613895769,561.171511085234,597.900576069119,579.460419352315,561.732508117727,552.2835604591,555.982886270119,560.295232055618,505.459638533762,539.349194040754,545.96421976218,535.162678952386,492.004218126116,526.540025883362
444.827562065656,463.55036935864,436.143584658576,434.512750070578,458.069247290473,414.512658182743,435.949381109707,456.557913892424,411.676548262017,428.645085526382,444.183813446079,379.36830939179,399.952310822439,427.071788558917,344.988904965991,381.046215263555,311.939797917541,344.248477369419,379.864199989228,345.972851142031,352.289850213649,412.404526236493,353.915268916686,331.768429425458,496.702069427943,316.04976446054,320.697250858782,501.322946709943,283.748287620771,518.434212919685,509.835177161973,65.5529962454906,-316.183349529204,158.12089732307,600.398050555691,298.673829332302,-493.524838188293,-716.167333342114,268.916761694893,332.232547985759,-185.154524710305,-732.657070818845,-39.3027516535187,-474.881325855729,-129.77530210526,636.482412758977,466.016065511881,583.47957070576,505.565777625616,450.662477490476,590.895709723167,498.048562265593,583.727116467649,543.810174540244,508.908882368725,488.850100461594,549.176525110615,508.471890946742,514.426258634528,524.616962242704,514.434857013378,490.960601839793,499.448900648358,500.063395206233
437.477794126162,446.582443498442,431.943707653368,427.965047426939,443.555915007211,421.552594602735,438.389004150292,446.415651807714,415.700084334321,421.293474223574,427.123461179796,398.812594081957,403.953761078043,413.092335733198,379.728964982389,388.483958002591,373.897638239275,372.753497553772,366.335398956856,390.274811045033,337.951308349658,512.255042724475,353.553969572491,299.301850280917,542.882234537947,273.754498396699,525.532898352379,583.561598227462,213.823371210696,428.05536987305,389.577797131762,24.6151536632794,-162.779900712762,322.302231216454,656.951504552482,283.337190077989,-308.491849651637,-451.877415458361,385.283209719283,390.929236189297,-50.7186427747753,-302.500101748904,74.8827760271632,-264.289999875911,202.411222710441,585.482068928649,462.053022202765,536.181253655908,483.216767751279,437.515599336651,530.096874864787,470.68544041895,524.244593611848,501.987673408897,477.717828902727,462.555597871019,504.398220923697,473.447037822048,476.396058722898,485.657005656765,479.02428103326,459.259862028497,469.159953890576,469.875696138967
393.171620935435,401.965649966031,387.381650078856,392.157331180171,405.516586325275,379.179868562202,399.05909987708,406.58749851003,377.062261643159,378.310290454022,386.584176645755,371.404634263565,375.060347757928,373.535245165295,371.936368120461,362.268868584332,385.210819958826,364.374129467682,331.38838805531,395.277585560787,314.517981527138,549.323586358663,354.53602376554,269.514082711653,529.943078181549,292.233651886907,733.58464652873,607.393923465632,148.740201385162,444.342860074174,237.682585891322,-16.8154303675329,92.7973428083381,506.668043741555,715.287964141971,309.164230886284,-34.6835000414364,8.79171835244001,539.466897745863,534.032361327077,218.467477143495,264.375939324973,244.813703570939,78.9177809487988,576.227623319302,518.913445256399,457.255550048387,475.320715813419,453.500031438545,433.220225568831,449.512764103028,440.130939371623,429.958144919281,439.741402701935,439.476872467571,432.804601975787,425.275337402624,431.01571545518,397.876339874456,418.708966793818,425.847191231697,416.62557335463,398.191721333163,417.767531343889
312.302677161084,309.658676463169,310.685567302318,312.397868505141,320.04331693142,316.746043486251,329.186513606243,324.141467046913,316.670720793345,304.503341074111,308.834258912421,327.695480588719,317.984621834379,304.502739156001,345.965956146698,318.595926212047,382.782882630836,339.423374436426,287.932554416491,379.189901734022,288.936863809572,540.466027599576,337.986749705974,257.357721458133,440.006040588289,308.863093347176,791.346639694581,500.469943318275,95.9598665482508,627.820429382143,151.792190090859,20.6580098083167,327.502805727396,624.294194225647,757.094610492656,360.884296181212,253.625494905613,354.020514597453,679.56044710307,651.046923228472,449.346312423748,684.371448852791,359.62596593794,318.307109601063,758.638256531869,355.065709906322,346.965408345288,335.44937898937,333.452800896965,326.381727616862,311.463406559392,330.188059887305,295.29305251985,319.836964859013,327.627071468072,323.402589980819,307.888498980927,322.132233895586,287.648506528909,309.283483718098,319.482061760163,313.877093682475,296.874301310448,314.671569873216
224.028179978008,196.626140508523,230.651914246881,215.752489021196,209.78460721663,263.23338909388,254.378999133497,225.69977356392,259.508194021403,226.832751875384,210.798865905117,289.840761028367,254.608495673033,224.133999667661,318.76127065739,272.691497393888,378.431842679444,310.853307148747,241.521031204715,346.546395112228,253.284278371799,477.504396061446,277.459473036691,245.29971965473,321.227393785665,251.678876277596,679.950012286015,259.644991666154,114.932492559897,840.044661882816,189.405359859664,263.320710235699,434.220293041842,683.632039740855,775.362327302345,410.313823167038,572.334467010867,426.321161265012,765.963502879525,626.696415742364,476.889102368446,888.971932890547,390.542495176406,389.387164899917,773.850054503746,118.187469658283,161.699020412649,143.251341877473,155.201122770623,144.926121013538,138.153933487193,161.372107900118,152.107468255988,167.215606264583,162.111750500063,158.871688628163,177.558362161059,164.902742454332,176.098669964064,181.842396117447,181.132942272688,169.912028180889,196.698686510343,180.826222290256
147.373718386153,99.5403205019033,160.578945228849,127.245234452579,108.764797252447,212.999516158365,180.675173916463,134.393979734335,202.074296973916,151.220116682712,114.03286730111,243.910886978267,192.654660924683,144.252137455332,278.85540261639,217.612116544633,343.356598079432,263.735925254693,180.454713539081,281.827297809488,192.509842975279,358.120924926135,167.97500934234,208.318774969954,227.618969653216,122.967838932942,498.011305371314,4.44695180811977,238.250958908828,853.044059600345,248.460107523182,601.250259902119,420.263648505961,655.827383120213,731.22218851905,339.883874603122,858.73919605534,315.467184394535,711.084263267773,421.044298896156,291.668158908479,942.488302247298,334.368209151021,406.704026300638,688.834661293106,-86.6347545703759,-6.08820037238959,-21.8532107801235,-3.03935852142834,-11.7744965334278,-5.45851107472773,8.14377844304372,45.2630540466923,33.2238256200923,13.5118998054281,14.9349359342431,68.1949513395241,23.3630263772086,93.5507592618383,75.2133622624757,59.953627006792,37.322009263608,114.820846893628,56.3376098963836
82.1492893561241,28.6596543253022,100.893763212026,51.8902021595117,28.0428689600071,155.547689637265,108.55579941377,52.7322017132898,139.150865805927,73.3345949094602,30.6734532106533,180.087102091616,127.305817158687,66.7958362971053,219.631261781704,146.255508357984,270.667635241391,188.360157322074,104.180712843655,192.066285345136,110.675899791216,219.814058946156,50.7052657502937,144.440249440842,155.476581438505,9.13430993403705,335.830402594412,-113.946453125435,347.238093290145,603.186709051803,182.823982651718,669.832148998664,378.890445855222,507.259388871306,556.054042985968,16.9260881633834,905.470304679903,199.652382767713,472.820922803502,98.2717879641102,-15.970596336425,854.20978610362,161.117054955401,393.033097285707,528.800346875363,-187.714942132791,-112.709678499758,-114.233253069142,-104.596789629017,-101.857256440194,-78.7207585315365,-87.810833668558,-9.90392940702921,-53.7298419311447,-78.0741850080564,-72.6101504709213,-4.15370553858645,-65.2800592224223,46.8856742805493,8.57424272697499,-20.9823126736763,-54.0902590839191,51.9746123043098,-32.0019364528649
38.734713666981,-13.478416071004,62.8630384180667,2.41941671191874,-23.0594675773964,108.379304432122,57.4545805462425,-4.16771936202741,93.442013744902,18.0457729263759,-21.1057615901018,125.702860163729,72.9931184155902,6.50057108288324,163.8954116548,81.201806894566,200.718765670972,109.129862256412,35.6106470828808,111.48048870677,30.6909881653099,106.589404917265,-34.941966980882,60.2144739039621,64.4737562438464,-38.5773540232637,203.509615873224,-100.619104961847,285.094373290783,240.578691619044,-19.6342374539163,332.944888806118,340.321770713889,297.38572671253,210.514600042072,-414.216000519623,655.502253516473,148.206507923184,153.727964048924,-215.529664751012,-290.567965401471,628.070150442158,-102.872437070878,275.51903171703,345.064346233713,-196.050520438642,-150.300578602912,-136.849255006907,-139.249536390627,-129.623437978305,-93.8965620179345,-119.560970308373,-27.3814248089647,-85.420461668667,-108.278503188011,-103.391087559925,-35.5872971029128,-97.0515361265443,25.8372770444021,-17.2886096060823,-57.7355059116962,-90.8628936657892,16.8262819564731,-67.6258101686042
30.2418269338313,-23.1535071650741,53.8585966778471,-8.73124444263498,-33.7729242887235,94.0331671788881,43.2323499628147,-16.3360374201071,82.5365114306404,6.70662416696269,-29.025681621109,108.80036376621,53.2618605620231,-14.9943436394759,135.772525340773,53.0366948127673,171.482637790535,61.4630365442287,-3.40724636090522,60.68635054567,-24.2430269895866,23.8187585629127,-87.8006581440916,-24.2835795901415,-87.9791328035789,-51.129659855826,49.7152561847551,-80.4542363924217,128.813725740332,-61.3613885228783,-204.181793684584,-41.803184755078,255.521033642357,112.251912696332,-230.640421789941,-547.603684995037,376.521168002326,134.607723000916,-98.2189861785779,-392.069549763187,-282.498968363632,371.49262548657,-287.838204982546,91.6302790256875,203.079250156928,-177.887675422951,-124.997606709682,-124.403349015951,-116.238268313291,-105.739858071127,-94.1114128028258,-99.1779256286387,-30.4021128169449,-78.8072168020717,-92.2226233725043,-89.1725134845902,-34.4830973259314,-86.079488107436,17.9420357554349,-17.0599471329452,-55.7315007846029,-79.0325722022551,13.8164757250354,-56.2193564430376
32.7751261711873,-21.9803871495995,48.9223043207855,-5.57721356853653,-27.380529616633,96.0228139588736,41.8998162910704,-8.64113666304493,77.2170531343974,6.97354672833224,-22.2546963904195,106.03416772013,51.4355430935547,-12.2094283682546,117.352990306892,42.8173359591681,162.658693981895,38.565401566641,-26.709006083668,23.5487041025667,-59.4017075334311,-52.2714734654753,-124.485642973022,-95.7129628815612,-286.789926660333,-86.6897630768965,-140.488398469592,-112.061336243276,73.2047592089131,-245.132428112534,-219.011894287041,-94.6786852045539,100.983722173852,-0.986490131412054,-561.077522009043,-287.350821843358,289.044596223102,158.88256071748,-206.950045987851,-388.350320100052,53.2539683375838,198.605749190858,-238.337809637936,-58.9905347271335,109.397192568114,-187.625102250013,-84.2308670163659,-121.112498218646,-86.2803046627504,-69.5822244556471,-109.174311142438,-69.9534565813266,-39.1485123663857,-75.3960780038645,-68.4804572977415,-65.139013576341,-33.0840210648687,-68.9100394934187,7.88710609962203,-20.0275532189619,-45.4159481913778,-61.9783504628288,16.381039049773,-39.0862426745316
8.2729557344186,-41.2689431749034,18.0445016518204,-24.7795869110204,-43.2724322369763,72.6258155168325,15.3730282205316,-27.6563913979089,37.1247919465953,-23.1246904195432,-44.3685413939266,67.9377223275158,20.3418121280305,-32.7014857897897,65.5178211543006,-3.57087213948651,116.309569624672,-6.96351098434543,-74.7092632054737,-34.3782890391372,-116.96928046235,-137.353429281691,-171.063031938093,-194.621096845446,-415.231521143838,-203.163713358228,-294.680597643505,-161.915376511058,63.6625309810524,-323.700821520691,-116.587810590428,18.8724209945408,-96.82893595706,-14.6165681275573,-602.658894805479,-37.6967476716482,255.929919883882,216.711828766858,-168.741266477686,-281.288686113753,329.976883342725,89.00758717503,-11.7776810934481,-175.163183855256,6.32714977597981,-207.922036439661,-76.2256116119018,-134.568628633564,-87.3024978461354,-61.8355132186994,-125.608292418581,-66.8613560687145,-55.7820441064528,-88.6378154119305,-66.6558165781675,-61.146921273571,-53.1436232659476,-74.3406350534447,-12.6034041864925,-40.0463509579042,-52.3871528661251,-70.5326435055815,-3.57316994784497,-47.7104809104113
-29.677250074006,-66.9475682516382,-21.0662332960941,-56.8074288927181,-72.5913151053667,23.0119204892036,-27.7599128027917,-63.822193428955,-21.7907658287509,-66.4339937669268,-84.1780271601337,-3.31527759706252,-41.1772392880457,-82.9418393337946,-18.9178862898185,-86.6120613373518,20.8724549620077,-90.5687838504782,-153.534926380075,-119.81403756401,-217.150069511061,-220.616944601055,-251.112955087173,-349.924991780366,-388.158193466634,-416.104395692125,-350.715788924768,-217.087337768078,-91.2534788140254,-343.163139517605,-81.6775309724268,-8.6639079085516,-292.958662463761,35.028882774946,-431.201906787964,-38.6291665005229,83.4830366225193,230.813190442271,-59.9912640657123,-158.330580249798,259.172909188577,-36.0499678709587,224.002214234162,-274.501229271936,-144.920382566003,-175.351262557776,-71.8461179325382,-120.864396010372,-80.603132192264,-56.2102688335559,-103.127033134553,-58.8114055320442,-55.1960447305344,-79.7612139319348,-62.0843187115699,-53.7777882131957,-62.8491135319354,-76.0347007002133,-22.2554344902911,-49.0877468142783,-54.5771482814233,-71.9462784654388,-25.2018582889885,-57.2239557536419
-41.6307435110504,-66.8261830351323,-34.7036466001759,-70.1623480288519,-80.9927487529719,-17.3701772164286,-54.213843858148,-77.3347010053749,-57.3250931993211,-89.3944874487255,-102.585520544177,-60.3641707727607,-88.0941186724742,-122.624209699347,-94.8039310316773,-153.458755422814,-77.7695649456361,-174.517248451765,-226.374374407896,-201.215412381448,-319.372184711958,-272.334091778446,-352.568793407412,-501.740697425613,-292.321628574683,-652.549445591406,-342.527286497092,-321.577981998281,-370.220571647423,-400.494700949149,-209.970400668688,-161.993102479557,-444.164266389652,28.1559368093006,-359.80972432877,-67.4108441329998,-163.356473367388,129.696416440245,-39.2312666421361,-93.3108781067619,68.5499655926314,-172.915680124821,353.608533137701,-296.591654840949,-314.314360779778,-89.6218024761773,-27.5744542015401,-63.2732780376613,-31.8105777764813,-15.0903487031124,-41.1050157460875,-14.8587247592658,-24.3140675748149,-33.9014810813421,-26.7268919388629,-16.9667897441326,-34.7286476964803,-43.0214696624313,-3.1192345814987,-26.2832659537167,-29.6101727124629,-38.6975354820566,-17.1991050725001,-40.0300703163719
-32.9000106413314,-51.9917194574972,-31.6848853903647,-67.4236058375419,-73.2726840389448,-36.1447758968653,-63.0139613345426,-73.7256315412696,-69.3995584036923,-100.271932926727,-101.474872853868,-84.967738638854,-103.061760719317,-134.7558822864,-140.921785660189,-179.662214092459,-142.738811801938,-221.285452498356,-262.658916837302,-243.130400861966,-367.782395089051,-266.155741129037,-417.52462450896,-561.432474265742,-227.576796275366,-784.386798623466,-324.608155903001,-453.887391259134,-621.145222329658,-529.355565552274,-449.77928954162,-328.647853912876,-506.140608697586,-83.8724440316738,-576.511030456187,1.9436699066682,-327.510389623697,-26.9556624248586,-190.598245119597,-177.763357038789,16.8262656724484,-248.04634615186,317.530453286422,-201.446172574197,-438.097886785039,-22.7831636363377,17.4469308437458,-13.1779136525,12.8782662399241,24.5272778954958,8.80752868762079,23.622348966185,10.5731262140859,4.00227075131092,9.13287108140502,17.3161641834389,-1.88552091024169,-5.81416576341018,20.3377364229669,-0.818007698670561,-2.48135046918873,-7.60862175958759,2.14861224638176,-19.7464931057612
-34.5068315726869,-47.8931338616912,-35.4608950625923,-67.8344421804983,-73.4006801535427,-43.8349142464832,-68.5506895479299,-78.4854760248947,-77.2834996610539,-109.932250009392,-103.714868152363,-93.5723528170164,-104.59700109761,-132.197625758686,-155.044608492967,-176.451470231057,-163.420965748722,-218.208923643959,-251.840943519371,-227.372090328347,-335.135429917108,-201.288618263919,-379.282649740496,-487.655088882277,-139.037067985652,-693.224260973979,-284.836190531053,-492.963048508223,-757.83740573324,-616.933764182929,-645.776421802713,-548.530399547829,-448.638540443744,-188.605407971133,-889.964885666614,-4.34069607638942,-382.562578631776,-88.3050085673941,-378.047784728374,-348.205839053255,17.6658415074851,-214.832441227097,148.591506697499,-35.043968664165,-467.709979640247,-1.9972439142465,11.6529543052474,-4.45419087840572,13.544262115956,15.8801399247785,19.1229263579716,18.0548771573938,24.6248679510201,7.01876704844369,11.3366931432823,15.204602387764,4.47804503499682,-1.5329523590504,22.4378622907637,0.1301923705846,0.44327120989005,-11.2759943024212,2.62513562352836,-21.1349404021382
-50.4421891972232,-55.0198565961965,-45.9673278517731,-76.4639015753095,-84.7713464684409,-46.2195912784696,-72.3026397037471,-89.7885801469732,-79.7909451775772,-108.485663944931,-114.647879656721,-93.8032451404115,-104.827035825082,-124.575777225849,-135.106939339945,-152.712221776307,-138.19105073569,-171.267876959523,-204.015831229142,-161.327144575248,-234.142940955283,-102.927589961827,-237.631207854267,-310.450261907689,30.2063812323838,-369.129356130999,-167.207345842641,-410.681157235514,-728.882407870054,-550.267431445027,-634.524047835655,-777.745570431048,-327.117632743463,-168.621373249024,-971.492586944845,-108.940541688308,-375.146499687733,-19.1015076350801,-405.571266053246,-358.463098846374,-24.203324489493,-109.82819659542,2.60335949086819,143.255735509951,-399.447814648518,10.3325047078877,-21.8105057211503,-11.004718875683,-3.74969657228425,-20.1660691914218,10.3035099055264,-9.97842211092873,18.6309982360601,-3.78683186275477,-6.61238979364728,-8.95657651455194,-4.00019794114952,-17.8745185947953,10.292544370742,-11.5871668783775,-12.6482388178989,-32.9630774410569,-11.6509761557818,-33.9396955567297
-68.4247485679958,-69.3375816738185,-57.5349021543105,-90.1062770724329,-101.942480772252,-44.5753465755029,-74.5244147722437,-99.4532480539627,-75.6930702770113,-99.6397442133562,-128.659651725173,-81.4566091224049,-100.175381849285,-118.812922472762,-91.5689754132425,-115.511542645712,-81.4623383625399,-102.224518039476,-150.903453610276,-74.3362651761662,-111.178474915223,-0.877820777045817,-65.4121094106476,-116.857845006827,211.391671841519,34.7116750917989,75.9907568374994,-294.096619107228,-542.562085568464,-323.532876057741,-397.592463700557,-794.014556057673,-243.647522959194,-39.9423018043729,-709.492193537115,-79.8745176410381,-304.849463731072,67.769923493104,-268.339265704424,-108.077179215832,2.9469048277968,-7.64945243027786,11.5511468399887,309.051643798973,-264.258975544225,24.2102410949437,-41.4557490778155,-16.4709843766115,-17.7110392568053,-46.2961958933918,-7.92124680930701,-35.3027141925235,-8.5463416093657,-18.973745033054,-26.961534229127,-33.5842531361728,-21.2027064742409,-34.543982615058,-10.4695426850642,-25.6271109596615,-29.4880997595754,-53.8573008717604,-30.6113323618405,-49.9782095421426
-84.9676772187785,-85.4788461177926,-67.7968936587578,-98.2273755748504,-115.001737627489,-39.7349715621288,-73.7531675303923,-102.102076594637,-70.0771668913586,-88.7167447848165,-126.298402172983,-55.6654041276437,-79.755987334492,-106.118944631071,-34.3935400487914,-62.4690974899501,-13.056120157644,-17.6242710656491,-89.188685430034,24.4166098506425,19.5226014288743,93.693464791518,119.699937589702,65.7830662401573,337.108718829198,413.617068294938,403.635013524029,-103.89810251253,-246.417714718039,-3.97681720472603,-10.1965991088385,-481.764873235869,-173.88380086962,113.1458855309,-223.288164643239,227.041997202911,-126.519989498025,134.382068520479,-100.950002521066,247.74065202913,203.672804450347,86.3516403866558,165.982134809939,457.002236862412,-78.5222283267234,15.4996576195387,-35.4173319771428,-31.8547988469696,-31.6278709001327,-50.0345541837846,-47.1339374600952,-47.8636486649576,-62.1677348313257,-50.2852613743886,-48.022132942035,-48.8429150999009,-58.7625398896399,-47.5209465478146,-48.6519092778062,-50.2513881029616,-48.1091193266662,-67.7706774280301,-58.9042446993926,-66.9985000412688
-84.7689353592023,-74.4440595076305,-62.0541499933798,-76.2669540191107,-90.0220542063819,-27.0580937683743,-51.3531530141505,-69.6986244453188,-47.507144098556,-48.0642211172578,-70.7363421023288,-15.7715189292048,-26.6250305303185,-46.6405769038339,46.4257564544496,31.727675389273,63.7051615991891,108.590114610202,42.9932294339828,161.158119030084,213.847957178466,189.418278512446,400.835218701594,330.004912892598,428.257784446746,887.771000624562,624.739989299219,314.140226079871,214.583164376266,276.795458585324,541.466495479212,26.3048364060833,13.2017046614369,240.777842043104,312.566357257624,717.167438109925,189.596429570916,258.358894391998,41.884788574493,561.698260521559,552.846678542417,239.158167898647,419.012827772796,609.000027518237,163.167108784391,12.2094043968251,26.6196280801608,-25.4324222150078,-5.61713838479186,1.11330349816656,-80.3737404440401,-9.25791495047798,-111.390902625098,-73.5673100052874,-38.7410940668858,-21.6844606807274,-96.4220092769442,-29.875865845142,-90.0616634584178,-69.9039476197818,-46.0739489244656,-44.8169462285785,-84.8106706808459,-55.1173280971363
-40.3579570954973,-7.10926144785067,-24.6201455698502,-7.27844770126418,3.18549522687373,-0.241331998851336,10.2285932117274,21.6270897523993,9.88380207479316,41.7735212222502,46.5400202799822,32.2647191893131,61.310074110903,74.6517345930594,141.45728821553,166.302329581862,135.850676958175,267.664863212796,251.193586321048,323.100150025609,472.447187511967,280.992539867342,766.523729738017,684.148878314539,534.689881415329,1472.27472922243,552.155103340222,904.964112440287,805.856414533512,371.642288603596,1197.8620417831,471.036963042337,318.455418498683,307.029852083864,740.010323247268,1110.77364537936,574.355851628236,406.242305297138,183.53948817265,788.788256172454,926.957780543341,435.086637718953,763.174534201296,790.451789726253,404.194652127034,86.4671990716862,178.211357527901,64.5513895282106,114.154933946041,142.455362175403,-38.605366942556,114.656958411451,-94.0356756011834,-30.6691506814533,46.7184271637777,83.0763198253735,-77.3064006874638,57.5514574515979,-91.4061540477878,-39.6705280027916,13.494543783704,47.6991668619783,-71.4727014932308,17.2554110852349
52.8681017845468,110.315037968925,45.9166386811505,99.2761032561012,145.568193691151,46.551351114156,104.18991018636,151.356374620988,90.9091701290592,153.502452392839,185.069420460958,76.7925875754235,157.390059316974,212.787504082635,200.678275185786,283.464997609844,162.506561776119,381.73221181424,429.226465259015,424.98575123622,660.604466619042,331.527373079031,1007.96975878313,928.186455377745,667.829470663959,1801.68527991203,248.974251924789,1317.72196063474,1162.16982201621,243.487846257231,1562.20827943326,655.788275175791,600.965130303732,230.467658003761,902.159623526677,1069.97663041907,856.624648944338,443.815304964215,251.186481811742,847.608400563725,1094.21715608362,549.681220866636,1096.78529874348,933.384504076228,529.220482302832,243.395602758981,367.486571262241,229.207201838803,292.169878216428,328.460912746913,106.261037188466,284.310388881686,21.8225319614328,100.991705724458,197.918298977618,241.440273600252,31.8448090990631,204.894631764413,-16.7455192144379,63.6706398625197,135.53272854017,191.931129944366,9.45540503035345,140.969361375981
188.112508646113,260.171612510178,158.401837061223,236.998046865292,305.110827623421,131.298370499464,225.529836461833,295.562092023819,189.371255509147,272.287234247427,324.010519788233,134.738928510383,250.737324105865,338.287927281634,213.951182915083,348.856935966117,135.959796547409,410.452397154793,513.279297242501,419.950338189621,684.780510029609,324.423172794782,968.224870775467,922.463020552677,767.923516701222,1568.28424843132,-20.2367326924447,1275.09515227823,967.685734669106,7.12023303416821,1204.2964664697,620.923866956951,851.51132481705,-55.4944963549292,718.72409309392,481.295447789268,957.036408794261,465.250903195083,114.972892581398,643.953931620091,831.661148537989,600.736361961624,1171.17444705448,900.526280531889,612.547206844356,406.650304281889,491.812792188984,392.910002185359,438.074280701069,469.310731750931,304.67939111165,431.444779366061,212.20109141271,287.572144402332,363.352126365626,399.352726882675,209.98484109102,367.064233495053,140.284630830195,227.120568916764,297.009426532774,349.945551014589,159.123824805006,295.052818717235
368.16451224668,441.679011800552,329.794321181219,416.083492822052,485.844680019763,274.840009249125,388.020087639806,464.729057920794,328.488724954694,426.25886904823,492.354188310784,247.146293168298,373.421440440906,481.461056554012,255.787520902862,414.178231057996,128.790108535294,425.415440740065,577.833571188094,386.711585185088,636.869171096233,320.347862663038,767.617195364652,795.424372744663,784.406100052315,996.736544882957,-96.381191045028,947.641312343875,464.835983176002,-107.789516204103,261.290145919119,589.588001457854,1206.98682753768,-454.086357896373,362.662447728155,-332.133251961336,963.62489182177,772.831345560732,-131.154279094027,252.282551214807,232.633347434626,785.779780417536,844.15868769511,696.725737219194,945.999674916913,514.815365838453,531.184783944221,514.335413391545,528.085638265078,550.993585214637,489.82282216178,546.391880979542,423.70329762823,479.720620360621,519.229884787684,543.777512099638,412.293837755876,525.340469771538,351.459028244595,423.476150627611,479.756671852077,516.585698332854,357.244017690972,476.058481247939
576.784234617371,647.184994465282,540.48987757068,623.251773854356,691.198071414396,467.443973380349,586.467474353334,661.803814044374,512.924082545796,620.686076741923,698.323916002959,417.580278262289,546.156407812846,664.722387291177,385.950405953773,545.093520983529,223.191249672612,517.512503639219,706.926273935984,441.024687089885,666.485688230294,404.656921755574,659.524944278644,757.364343896878,788.310007406552,607.486943041352,-28.7850033759218,781.847667258146,248.025150321807,169.841184129192,-486.730424347165,712.594046675105,1638.5095901163,-683.162133460872,252.324364054617,-778.460135568098,968.468832599328,1357.21119144341,-134.157329898568,-46.1511567091136,-169.504261851624,1148.89469629632,337.153044645408,608.622174896002,1523.91856980546,573.512987698119,568.254363582469,615.584032334115,613.775067314856,638.969401056195,639.165340890531,665.972975934651,610.878296322299,648.438754692948,671.969830427822,694.228594231484,604.761531042239,686.993619414312,563.834801276572,619.521300839118,667.696257349101,694.405491143104,570.039836910952,672.563090682731
749.896074100643,819.842165432179,712.804119699862,794.097285011619,864.917511387582,644.903698076775,758.686411093949,832.07337236114,683.452303176509,792.335023576538,876.403043152924,581.65994264427,717.717933343631,836.375776478971,553.228605238553,711.76719997022,397.4633425476,671.930817476804,862.201486332681,584.999446716223,791.280765147375,568.964749982957,731.864720572526,851.236799721069,857.339910526618,635.887234401899,131.976856175708,915.935035396539,546.629765022317,863.224714655826,-345.709362172172,972.017568046095,1892.52549079016,-518.941709693727,612.448378273507,-503.982896698744,1034.22696870258,1739.48217515994,264.168803758809,1.08559626252583,133.715908928919,1480.73950730291,78.8723936846608,948.763908870559,1819.46491892134,615.912499013088,658.195577332319,709.218258596718,718.977217347464,755.938370381395,748.184498304926,788.005219059587,739.029135351179,771.398741815016,803.217248851049,833.496649927042,748.845509562667,827.695302174994,714.064415699143,767.662268650801,817.560837189251,841.872012412576,736.722800261326,833.443043706363
789.332468307727,854.707329093007,746.218386291767,832.059693653921,898.593337839013,702.567687184709,799.833083947847,871.896851956205,736.877664379851,836.467751551967,914.891422406611,642.030295590049,777.796883994423,886.34778933961,637.495177293724,788.398605372488,525.486613624254,764.566598203684,914.905848848701,693.342477712401,876.000364251247,708.261198800296,832.959628300352,928.21982141011,922.932485583612,820.118146308214,428.843883967173,1024.32180092183,977.179940783338,1530.4855344532,458.657950908997,1257.20657376591,1771.5624198184,-40.4627782081403,1108.3923913574,240.901178570492,1175.97643610473,1527.40875564845,737.595993299395,328.904079336902,951.902442094633,1537.95551134269,247.811236214069,1540.27560463456,1410.15704357108,631.796558486219,721.809822427605,734.646203456358,765.516723815713,804.74803210567,764.200524528532,823.180811618054,748.269038700677,788.673740715621,832.102833059002,867.223124184362,769.871984149983,858.573840753907,729.819098503228,791.21831441701,843.629401699714,866.539023893807,762.917473933761,864.288729596693
647.056754129854,701.180806254576,606.937313552605,691.429069029923,740.801245455,589.663331493703,662.016658886699,727.700277576536,623.202576798993,703.809904746047,763.234838566755,554.61467879541,667.815919308329,756.945130155448,581.239202336485,699.611736266832,522.363557953214,706.420029889251,803.886768049824,674.855246269061,811.473397263134,758.539700311059,816.322692108889,862.458245312205,917.143123850169,827.687086364751,823.021491238312,891.026999408145,1136.08205834366,1705.65867675137,1048.74172006431,1425.0555137386,1365.15556730036,472.993950643246,1259.4430242826,876.411779676792,1246.31826006509,933.516366683961,915.321555625297,614.540981686461,1535.79167913525,1228.01747143715,587.95485688266,1772.78129551496,572.091852310688,569.648519419029,636.63552243461,623.218923774485,656.348329254467,678.239407094477,630.769169644896,687.178064276167,596.148021314473,648.044278443431,687.39600693097,714.744146150123,621.733453619571,708.821548190496,581.981932556497,640.185502177812,691.037550217459,709.687682018693,607.225090061693,706.808021086353
419.165551028086,464.49212226236,397.595992432428,467.46565827926,500.596062864046,397.4529576664,448.389014258222,499.407070214565,434.838100526275,492.600806751474,530.130442190335,403.103005216024,483.78810391149,547.444850415008,467.568000140244,543.117891434124,458.093010006379,578.179003938374,642.184740166683,603.201264324795,681.160149735541,784.474767135782,748.776513577064,745.366780998353,922.912685762586,709.521121157629,1143.1544001597,728.108499140365,1054.79423310582,1418.97438765711,989.606126659576,1337.43787946253,1001.10921782351,794.873569777937,1012.33831771376,1066.14022700645,1076.44816364382,596.915867848031,823.65273728841,627.985794342656,1437.14562499802,730.60155777449,730.984243629955,1379.54630248868,-18.2603947079826,424.764636098205,423.40628907762,420.29539100487,433.969660584279,431.347754395653,404.088349702393,442.636259987546,361.413546722015,415.714138894315,437.199729176357,452.652956669792,390.270876955925,453.195523210952,360.266560481374,398.358147925533,444.346828859867,455.317907959442,376.013683053097,450.415137587828
269.294319200278,311.390786284404,266.809156484426,320.658615045812,347.836773687554,270.602345166795,317.646537495899,354.162528896313,322.377051703333,361.941723798531,386.452356759597,321.068622692087,380.20371443347,419.805912983168,418.527343218785,467.593104689763,449.334276728077,519.141429639525,574.218080486845,597.627282831981,625.838319952723,869.906231295256,736.533580563323,708.612411050864,997.381851137714,651.598895035278,1288.52608075022,698.83251661969,864.327702370642,982.133201853914,572.718122482334,894.186030592321,893.0455979669,856.967895823566,562.841967449515,848.948700094642,658.734529186192,890.979643610356,646.340270015427,413.032577505551,816.717561103439,393.041961942077,565.215034460038,731.541698913295,-54.8607273347319,278.159360909559,239.611723874535,257.670898264721,255.961481901154,237.664693699478,225.909248918886,252.575115922791,194.946422758832,239.830008888944,249.024191358163,258.582158059966,228.728434534206,262.066457820412,208.433452876831,230.427436666439,267.207124454486,270.023665464225,230.427167052325,267.786692402366
223.72129052144,262.474595901527,228.064800522512,273.53686119498,295.520117166157,224.768539876843,278.856200478385,307.66141831649,295.952266669652,323.440190435093,342.332781276921,307.127098790274,354.363396439929,378.66374049291,412.596386835033,448.030384331734,465.150879258209,496.136628469103,546.294936327695,607.013843228665,586.796698902528,936.440097355104,680.875992418196,649.086854223041,1006.39858357052,556.773558906494,1285.35509678932,634.455430439882,517.220478179633,591.368784685266,172.517553305889,139.875570552608,866.326258215198,746.472194354079,29.1924274707829,388.557558347093,65.7799996778945,1476.65814256223,431.311048320362,143.848851681925,-9.26964232744753,310.946757056646,188.095823149503,191.052413902217,147.041982742848,203.122825883599,166.492356909567,190.136984758523,187.298900033317,159.990942549402,156.779774857257,174.064262010325,140.316250095824,173.210197125921,181.272966073328,184.280949981362,173.219075022379,189.160499793056,158.823723749593,176.480412492302,201.203812626424,199.061780632528,190.449374485378,201.821549134528
148.509941603916,174.635255685998,153.712659929681,184.446037450429,190.946338414676,141.963663448486,187.246161503523,205.890028882342,212.484573899076,225.509035590746,234.480353672773,222.981894003064,248.085389146866,262.616317796455,306.02537135629,319.543844779787,364.787548835939,345.875373367073,372.306906544038,461.72537661205,381.132383130092,795.2565096892,418.588903737815,379.320690451773,778.571689414598,247.782880783709,1121.70391281878,403.130480609947,42.0623304217046,294.673167480631,-107.366281964675,-617.514804473996,617.562160477038,603.257549128982,-421.118177132297,-146.057948884798,-565.129656019815,1663.13874040629,196.984471329253,-105.256391449928,-808.449361940136,186.953906761381,-322.63056066608,-327.634514709215,162.479935879598,157.220519810767,90.6906454750528,129.422770489775,112.688646122339,66.1109221473215,109.467873106239,86.8422493886474,97.1513070406144,114.571726173237,109.420958797333,92.8106641335179,114.328875252896,103.170626213127,108.009740022021,110.328155490829,119.615325912878,109.968496986659,127.402458614772,118.264687176022
-38.0250593444278,-39.8730310934201,-29.319137272388,-31.7320852414777,-48.398710134107,-39.9819530076436,-31.0004328838892,-34.5638741887481,-1.99326052538734,-14.4502616251572,-25.331404632454,8.34443850241598,-4.03621477853078,-7.55338737775721,55.1998100506546,32.0987285155529,120.005335494615,41.4338154956706,21.6567229121612,134.139456549808,3.66064894213013,408.692554505664,-1.49233914441765,-51.979958110303,317.124509812616,-176.341435838626,740.14575067808,99.0289443045855,-362.899335369019,55.432223645624,-286.700210511227,-1005.92296759014,174.397314857955,473.537493270717,-596.939646715501,-543.66551087089,-959.234559757586,1204.74886361036,-3.18584752127705,-348.642332062072,-1296.77417328028,-160.645931556609,-860.527524669222,-942.332026224635,15.4708383299376,50.6077995560886,-122.179492954716,-16.2175273277568,-82.8810546359224,-165.138375688214,-10.2677986800173,-121.03425669166,-14.6129557995848,-30.5445885797595,-78.8084199516609,-126.680760798352,-26.3593462991532,-107.536621018994,-19.594739643635,-55.3285270320435,-73.8388528987776,-103.936949676955,-32.8095942756647,-83.9897646586669
-243.447240977499,-277.358023810454,-230.239682608249,-267.302527770978,-303.743058472404,-229.646665478615,-262.945940332038,-293.125980877918,-234.637974944254,-277.397659711145,-308.603756744542,-222.789614089889,-265.983954292709,-295.920434199457,-207.291451056619,-264.577901214177,-136.480498909354,-255.308898243271,-315.948068054443,-210.200752568056,-342.26325019141,-45.8509746917892,-374.354594901288,-408.311259768798,-216.496390932986,-482.641816386553,210.190688272827,-207.229650737035,-561.241656427006,-162.623152749692,-370.604662977382,-945.308968773104,-141.925715927372,325.740829614775,-560.537538779647,-639.695787286256,-897.994607363335,537.339780873228,-155.859793896615,-497.757690259683,-1269.71710669999,-430.20109914692,-1178.7843226191,-1390.73876903868,54.7720641185244,-90.787695085719,-390.324964358602,-190.619571962336,-319.265608034062,-433.355870912695,-157.154388081415,-363.942121958364,-142.135800140743,-201.841043771185,-300.48702720848,-378.576027410764,-183.003067652193,-349.339009473969,-161.163567199191,-235.625223750819,-292.269412965063,-348.690322968205,-201.550603998908,-313.520524945555
-338.287078414501,-388.237322220809,-325.017251174169,-375.249064828382,-419.491779909752,-311.971641380484,-367.884182606438,-411.382577772118,-345.167830645166,-406.204290291698,-443.01882868269,-336.458632724675,-386.662106519204,-431.317039642668,-345.965296237198,-412.563399725957,-284.241237454383,-405.961750143657,-468.670734254676,-419.563907521997,-503.515484285413,-382.492135165784,-588.536318076663,-551.003486255129,-642.504287562709,-620.771911492219,-248.049088157946,-556.932146501588,-550.448555625323,-289.332432999751,-352.139985968557,-603.272471487616,-142.446401308753,179.433105526972,-500.461164444326,-457.427028388858,-470.655369048418,186.861564304992,-240.625296442428,-408.934500181247,-855.398692170503,-283.269566125227,-1091.4637520123,-1326.17199618417,385.497297428674,-159.679694587585,-503.70660339132,-270.853652732378,-422.684188206175,-538.98445231902,-223.597617834103,-467.003792105532,-198.282589162315,-280.421535147574,-398.652974199963,-489.272668296028,-254.838423941256,-452.884821003298,-220.986873641512,-308.867122391942,-391.498576240308,-459.653721317777,-269.633297920737,-418.714359507202
-323.717658893521,-372.372193051363,-315.433648666469,-362.296370739183,-402.265504849819,-292.37727886519,-352.389698194333,-391.584939704623,-337.409366454905,-399.724612820963,-428.348460819645,-331.013789232917,-375.376341734387,-416.475495963451,-362.168718473366,-418.046390207725,-322.202177783825,-425.014488969671,-462.047834763314,-486.311127941854,-518.958420017323,-544.120334086054,-685.343335379637,-546.824728052356,-852.993735932531,-726.605250339804,-449.11229169269,-901.516490804269,-422.703426869088,-258.404487897539,-265.681853034176,-131.093559192122,41.2744870012266,97.5652403316534,-419.106782722799,-148.043817218095,16.8194746177649,211.058813810964,-212.903373590627,-121.46912086167,-363.251995307708,134.414138588776,-700.913368818318,-787.773091639513,730.407781897002,-155.361592475144,-426.626329172379,-258.858104990686,-377.605340419555,-466.90790303948,-216.646248973828,-419.804559882152,-198.174995234181,-271.225442374903,-373.161266799277,-446.469887669582,-249.826247784342,-418.315353450013,-212.75845283717,-290.049853394227,-372.310408135839,-431.324243313133,-257.279930195549,-398.328552820931
-303.142690093045,-350.579944547373,-298.579361813163,-345.943384598737,-378.443570300096,-262.68682182007,-325.164362536168,-361.019309792683,-313.499143988917,-372.703816193501,-398.180823021403,-299.942974815557,-346.267889279354,-382.225446032334,-342.29334959196,-395.365042368546,-313.251597445168,-409.193027959342,-433.627653252867,-487.016435985728,-511.04973987199,-573.842233682883,-739.805297911604,-540.89400646226,-864.576913226542,-889.347975135392,-415.143128645207,-1066.91904215907,-342.172406561016,-190.39525507749,-183.365402682669,308.902698873944,126.308487681049,61.7658247147378,-250.045545227612,145.806220798488,281.28711145309,284.357116175724,-125.616301021264,140.66274779276,-8.84505774089505,387.125329159566,-303.679602863512,-185.270027433541,801.909458923403,-197.869137347374,-335.286155033798,-275.418227705306,-337.053275031709,-389.086831237806,-249.521663613337,-377.411078098853,-230.243882825142,-284.183398486524,-357.65000301407,-396.863303284807,-258.484032154125,-391.681365673341,-225.136832305371,-288.712483525379,-357.535410490272,-398.704534320814,-257.629928648458,-376.382380204609
-347.208149319492,-404.208850602356,-338.927806835178,-395.379456225514,-429.767610435242,-286.793657611173,-358.1128148751,-406.9289707387,-339.861189762349,-405.227971978339,-443.366404811412,-314.195437850401,-375.291436839074,-418.544064961507,-353.658493283783,-422.037019300436,-312.964794698678,-434.184947880678,-470.550401587008,-492.448404114592,-548.105537620237,-559.12027576944,-783.506047064012,-600.670488732454,-806.117036730121,-1022.80791766018,-338.141735836752,-979.951966727804,-359.080305128613,-242.704999127219,-133.832274134051,486.557937353861,-75.794835065969,-9.78963556564089,-71.5650471136759,320.967335145393,199.015321565864,86.9485383146,-92.1582954392393,217.249783514565,130.711976938114,247.526616355086,-127.252422327861,97.897718185124,543.94823970689,-355.488313219383,-370.125263423818,-391.337981298151,-408.570309653275,-424.710003998688,-379.6848552338,-442.750069417213,-336.960503303898,-381.234078318846,-431.135653701093,-446.802889180058,-336.832866145609,-454.996169837947,-301.74062397689,-361.972610889341,-422.118198033955,-452.343140195372,-317.141200263313,-431.368885026833
-444.729336084963,-516.973011590068,-427.179717354135,-495.324977326643,-545.663257087495,-363.012266877555,-449.312727083929,-518.503273383078,-414.411246845636,-496.705733142227,-556.275936399912,-379.475525844485,-458.515276195842,-524.726980561976,-410.006352031338,-501.146374291966,-347.101495282467,-515.34736862014,-574.132815317539,-532.168985166544,-628.933175185388,-570.120548469594,-818.788118852686,-699.087708425141,-792.431315109399,-1016.43587291711,-361.623993038847,-768.46587121302,-343.781188306873,-347.976851648007,-92.2367452956144,325.45280221632,-536.367428791829,-113.246787669692,26.3456557985414,341.749434407833,-132.491131297736,-451.416167263613,-95.4973442511396,155.093467811242,98.3107471877924,-170.832184563635,-180.666356902593,11.1171490185526,65.9989963276837,-560.207578707873,-509.136270413742,-558.461256669947,-556.596984321643,-548.837167565905,-547.645898108419,-581.193653101213,-478.728996735218,-526.361456052219,-564.087941211397,-575.456425602204,-465.046623934768,-574.471096468166,-414.090781316458,-481.844765087328,-539.253163471445,-573.531569263579,-420.287953880875,-545.548088419523
-553.215004098451,-637.796220367273,-528.339538335769,-610.104349367048,-679.732930296113,-459.497764303759,-566.57677728932,-647.6893207353,-512.308834435007,-612.580507172553,-691.548833412636,-468.793607342262,-563.82647047222,-661.695982669151,-493.625156984014,-608.209229820071,-415.069912655339,-623.370438637138,-710.709945746528,-601.83601361011,-732.662324876405,-621.246417256882,-853.150065529083,-802.443161015471,-840.537529330028,-933.544826824678,-474.233807322765,-614.269099631921,-278.41872290897,-362.121629920456,-63.7414484107348,-10.3011223663107,-1078.95784556121,-175.550818621315,59.1547957266459,259.150062982437,-506.216270087962,-1160.49679079768,-36.3929150105932,66.3580625146118,11.8287981795954,-655.361940168106,-324.752560571459,-249.434563719846,-494.570477987574,-700.846887513402,-663.570684743667,-692.364083534215,-697.435794303442,-691.738086666283,-670.648277035177,-717.304356864704,-593.764104635546,-653.733626908649,-695.726909105615,-715.531799980282,-589.964250484906,-699.687294427735,-518.707364201782,-600.510076579054,-657.929171936619,-706.694656919219,-528.977796208901,-671.640545714969
-633.343439644687,-725.63656390025,-607.350322378656,-701.294224109435,-780.014486009471,-538.154803625654,-667.267299026136,-747.069909087619,-600.855698889397,-709.232124911206,-799.082555486518,-546.31696320467,-658.93004513197,-776.997383236521,-577.186255342582,-709.329094129914,-497.993306686326,-718.060919119747,-837.908760929231,-682.885734835443,-837.24973037835,-699.223714100454,-899.247524242804,-904.267645971777,-919.982561942907,-927.68440243217,-622.313133223348,-603.666763319967,-347.314136965164,-348.334222013848,-100.219270810225,-342.191317300799,-1532.52654166905,-214.801102851092,26.1194307527215,130.054273876285,-813.402874894746,-1811.11490883359,47.606162766628,-39.2623836268581,-58.4298987415887,-1097.24235409328,-434.559960491268,-519.722124506393,-1045.0483185074,-738.420360544995,-763.970027064418,-752.916891955125,-780.13065692152,-794.708297278159,-721.69688753935,-802.64981477821,-649.971278047589,-723.681288200651,-778.693025796709,-811.429227109157,-664.985936589193,-791.705852814561,-585.885760637422,-680.691337955865,-741.582676061265,-802.434537979338,-602.40548024265,-762.766784949054
-643.41779255456,-740.445260277085,-620.105508588448,-715.630254165909,-794.507805160181,-555.338757611915,-697.429504875482,-766.781367128374,-627.889611939412,-735.307760487695,-824.815777074775,-566.108932015241,-695.932297386143,-810.509618980648,-617.508446453868,-753.890553629488,-553.437528047541,-761.761764279147,-902.21893878881,-738.396478079026,-902.315582829945,-778.921260536831,-940.691166419011,-980.859814981811,-992.414431653474,-1019.38769393485,-779.022756054416,-689.787847149146,-613.790625154454,-436.311639025683,-223.814606830675,-619.383584894334,-1804.67837143433,-320.296504328098,-92.8528120539986,-49.628120014527,-1048.88113254357,-2262.99992453269,16.9669169705368,-178.659894303229,-135.335933247579,-1456.23409389751,-457.82303177998,-743.043175078286,-1541.08917659943,-720.669197531619,-770.746839218967,-748.262171449052,-784.449336415088,-806.280427563297,-714.127376571832,-807.74068242385,-646.440534982951,-724.326223930201,-781.240743811762,-819.649898561863,-666.067838897256,-803.893087603321,-589.620175642253,-688.990614194824,-751.535043461023,-813.393391313337,-608.536373049041,-771.592086548194
-568.958459593399,-665.872656789781,-548.003317817337,-632.992235477002,-711.447592191454,-493.12518763241,-631.891207323134,-690.63600214462,-563.400346267696,-671.073049864243,-749.82297469372,-505.245505366993,-643.484021573509,-743.629722481275,-577.286890618927,-711.274084066425,-539.717705324327,-734.390370452426,-867.878865090078,-726.79531301644,-886.150839749421,-812.716974814424,-933.41860483174,-986.799634994035,-1001.87367158836,-1090.21079584277,-895.340072686884,-754.26007071605,-895.493350952773,-560.619701715284,-392.203505467423,-856.032434718896,-1874.83854125404,-483.485968129668,-214.439058638834,-294.702335945071,-1206.21329603735,-2449.01709626749,-151.956809372091,-289.242582718573,-273.480639558901,-1680.69898597922,-387.837572934339,-892.906518062455,-1941.7934724986,-723.092729405794,-701.30610428246,-719.3376236063,-729.050566245846,-727.78990887525,-677.911901246706,-736.66935831309,-606.760179683618,-672.683949653923,-713.175191968789,-742.051561506692,-609.771622751185,-729.832053725795,-529.241919272627,-625.004982995508,-679.506874355743,-732.87662102572,-548.248450851417,-695.038306442865
-447.956041972193,-539.769296000891,-428.732205376913,-501.18979898213,-577.567706921499,-384.980448482108,-506.506639671812,-562.010100910158,-443.242395355403,-553.01412669656,-615.778197910988,-395.222334359654,-529.821756504859,-620.929051203459,-472.173399908941,-605.490413212006,-461.932761091859,-646.079870649688,-753.508750521032,-644.754979823318,-788.475368411872,-764.111296125426,-854.820212629536,-902.106980285547,-914.230222154989,-1043.78813481987,-915.363050528428,-742.893206231921,-1020.88771603552,-597.634112435956,-548.945890712805,-1053.53091247203,-1774.93784784322,-595.812025557491,-242.817271002843,-549.046503394679,-1278.04305873567,-2326.03708338522,-336.079270289283,-323.100340320328,-491.862612303391,-1722.96437480419,-255.995326439414,-969.209293975611,-2130.17198473447,-774.264756011642,-622.96979004815,-705.869311873544,-666.30878858105,-626.639717688111,-645.468107856264,-639.76450936562,-560.780339279532,-607.428956971831,-625.145634545827,-634.342830638434,-538.486703375089,-623.186100326157,-443.624759964422,-532.317720599953,-573.933954489225,-614.200991915182,-455.828211269432,-586.293889357251
-331.194420125664,-416.392729542689,-313.299207027065,-380.183034578302,-447.24781053834,-279.190566621169,-378.082283885536,-433.207962724116,-324.284657029308,-428.589431873068,-476.830775367408,-281.714758196811,-404.499599406994,-492.592789600062,-351.393051720491,-479.671546967502,-357.560138421499,-518.891332479396,-607.384336518902,-523.700336127405,-643.449890974255,-648.522872844863,-719.59832916539,-746.852862414648,-772.793663073841,-876.620536605247,-836.727606488031,-715.859817493378,-997.374000756241,-591.583487077808,-666.722124386349,-1183.81128706935,-1578.34477344582,-596.989838803696,-226.290561653562,-715.986754274882,-1293.34132128717,-1966.73210700592,-418.049106949186,-329.827471116481,-748.823179732286,-1598.60844561496,-129.365985217196,-1014.02845396736,-1981.00120794909,-827.464602509981,-581.758900357009,-702.808974804457,-627.075779974091,-556.205669163538,-622.756998739755,-565.269933574529,-516.08950463593,-550.361833217884,-552.688336827775,-543.102460135772,-474.950895456717,-530.778733657083,-369.744951286729,-447.583260417127,-483.146678337552,-508.72439544861,-365.122468786288,-487.457421301445
-246.684797558187,-322.176426057476,-227.550024824813,-289.032684738847,-340.098441163468,-200.07561728361,-279.38007655701,-324.309137905702,-229.866831403468,-318.664232173433,-355.915960791279,-183.618288335374,-292.969530266061,-375.384784847275,-242.132446456547,-355.411745214867,-250.710416336139,-377.459013392142,-459.711778400624,-390.048658857989,-481.076607981922,-510.981184565792,-551.321298335172,-554.644617038021,-655.555652851896,-637.294824696063,-702.768206631773,-712.777082221268,-895.039493937532,-628.398284980487,-722.079331820122,-1207.80371814774,-1367.17096058047,-515.228595218452,-254.286586567964,-765.957102631582,-1287.37666034829,-1609.69869219888,-382.196214830116,-354.427393847071,-959.801711570011,-1410.42047038293,-71.0010132148379,-1052.64655702669,-1591.87767135178,-826.108947183782,-566.963206549023,-682.389286149641,-598.001330644187,-511.764848053333,-596.693858319026,-516.122919058131,-471.89453162982,-501.361142576833,-496.047746342997,-474.231478165218,-420.684766175872,-457.382467959611,-317.767222243324,-381.461364813042,-415.579116705062,-428.211071379119,-297.674512484246,-403.802176887153
-195.491442148957,-252.182117436132,-177.21591409258,-218.158994142735,-245.923241017704,-153.019012894352,-214.150462835233,-234.019923540667,-163.599151509504,-227.436054006262,-251.955637728805,-114.081548906385,-205.793657198912,-266.738128755037,-152.522319166766,-241.13580504824,-158.195058935621,-250.724100615098,-316.07019715832,-258.849519709546,-313.163289873888,-387.729616358435,-365.245683848105,-345.259364715306,-572.090571426277,-369.48238369092,-585.746336647861,-635.273506871687,-703.051260601521,-643.613898908188,-644.025049857438,-1076.64658246758,-1149.74694817062,-389.90144263468,-262.206669981453,-726.288330697819,-1202.2701738189,-1404.36385171078,-266.459784439746,-321.019805237932,-1003.68697298498,-1229.58090992501,-55.9873907123488,-1002.95644044938,-1195.12387849227,-736.757400571605,-496.128409848633,-606.634064056446,-521.003198330032,-432.351184989404,-541.950925136991,-439.595790680017,-427.27326133859,-445.208857092088,-422.562557972318,-392.841793187362,-368.431359978322,-375.507246500488,-281.681537799993,-329.314349537032,-351.639030560388,-349.230815314124,-261.207827064802,-325.326661773541
-143.184094057018,-165.758628322297,-142.421237161724,-141.75026955446,-131.076561345033,-129.567830510988,-153.942911062538,-137.182839673266,-121.065351371835,-140.309657978469,-139.323573233193,-85.5693490156691,-136.234899704544,-148.839779557899,-93.9900408408448,-139.590800972294,-106.165628418585,-145.352161615716,-165.577788117249,-146.151576512577,-138.089012823738,-299.206569097838,-168.673827408625,-120.761201414025,-458.927911298129,-90.2298513374294,-566.497482640618,-368.012383784611,-370.983531572469,-524.380690479359,-353.805509501988,-737.419826232902,-839.305565273043,-237.5669047637,-86.7789784416252,-596.441199660368,-876.1021101186,-1186.26732350307,-88.5866539785765,-109.68573678949,-773.615926457115,-958.826420562321,37.1779716303995,-710.148797625654,-782.153416387524,-499.578176657171,-247.789614398834,-399.211863246165,-302.671765231931,-213.484232338673,-393.665564640776,-245.271472137066,-338.468179070351,-320.734013780985,-256.818248455715,-216.984425210403,-277.742696363782,-222.217589760592,-234.049922090601,-248.275477837709,-236.532357018759,-204.31030342498,-222.638610680044,-207.536077380703
-27.2633424582363,-2.21142470040121,-65.3809736429474,-7.12323691513049,52.942119381801,-84.2905618553916,-39.9068107541706,21.8331482894544,-54.9652142531052,-6.97437135939347,37.4372943459858,-53.1639738391867,-34.1564490910514,16.2325275908264,-41.4410631446908,-20.0961018681738,-77.8592051000822,-22.5947061921056,21.4778842806617,-42.533456226445,53.4487719760408,-226.889804113845,36.1587199156542,115.720224984865,-273.768154976187,172.298025520306,-616.24526698915,18.4549168908513,61.3024042113141,-283.023205856559,69.6373145739052,-205.848357300784,-379.270764154136,-84.8894922531896,265.031487615677,-402.946787737014,-259.864764585047,-715.594384243049,110.652949986837,209.539917171617,-343.186427948469,-480.551275891935,230.562852626292,-178.712103620371,-191.690725474181,-113.161604217294,156.438218985522,-44.5356162742438,62.2975738921819,159.01890038831,-109.734154081135,86.3149274397045,-143.740708547779,-72.1348443683415,38.5825540897785,93.8533724709119,-95.6323571547407,46.1754653845498,-124.476591220842,-76.2374267129338,-14.0414118768402,59.447941796479,-113.152072714027,8.68367450312826
176.07604051269,244.395874784486,99.1413490128405,214.130756231003,311.212411175686,39.2381431866818,158.54150761105,264.298107628139,96.1233643056407,205.671157089965,296.78650565252,63.286440876393,146.138909359908,243.190100027175,70.8206866770109,159.913791242974,0.556018879927783,152.338467396126,254.69235502598,90.9620257806259,251.552674159468,-114.318115447163,227.002322355728,328.449091602234,-45.4934496297028,335.271156161842,-561.332729341738,312.239397596208,436.777920055327,-27.7028253028359,343.112542042416,351.35784732829,153.107745407633,11.5634475187441,528.549369614362,-268.966336185589,384.773273491696,-28.9204482037168,221.12452486732,355.44545465089,1.124347204819,98.2732045944068,332.721298567923,318.816594766087,464.25283682443,255.563430513922,499.894073954569,309.931513248338,411.999855873567,515.813817210605,220.919932162388,428.140195057203,124.671722257362,234.836632255885,366.018728391904,435.046957338529,154.875313633786,362.745682253184,63.6596985265014,173.93173955361,275.193639124416,376.973905566942,88.9814424113679,297.085446130762
372.161998849608,464.946780404403,280.285500473081,429.460458949726,542.441067393556,193.331478251622,353.781272107857,489.279376054293,275.750480562005,411.547926924063,534.246521170571,223.000019504812,331.491636683026,449.12440991619,217.499073616283,342.531876665703,127.240741029399,313.094417873881,447.293432680661,227.228401310213,382.791530376045,38.5389899236488,330.855985953557,426.791153041986,147.78791321352,304.830623362012,-324.580669959213,395.527349138194,572.7747684821,139.090031083575,267.508093471161,651.682420229659,586.732870675108,1.601614980796,461.317054259237,-269.997034382409,670.699768879953,578.20233645888,158.266905236811,205.6733912304,56.1848101348344,519.743986122597,199.978834374081,519.233614537967,834.239676060771,456.017424444758,642.352528721451,507.437903681897,594.781108663848,693.135032294558,441.315315507156,631.943542553522,330.06174707542,448.693001963402,573.51778925968,645.625821717977,353.617512267948,583.963340130744,242.472681854433,378.979941055897,489.739084454317,596.826501630808,280.840327010988,522.13930129743
409.450402344416,512.091926128413,317.028490331547,476.248389719352,600.956161739664,219.086894363278,384.652530035175,535.651644314798,309.099209353383,446.920106608308,589.390856661403,246.407387324321,357.650924819582,485.516076237838,237.752071051513,365.472817364443,161.390052862051,313.102944263349,448.325462719453,240.257582834481,339.500203704687,126.116610949062,261.528793561713,311.650796388241,220.702065079779,69.8947145726919,-88.8923375562612,303.900862070641,375.161661097375,139.995698799933,-4.28164383847546,513.627225816187,730.767740439543,-113.911425924043,127.164545159654,-304.99953793689,496.650314047143,785.440703732279,-62.9350069315046,-14.4675536809819,-61.5186492284016,589.091992101808,-48.5467003000603,414.680150100721,679.122445522956,554.491343792581,655.542155810575,564.2989704352,629.150447987945,707.763812569023,506.154797051528,671.172987610461,385.200817302409,497.601856961824,608.700969864715,672.22840029196,402.309055849792,627.25864637362,284.508409666988,420.766279263677,526.341646466537,629.933614848568,317.692011217923,564.494407192018
276.220467959749,381.070169680447,169.314092414439,332.731535131935,469.783481937169,53.940544869817,220.107776755185,380.870219825442,133.674090853418,277.601188356665,436.567258078023,54.4606258012081,179.48061694004,315.482101077353,45.0226598997146,167.535301191773,5.52275061106032,107.199180907302,221.862564421563,65.5871244899071,104.630635550799,59.1092007670215,19.7640951011005,-7.46417874889306,140.803122165991,-282.648881673103,-44.3454051920844,102.505733432596,-88.5247335186436,-35.7641580924877,-207.513485821091,65.2571743568344,468.490662326119,-293.117194764258,-201.938369578258,-279.906880028404,91.4813455830684,484.100325737855,-360.7003892684,-117.699573411832,-163.847921817705,267.340742929401,-262.646149756991,59.617940283113,70.7728610414006,707.561974392656,637.983347310748,612.02876646504,623.328066165392,662.059577169306,532.804148905117,627.424136625337,376.357965988011,471.505059072726,555.560581026024,597.615759514746,356.936197685228,552.621266998896,205.52305156365,339.528860679138,440.497916191051,539.519189247068,213.513569737957,463.636960524596
135.962571840403,235.843895616448,-1.23201036793493,166.418353619182,300.085877089062,-153.242780710086,22.3709891000405,184.938143862798,-89.6170060676845,64.9894026768382,226.9116678246,-196.923872588601,-49.9450484070683,89.7417109977984,-222.583157884112,-98.9394870312226,-236.917167212861,-164.760606068222,-72.288461718244,-184.117466570084,-193.120226890961,-106.820160775598,-275.99524654213,-366.455534258389,-35.6147038092841,-627.5899050137,-114.499533889284,-136.836829853942,-582.979982668242,-250.157500819655,-346.748517789956,-376.071486795083,-90.1093993976089,-457.852411316872,-370.734907516433,-285.186290062696,-347.202970264443,-86.2026627836517,-602.523460764684,-245.682639932428,-324.026422857169,-273.024712469228,-501.897694884364,-581.091328491139,-587.067245973124,957.269639208936,621.096855808188,738.811143623288,654.433724710293,621.635370483252,647.689279693965,601.248582466058,452.353065118557,512.038704180747,538.81764923706,542.754279333338,364.699455258761,496.658942406869,166.496436117051,295.853882858991,383.584368291763,467.909986305947,142.070047370616,377.86968432143
95.6858005217513,180.080431485741,-58.5638773997888,93.6264007699192,205.004021972585,-241.940509923018,-71.3146932848469,74.514789703668,-197.175834315003,-49.9613337026896,90.3594196079813,-325.631481276878,-181.189102813711,-46.878615651609,-381.836873160708,-263.562791467647,-396.67638813878,-347.40506773827,-262.233753520049,-360.220957315708,-405.215932129252,-252.72560255447,-502.054985068409,-583.661921403529,-236.687226056916,-851.40970439267,-130.427535781376,-329.669074308399,-823.933626053696,-323.752912168414,-545.428346133001,-638.021770427088,-622.640771539023,-486.213820058463,-469.787694246376,-388.907798325279,-785.715313419931,-549.298393883158,-648.984168505013,-552.862856790151,-674.708733712631,-754.738324767331,-858.493700576251,-1315.2306189673,-900.406644219528,1181.69237447701,601.985593751655,883.704498882237,698.942058305923,577.370409579473,793.400848491529,597.967336678901,586.902066306716,604.415238787874,564.417998475675,520.679545681084,438.551222093223,490.989054285352,224.871483872436,337.358720193505,394.707396598251,447.797412158942,175.47716525863,362.764595556615
54.8675882329067,107.841643616482,-80.363683576709,19.9610507797854,100.573407628734,-255.620210149259,-126.322159504419,-19.6704346834737,-235.972138241038,-127.175946518439,-27.3120110945336,-357.871665701501,-252.044451327402,-144.003991977421,-438.848080020549,-351.257548561369,-457.772648960281,-446.206015769501,-366.982317531495,-463.077918100417,-521.843750455668,-368.535806556661,-649.381909313166,-650.300335841313,-470.643026317172,-912.917677565522,-133.128216517005,-498.397530388736,-752.039443952916,-296.399902730861,-722.01266059965,-816.172998942633,-907.916015123369,-340.069992569919,-687.285378849394,-465.772800405099,-1176.1245195531,-777.043040885458,-511.906611703898,-918.745817388207,-1070.74043532097,-1052.76538811996,-1230.48296594044,-1660.1429967589,-954.309750732539,1176.31072827035,486.237396306593,856.957881367121,610.004441907497,418.722608738558,761.156596651632,479.344932264707,577.10483576434,559.218033934299,478.070643777528,391.677025001784,410.122760115235,392.185860346836,231.373043128077,311.315020010352,325.905662240784,338.003324726086,171.357700789721,279.715735529788
-122.759741133666,-119.35925342888,-210.160545051623,-184.579659679736,-147.378226081104,-336.006766172393,-278.78499746343,-230.170203687243,-348.480396374743,-300.743025559163,-254.658501725672,-433.00459473872,-387.568711681624,-335.528285753125,-518.42312334898,-488.299712782472,-520.376710733162,-560.257436902835,-522.296525626266,-584.646945409931,-647.643758876525,-520.691398807992,-786.817956824137,-727.492416892154,-761.362358623944,-903.099280660063,-268.279480184988,-770.996536395919,-662.620316168145,-418.559499425733,-763.777671870785,-1078.89149749829,-1047.84320129834,-186.88489715732,-1114.27276747345,-469.533990323849,-1428.66151378298,-922.263405481879,-429.43227631638,-1185.54384443926,-1300.75992005073,-1223.49708862002,-1468.12066031589,-1462.53007609069,-1118.43455203758,831.141630737442,127.251147775095,528.191085970741,253.936536198867,26.6805411292211,443.660971399049,114.281851715268,315.710417313885,255.778452024727,149.581909193874,31.5513511944805,165.385219099248,67.8323673129725,56.5171586676614,83.0253875905645,43.1158162479758,12.9744848324484,-4.30310082000458,-5.0373159309048
-392.007855275311,-451.926532596999,-428.7427644943,-472.023610917973,-496.48447203445,-485.584876306099,-512.121224097266,-533.709855405882,-535.200276559992,-557.175376817921,-575.718345006289,-563.571886573828,-589.114700626837,-613.376853795127,-636.818200643952,-679.562610623846,-603.879987733689,-708.288779491441,-753.668282366222,-729.183043609914,-829.097146747671,-690.595157159325,-937.313827735344,-923.477737520798,-1030.3935166319,-968.999298249358,-509.560866679031,-1159.11711856318,-856.703781448356,-833.421768899054,-826.30735412179,-1415.81889268579,-1234.99338410072,-222.262187398392,-1660.85979573926,-625.023340065416,-1536.36529076644,-1079.8534932278,-633.794874472092,-1390.54926337669,-1414.23691454141,-1329.74881466119,-1586.6944240076,-1136.05052351016,-1416.0485567028,242.554935941837,-439.529763023219,-13.5401731166868,-294.439704657681,-531.047854347291,-37.6262458715767,-419.062351894857,-75.3879872321747,-197.678028375266,-339.514773462641,-477.930291785126,-197.747099419211,-404.554110562703,-226.219624358783,-272.646795836021,-374.145948310817,-444.960128307671,-286.911291130211,-417.606874601846
