4.05980052348045,1.88490738590164,3.98730408556116,3.11734683052963,-1.30493588254729,4.6397720268348,5.14724709226986,0.797460817112231,3.4798290201261,3.4798290201261,-0.434978627515762,3.04485039261034,2.75486464093316,1.88490738590164,2.68236820301387,0.0724964379192937,1.95740382382093,1.01495013087011,-3.84231120972257,0.507475065435056,-1.01495013087011,1.23243944462799,-0.507475065435056,-1.73991451006305,1.52242519630517,-0.217489313757881,0.0724964379192937,0,-1.23243944462799,0.289985751677175,-1.01495013087011,-1.73991451006305,-1.44992875838588,0.652467941273644,0.289985751677175,-0.362482189596469,-1.1599430067087,-2.39238245133669,0,-1.01495013087011,-0.942453692950819,-2.3198860134174,-1.08744656878941,-3.4798290201261,-4.20479339931904,3.4798290201261,-0.507475065435056,3.04485039261034,1.37743232046658,-2.39238245133669,1.66741807214376,-0.724964379192938,2.17489313757881,2.10239669965952,0.724964379192938,-0.57997150335435,2.82736107885246,0.652467941273644,1.52242519630517,0.507475065435056,-0.144992875838587,1.52242519630517,0.724964379192938,0.362482189596469
19.6261430582829,11.191232121674,19.9346170554729,15.8066897264687,-4.23448716968544,23.3930447418226,24.713555781619,5.01637282954855,17.3091701331292,17.744148760645,0.690900976431041,15.3901993444657,14.0142235681309,11.8437000629476,14.0327118136437,2.15640489206603,10.6652688107261,5.61337603428385,-17.8691968468389,3.20541842569804,-4.30844015173656,6.28287567693845,-1.3930074777157,-7.60338671673485,8.16632651870825,-0.379513890977417,0.416490382002981,0.797460817112231,-4.61545760479469,2.53591878304345,-4.09095083797868,-7.0234152133805,-5.57494299912646,3.89340631386541,2.60841522096274,-0.560026713709736,-3.98147790903383,-9.53938920677932,0.942453692950819,-3.58347577254362,-3.23948182845994,-8.97790594893776,-3.92746971662731,-14.6268019301153,-17.5592663055172,18.3241202639993,-1.17551816395782,16.0426672857393,7.33334575470229,-9.8293749584565,9.86926453774574,-1.62752849285453,11.7697470808965,11.4982495747321,4.3098966958684,-1.44701567012221,14.3582175122146,3.53092412426895,7.65885145327319,3.85788636697169,-0.180512822732318,8.23882295662754,4.16490382002981,2.1549483479342
39.9686676137951,30.7161307169654,41.244960067932,33.32843963704,0.31291336069327,50.2072559940667,47.3454310707477,13.7571753856807,35.7400008601658,35.4115820733313,11.5783885489901,33.3396857879187,29.0334275721443,31.927168827817,31.3986231392023,8.6795871346455,26.305459730918,13.2373632013858,-32.8821799930915,10.4318038980145,-6.75548645620223,14.873955909157,2.01035591380029,-11.5046559204029,19.4132785959384,3.36420496452829,2.67112205213511,5.81383364666078,-2.75730179591312,9.66516844527483,-3.83859723804956,-7.1577827335089,-4.17494864579457,11.1712524664754,10.6616303306322,4.38024606337946,-0.359133794074242,-9.47326424897688,5.9218500314738,-0.488185936512917,0.0990276614754691,-8.21655100833395,-0.930406658662711,-18.4449493401539,-23.3590564698377,41.8608519598847,3.98479143900217,37.2330921017841,18.5658136426644,-10.704247149473,26.7810533295533,4.46762713227147,27.9036194035318,28.0953783771429,13.5523887669334,4.46653616429041,31.5780449939536,10.5387293148464,17.6577889286262,13.6002458326869,3.91589861562293,21.5696834880044,12.1394364995731,7.60990341953857
47.7345463035157,53.0233372110281,47.0708377130486,38.6892529161554,22.9868556230755,62.9562121406425,43.9334110158866,23.1903267300043,41.5791538555383,31.7932314648866,34.9663655162268,43.7781625508623,32.6374616104571,49.8718921121825,40.885714099366,15.1279809049967,41.1521198119908,18.3572935752881,-28.8465512368335,22.9740898531838,-3.51161551839091,24.8137193203124,14.7951904735537,-2.22301758026204,29.6001042482868,16.354465557482,10.6112202510805,19.1360304048257,14.0085785963018,22.2405130713883,9.00627876973232,10.1875508493248,14.3660868633897,21.9090548516737,25.5611899765335,19.7389861307047,20.0445557720025,14.1406789039921,17.0510309826979,17.6611916666582,18.6318828446297,15.2980340313488,18.4659349456435,9.14150797715229,3.47987766609657,57.0794817896715,21.9712062335576,53.4994862589517,32.4601529202476,13.6397554069148,44.9934260311097,24.6112235813326,41.0110098906799,42.4015102235216,30.9993064505809,25.5351431598464,42.1710248994951,23.7704138333906,27.2081222386548,29.4729634341943,18.8841928466333,39.2221450758832,24.6450253037043,19.1655978305757
44.9548666547306,66.6467875428381,38.1651232833464,30.1868882309656,54.3379264939673,57.9657496531026,16.3575388671324,30.9093289843773,36.1118638343895,6.60045338977033,56.8419841050296,46.4880903150172,26.5188877025914,53.8963360930724,37.8074788099038,14.8480624325059,49.3488474641278,18.3525141328733,-8.8065708230054,35.8686512048562,3.70160559674529,35.192369559282,31.1866024380916,16.9726932108955,37.0548387390324,33.9857133683221,23.8067425861886,37.2900395156367,37.2229311500712,35.8181188617285,30.1185990908527,35.7350379134848,41.481656088359,33.2966525359931,39.7012947599035,39.6197468677612,47.5366675259462,47.0665427341433,30.3133445311044,41.5563719102981,44.7754490718107,47.9772593731044,46.049063426484,53.5624381722873,46.80025976324,57.0217074523982,46.2043740189426,59.1248838336798,46.9674711261562,53.1244480299421,53.2757679336957,49.8821892224797,47.7709883157984,47.452418830094,53.1965955870295,51.5836136825973,43.240239137742,41.3311459290865,34.0112921539687,44.1727656413217,40.4232824695931,56.0022729758436,37.4172083448716,32.6639945542796
44.8606943845914,68.307496512082,34.5258683688327,23.8556259692773,71.3863968050511,46.2760934721891,-2.27855308682075,38.5172127640176,33.3997220272688,-6.95680988819966,63.3607230331711,47.001676786266,24.5641479435145,48.4107878797078,28.9279327410514,10.1402377524124,49.9823762465536,14.4926778603159,7.05860638879878,39.5335632619661,9.60230315628694,39.4595379863634,39.0131622035144,30.3372571626951,41.3910836203032,42.2509469045392,34.4495379176815,48.6149313808311,48.5084382707904,44.088778343805,42.0161342205622,49.7065377335344,55.7548156047018,39.3780040717969,43.4873832076303,50.5577729995316,58.7518168593564,60.9980057412393,38.0570415122007,50.4052182057513,57.9781811627454,62.2578307294417,59.9002371983577,73.8075642153418,68.1318599338024,49.6923944229204,61.3835262319227,57.1297607698078,58.0840293830771,76.0981675094222,47.7725968753628,61.0947883789372,50.2914715488368,44.5385853872532,65.2223942559671,60.863940302988,39.7994221589591,53.8718537960814,34.9525443412621,48.8366023331012,50.8090670107681,61.7919274607762,42.3773819251422,37.7335757112444
44.4105145561652,62.8930357564534,35.0580609190018,25.9016440833048,64.4658302317575,22.1872775597471,1.44445290571003,42.5071667577555,27.2554665201553,4.69953605605315,54.7482631565729,35.7283264246539,21.1083689113532,38.9749023452817,15.4238729850452,4.83621455970305,41.665914562349,7.03110874339209,13.8656711495929,31.4527495288012,12.2919431931145,31.3073613149274,35.567454130805,31.1436219172312,37.9502321111099,36.1165900107949,36.6874429244077,46.6394671866888,44.4077820169354,42.5023112909785,39.0737003477699,50.0563269302911,53.3909467440921,35.5235099820139,37.7316461485483,47.8359316712845,48.7517690694642,56.626892183068,35.4915896421636,41.7418355163495,53.3227301963839,56.2220127126832,53.0199454356412,62.9657824473431,63.5943065222979,37.8580642158177,61.8262057052441,46.4824477576123,57.1766264205642,73.345606938146,32.9574262374082,52.1183612183646,42.7371351355708,36.1249856631324,55.2735434188211,51.0824179159193,31.6182500084854,52.1894676318243,27.167444113717,40.848203090299,41.6709788331568,50.3809324554097,35.8396119866908,31.6973350505914
35.0734344902207,54.2287233460944,24.6146617712177,28.8405272549093,44.0975474143411,-16.1780789340044,12.3582895126782,37.1285129828532,5.25747232330182,17.4198241117774,36.0300305594682,9.46977968718668,4.15548046547458,20.5320062553766,0.0962850453394702,-0.504219127459239,26.808439456069,1.13003458151789,19.2298513967193,21.9039245757659,14.0593800551524,22.2459900186486,28.9294458075144,25.7195295383259,28.3967356322676,24.5906676971998,31.893494729207,36.4057782037103,33.3974564145873,30.4279192046661,31.9270082982072,42.4196588267638,44.3955045800791,25.832182878735,29.2777752995723,37.2263273664273,33.2646685294434,46.9978285564754,24.6967806305193,28.7432502036612,42.1197846676421,42.2589478887295,35.3860069175587,44.0223059960976,49.443066961437,18.8048022834461,49.472260821899,27.9568675965323,40.2535473117139,57.201505859089,15.9035679068939,34.1683599473163,23.1560743141172,25.7680133068323,32.1220232850819,36.2738359501721,19.657675078535,36.4133992209495,17.0035056214582,26.234711834358,23.8297258487696,29.5949576143539,23.2541489606905,20.4849560514735
20.1010667905424,41.1501693586174,8.16022474504103,24.5884954213384,23.225784855137,-40.0002498689696,14.1343468490902,22.4608703635177,-19.6816896151843,10.2518360583295,10.1480151388251,-12.4851184779814,-20.0486642449552,-12.4227866694952,-4.38720826790889,-1.63971599511976,16.4554312746953,6.01997389114912,27.1743126081628,21.387881569809,19.7354559055482,26.2750456519402,26.9650473517713,22.7208237852954,21.2405217833821,17.2938506516746,26.3265851090921,25.6449233913485,24.0973040815356,16.1774684648372,27.2769963568012,28.8478483456895,32.5971118663541,19.6661897659389,21.5842233644697,25.0513852438525,22.9303966194528,31.6376195381123,16.4700672024497,20.0104108269083,29.4161749594436,25.1865953382809,18.864685632506,27.9955780001969,29.7510251435371,-0.311477370007011,27.2222574824965,11.3721121099769,17.3790061769944,35.4832647437154,3.54571920881826,17.2946525143964,5.29970630258184,18.7281241137382,12.0709377687383,21.1645025941862,10.657473398578,15.8406609594451,14.1895716368441,13.6960643092765,11.3069096458528,11.6626282898233,13.7301924831936,8.23347312697602
6.07454237313761,18.1763731696751,-0.0702618103538104,9.67115023785716,1.40475248050495,-30.8790428845883,2.04042753012545,-0.443018494622511,-27.5390383078443,-11.6234245496389,-19.7594632884506,-17.7529558226387,-39.5078342868009,-53.8257899469341,4.46411291224264,8.00403332741694,16.604896941402,21.3052746648281,42.8439581771088,26.0618630157935,33.3515459820335,34.5226342561061,29.3467478084679,26.8383268295452,16.8996931852825,16.1240103309787,24.7243597018885,17.5313708846394,21.4900645321993,11.1636353348015,23.1491984633732,15.8112189016836,19.3545489235121,19.4979733779905,16.223425849685,13.9367247334582,14.6147755679325,13.4631665974709,17.9961360974741,17.0863347001088,15.8136346888721,10.8750373322785,10.9992361047062,13.1355312833266,9.99174825718347,-6.65466588349075,4.66128507383975,4.32210886424757,1.17905703283438,14.0826160277767,-0.672652607809458,2.19528530825424,-0.669209041074376,13.541693518173,0.181869657272077,4.49282434549936,7.2826322147295,1.64047369128309,15.9812686069026,5.63073967212953,7.78796451986366,1.06193302331647,10.4566322366602,-1.71337873738109
0.381656326525003,-13.0274870479445,3.65371149122204,-3.10542066972786,-15.8241993288799,-6.45462412049245,-7.31726589386438,-17.3049181297404,-14.0298568901105,-21.4816524364096,-34.102462541343,-6.12918035937469,-36.0543244453418,-68.9775352407771,18.6296536742806,38.6453616701677,19.3519018786223,42.5215892034212,81.0276699445077,26.1125816520347,58.3383747899699,32.5668370249739,32.4202742797393,39.9695996630315,11.8953834001481,19.545491363409,24.2573238240713,14.2155278912105,23.4264410804524,15.4385669315491,20.27872854472,11.6234264187722,11.4727221619045,21.1435249238373,15.8582510065902,7.20002595965527,8.09501542400148,6.1145890946465,22.4118332522642,17.8860035524236,10.0159777735991,6.95115482919564,11.7077907322108,2.06098871794868,3.86037606641371,1.13595214819224,-3.13782802503207,5.7266395662619,-4.77468923085975,4.58294393952677,3.80978933401477,-5.18358045680803,2.58702857679756,9.89543245096823,0.248885575195894,-2.53059107667332,8.49658909687439,2.32060496242606,14.98220122547,4.98823012849974,10.75222518627,0.0792238384249539,12.5466385276826,-0.826677146720263
9.30319343712672,-39.5926668810044,17.4974566618586,4.57647909768955,-9.19141423097057,18.1214489820072,11.0780218851562,-2.52768238079827,17.5322441107633,6.56107858952908,-5.43628774718605,24.998883676798,8.16751391668803,-20.7425494701811,35.8133900760024,90.4663655913151,16.4805125533705,67.7330849690342,139.661467626506,21.4397737124537,89.2826810041993,21.9655288700027,35.1708769080016,57.5284193594658,10.0555687553137,24.8537579476744,20.855575575984,16.0074011645161,23.5695664521832,20.0929615241447,19.5516205691865,15.9509276239616,12.0920644473837,22.0273814088877,18.5049955309266,7.84502684068122,9.57342592077956,12.2687741723209,21.6718537606282,19.0580586863316,15.2661676048609,10.2242685844922,13.523748833481,-1.29451281172397,11.619055824567,8.73447350088373,4.92268526651244,8.97101819715819,-2.62009478987829,7.11987360089247,10.7101041383297,2.60999595226193,10.1662550454474,12.5292504505647,12.6605345491303,7.62518808997267,13.1659705688902,16.1592993101806,14.4547822620435,15.4838867649024,17.7889253710929,9.08543145047812,20.7905313663557,14.441536411237
12.9224423397329,-60.6705063934232,22.8789822370319,14.2159441518897,11.4286420408476,31.0025476149404,38.2487928285458,27.799954380007,45.2876147250889,48.9515802194198,43.8893959481681,54.2996073351364,61.3324340416715,51.6636464855452,45.233314026395,124.977533539056,5.4285258002228,80.8596405305933,170.905183492194,14.8193005974027,102.571329269481,9.27307499538368,32.3346809104394,63.6202449655826,11.6265078682929,25.3213849053836,13.2547568818519,14.8447579961413,18.542334962444,17.7562048831376,15.2867404585746,17.9377202144453,14.0495534323882,17.3353255481058,14.1538074312218,8.86987492444815,12.7159557622917,15.6939327415511,13.7619140387057,17.1706871119654,17.6387195651044,9.57865996597428,8.45941275865877,-1.4107509801839,15.1451751664502,-3.5059591196078,4.91306346726064,-0.940322394610682,-4.34979805764472,0.658892033141214,1.02265043553321,9.11273255312549,10.1430176103164,9.26591705595228,14.9519504282485,14.1504145120575,11.78182277307,22.7123164981234,12.9102872045712,21.6474651615075,19.2043547397939,14.1246358995752,23.8026139133494,26.4509233779425
-13.3711978296755,-76.5210655558965,-2.43763469137027,-3.24562379429524,17.2948683260403,14.3073160612769,31.1944145906243,29.3764288847771,39.0052875492361,53.9890538724069,58.5417167832264,47.3996492581752,67.4075663197566,69.0617247368781,33.8445288397115,105.337189924217,-9.05802849693335,67.2958402000332,136.707174098325,8.06410344093857,85.8867984190867,1.3185314885371,23.3104453941797,52.5101394369467,12.4166149222761,22.697883683274,5.56465344247514,9.32795520465674,15.8113508134272,11.7292792816201,11.9802119647471,15.8355749558177,16.8757024052612,7.46554117446289,4.84709959305762,7.42964461911817,10.8301846688007,10.790431126805,5.08478892018266,13.4557383279814,12.9210367755395,6.9997218195017,2.45255103205253,1.95038045450569,10.4311285035407,-30.7043323238328,-12.0403916166419,-25.7151564322488,-16.0486138326094,-17.3970303138875,-22.9182509215436,-0.981459198206282,-3.46394866693902,-7.90641929550992,-2.11097866985126,5.40197487049972,0.265357818260404,11.8811725374991,2.00752879898863,9.52176079360892,10.3579253208954,8.05257116078724,8.49040137419328,23.3465669331334
-46.2105545069889,-66.5300213549854,-38.7747545298261,-26.1054718811451,12.6212418184019,-17.9027076162499,1.27890273420944,7.71971853015918,8.13647318602485,25.366896477836,35.1485888240247,14.6998365194215,34.2228458690071,35.0766803800081,13.3503179946951,55.2495821023223,-13.8637225838844,41.5599023763791,69.5791050062039,4.62809552075805,57.5524956441418,1.97720966345417,19.0428902851403,37.0193112452255,13.7918330794912,25.2456355969772,6.115929841309,8.7763786534994,21.9525803780944,12.2887751103436,19.3540388169825,19.9308604117193,25.2762684971127,4.90097996571443,5.70565708726896,13.6144561950757,13.8843904242573,10.9130443679125,6.40114995004661,12.8157427914068,13.2068232085971,13.3839500373656,9.66833782552213,15.5626260745128,13.7286733346249,-39.3307487960316,-17.4241995384828,-36.6252814267869,-18.2389616675142,-16.1491115999638,-27.2848994124683,-7.49781081390471,-12.0389203753398,-15.4724143768587,-8.63723389112944,4.27942801874461,-8.25665548446409,5.65286060998597,-10.3959460417795,-4.28329394768343,6.00609272421284,7.04595513031138,-9.93254647489342,21.661825589958
-48.1540382457245,-33.7829643038209,-48.740191460635,-23.6174294808488,7.79726696179774,-31.1002775778799,-11.5792851954162,-3.87383683478519,-14.3028790158683,3.47578882874407,5.8353851421793,-9.02251942554702,9.24304188137803,5.89721264501099,-1.78565649253875,14.7491962924259,-8.11413627041294,18.0709205873479,17.334513102992,-0.431507826067859,30.2979788946086,-0.379269050798625,14.0607402291508,17.6693014262866,10.8879314476798,21.5151979012012,8.11878001822118,6.10343997516387,20.0630829368875,11.8217311439995,20.9331851859144,19.0411043058884,21.1534663244596,7.54123599127061,9.097293816407,18.1826276170829,16.2723091565047,9.92822241850411,8.70632762525553,8.36376740729669,8.9138578988862,15.4202143979412,17.6012771655592,20.8594048311565,16.6076941949778,-23.0166625830298,-6.80728325030289,-21.8813303530228,-5.15998910765466,3.81820266778541,-10.7426567182652,-0.613124998945349,-7.54972158713945,-6.9370580132181,1.89580700268914,11.5183557169372,-12.064376505329,9.83766948341975,-14.2096974688188,-7.3377607598634,7.05378972436344,7.7372730624062,-13.6337231781345,21.9495941123096
-28.627947401193,-18.4874549432837,-33.766319660182,-12.2750020082256,-8.91634175623101,-23.1247279234407,-8.27616587231459,-9.19761545421556,-21.4582680178016,-6.0761546454886,-23.1874073839898,-21.9840328957268,-1.76863780550328,-11.0462153943536,-17.5734131699798,-16.5397228563768,-10.512845555246,-9.40346310500734,-20.0174456118586,-15.4287700161337,-3.93078216736833,-17.8649473840892,-10.8960997495646,-14.4207854824918,-6.91488875129475,-4.22582965689524,-5.99071366425699,-14.8025386355936,-8.06632836257961,-9.6788483010222,-4.03396830306034,-10.0645257408859,-13.6216677357092,-4.92379640910403,-8.92081205311041,-4.71607364797343,-7.46830173650297,-14.308584661861,-8.06237893928709,-12.6885338732177,-21.2007560507784,-10.5608776178763,-5.5570420688797,-9.94502210330868,-9.33142775645219,-15.1467584694324,-17.2546090551497,-13.4654900809761,-8.32917066519181,-4.46710411928878,-10.6830106628203,-10.7839713621588,-11.5448491700832,-12.2054346893649,-6.80614406028212,-7.60085137573504,-24.1319454097856,-6.47205105018683,-19.5764761616069,-13.8546452992196,-8.72631978758816,-17.3244618002245,-14.0946468905814,0.0761268258744371
-16.1271816403856,-27.9622693297079,-18.0442670617999,-9.8068759880999,-31.5526679920949,-19.6246520541085,-6.047952760714,-20.000275532727,-22.7979330667219,-12.6325729315325,-49.433041989352,-38.5226964992662,-14.872194429567,-28.2532674084352,-35.2531540626792,-45.854206577877,-28.6657898538056,-35.9219792543464,-54.4691521399633,-34.0552264583397,-40.6527837816163,-39.4844212987242,-44.9638492710992,-45.8592690766401,-30.6292840574627,-35.7868487163538,-30.8926637181135,-43.1438474192458,-44.4866169778985,-43.0000213316318,-37.0851391393777,-52.0610565638304,-54.1236136207444,-30.4997509520368,-40.9262744573235,-44.9354744824404,-49.1278107482459,-51.3727737262573,-35.0546575881507,-41.5735932204145,-59.1340421569253,-50.0692729054763,-51.8432444417319,-55.7603246318766,-52.4459307382443,-25.3497330174295,-51.7097219323275,-29.7328216173117,-39.9925093043391,-50.5052746631968,-30.5915654031862,-47.0705946351006,-29.3721400247263,-36.4650341091273,-40.9698543058294,-52.388653463694,-38.6149899437291,-46.4320159411242,-32.1529794669108,-27.4033686754642,-38.6554376401353,-58.4562583129017,-22.7669270123661,-34.6605523766225
-8.50467517277263,-24.1777701986693,-7.94948050428185,1.33193582351595,-31.0526110712012,-32.3868716406199,2.11789905457385,-17.193480314819,-18.8432743600757,-4.85291048140386,-49.2321366745796,-51.9797636964616,-17.0891583503162,-26.7522276526335,-39.5405448603285,-54.6413857345877,-42.5391304478134,-40.4832182477222,-69.5897950823672,-38.1723212205772,-55.3682688314884,-41.911465977317,-52.7337773320834,-53.1911287303407,-35.1713322004968,-42.2594529804039,-39.3599142402392,-50.0735664924138,-54.40324121938,-53.6605697121368,-43.1159802646268,-63.6701697724312,-62.3333888325078,-39.9273839551415,-51.036916618137,-58.4821993775493,-64.5268781434307,-63.5763149448461,-40.6218791080016,-51.1464224435533,-64.4618452286384,-62.800429103621,-70.6370688201219,-65.1535251468983,-65.5693541696872,-26.2694522698292,-65.50126152905,-41.4203599118449,-62.5546021126688,-80.0940768971014,-35.361992106504,-68.2322851457487,-35.3535533318443,-46.8402527058218,-60.3330143583382,-73.8330893382238,-36.1310253016649,-66.0050608471152,-34.6857733489445,-28.8182288754396,-49.6042946240995,-72.1706946117439,-24.97684115874,-42.8184030784487
-2.28509471945821,-4.23738330005936,-7.4321795086133,17.7636047509322,-13.7305389593557,-55.0801028393523,12.1215790983743,1.398372072228,-17.9417289809477,10.3422779378487,-27.1791775996089,-58.1403659502745,-4.93396368535331,-7.61548768507749,-35.6592712297072,-42.6676820213941,-44.2400870674521,-30.9861079876954,-60.9839735310805,-29.9466825355936,-49.3779291453753,-30.0667337860534,-36.8191499829735,-43.1386942278597,-23.5432934163669,-29.6342794416546,-30.3965361440534,-40.1453956452115,-42.0924805493258,-41.7389964396219,-30.4144058949064,-45.2512972902689,-48.0708329931283,-31.718937190707,-38.7902127310516,-42.6655401015365,-49.3757020837713,-49.7536083014339,-27.1464356726736,-40.9346869506687,-44.5370122078705,-47.9853161551418,-52.2435739081667,-41.0317081321877,-44.5432437370723,-17.5490261786579,-49.2435417961243,-34.8882346741757,-55.2912485324647,-66.836434652347,-24.0382150197198,-56.8346681954694,-28.4556636224735,-39.9154570027388,-53.3698772513532,-57.9844411068743,-26.9270094889694,-53.9382028996241,-26.991604681335,-22.679602372075,-38.2204389121696,-57.7530674464536,-18.237432762197,-27.9801000817616
-19.3219178641279,-10.3416355546371,-30.421828682825,1.52270876868945,-21.7903504980196,-79.8876907317523,-4.71978826901493,-3.10533888239034,-37.6227654780073,-0.449827598612806,-27.3443011579814,-72.3806335749444,-11.7240741644797,-11.0490829951384,-48.985404495344,-44.220434005766,-55.8415590421871,-40.5628912768782,-62.76915301677,-37.2153814460613,-56.7274369215961,-36.8104102417757,-40.6533786309041,-46.1138401378994,-28.3380474939792,-35.8497253350182,-36.2904432839431,-48.0211732917831,-45.6398709762331,-43.5468938325164,-38.5951501419287,-42.8672606060296,-51.793533870949,-39.9818976743757,-44.1158096954468,-43.4091389761734,-49.3418344127516,-49.6890099599106,-32.965435754386,-43.8167402210777,-45.3714882733823,-46.149276441615,-46.4429007958274,-37.4041683424644,-38.4237266428189,-30.8919980184214,-44.0463923230956,-44.0284090752483,-51.5555586970104,-53.1774863273652,-34.3773905886733,-50.5235563708587,-40.3147134221954,-50.1410108628527,-52.5159544498398,-49.5958888977801,-40.6565272594118,-52.4261189166202,-37.2976981684308,-38.65271783369,-38.7391324931604,-58.05857903539,-30.4252948503091,-33.4360417724842
-56.1559413413673,-44.6950334014577,-64.0964385049356,-43.0993623014545,-56.8243846450131,-92.870523601134,-42.8969960094072,-40.1482239475827,-66.0217643881322,-34.8650296442675,-57.3184607568528,-91.3215663473277,-43.5161700996642,-41.724263271375,-71.7153953042162,-66.573284841167,-78.5447349003412,-67.6437957596043,-87.3475564754392,-64.1156114653149,-82.8985316266634,-65.1169867212647,-71.5700100860794,-67.1548032280916,-52.4271527716252,-65.6128903198818,-61.8598067785105,-73.2230899089843,-68.8937157238537,-64.4755399049148,-66.6946508809913,-65.5952492458217,-74.6623927833756,-67.4519638809432,-70.4370549995739,-68.3807218636982,-74.3428083205637,-70.2493399021618,-62.3330615755915,-66.7489703841421,-71.2674718868736,-66.9593977541741,-68.9384421690229,-62.2101434932165,-61.3049877788016,-62.4136978240052,-60.920432561567,-74.4515820066747,-68.6087690202972,-64.7322670680666,-66.2084762956571,-66.8864273328797,-68.480357761319,-77.3201378132066,-65.9196255736139,-66.4353217776555,-68.1447164964497,-71.6614531997038,-63.8324724257647,-68.8713819444837,-56.2239280717914,-78.9826003640831,-62.1477718080996,-59.6390825824593
-77.6249411084829,-65.9678951083586,-77.6180516335687,-72.2152071565417,-79.0067286730922,-86.3636775664801,-65.761043828626,-69.1056609281316,-75.4276470607801,-59.2632166327396,-78.8823127358807,-93.7778682107636,-66.2919869248167,-63.713154313765,-77.908833347969,-84.5077708919548,-88.199866619578,-84.4868184008784,-105.411875090374,-84.2456046367736,-100.963906926661,-85.7940017288914,-93.92539614611,-85.0149717831155,-68.7793053014261,-85.3372989964753,-77.5588667054255,-86.0355037601299,-82.4621643899217,-78.7421215623572,-82.7426614596912,-81.3690641936303,-87.1635606480997,-83.4110266830048,-83.8051535847425,-82.0144027855192,-91.1954369888622,-81.990933824733,-81.9512134900528,-82.1006045656801,-88.0418201457681,-81.8710900997888,-82.6560765172204,-74.6221047220088,-78.1258913028284,-78.5265021627552,-71.483874130737,-87.6948802881381,-78.038751592291,-75.1394018551965,-81.4101713144092,-79.7163325941431,-80.6239875107976,-87.7485757997613,-74.1308256755511,-76.7470483780106,-76.6225584383787,-78.59486715567,-73.9733585418316,-79.9282128237508,-64.6044146818255,-86.967023348524,-79.0320087531092,-70.9205927258256
-76.3127804597752,-63.2172777913535,-70.8085857668965,-76.44899574121,-78.3700789679704,-71.7165193903074,-67.1293791136373,-70.2227227324746,-68.4141486008761,-65.7319947441352,-77.2498688054628,-81.9279369810791,-68.3382776750253,-65.9276088450325,-73.3529830644365,-91.5978688504793,-81.8211333596542,-88.4225977581727,-106.550167109935,-85.4578168810956,-104.570206426058,-87.0648069472104,-94.6280009770607,-89.5605083645067,-71.1708949930847,-81.5586773006378,-72.6306301807,-82.143751449261,-79.1403337772077,-77.7124287217532,-80.3431977294367,-81.6785793807805,-85.4122891662332,-80.2173836596063,-77.8501507314174,-76.8985273943768,-90.2978527753319,-79.1911502994824,-78.536378431295,-78.0200658320179,-84.0663853060476,-80.0186419505394,-73.2193315987516,-66.9215688878324,-74.8840613069845,-73.6591236395674,-67.6141213419439,-76.7498889814694,-66.3168719281286,-69.7425256361543,-72.400036748652,-73.798050281018,-74.9251949114006,-76.5924054635938,-74.1508591659369,-67.0788860722467,-66.5231737640722,-67.3593342354851,-64.2301945635264,-72.8896029636138,-61.1848592137919,-73.8815943496882,-71.6277692728828,-64.8551385054071
-74.6582791353339,-59.6365922761178,-64.9163865443292,-76.0637425032912,-77.1257938207932,-58.618392941614,-66.8688631276451,-67.2392102021236,-63.7650349539727,-67.4123711350263,-71.038764586722,-72.5760625431368,-67.6208204580576,-64.0640860068027,-75.2810923525457,-99.7355080824359,-73.8247313394976,-93.4240652599998,-111.770481980449,-77.4853579718656,-107.077287177689,-78.7687346519257,-87.8071480118553,-86.0948823959547,-70.610220865222,-73.7588283709769,-61.0310594982804,-74.9700524876936,-71.279264190485,-69.3019936469764,-70.9692091053395,-76.7652847227609,-81.013504283855,-71.3845586852931,-69.8071643690025,-71.1124865762201,-83.6388152168633,-74.6777726154359,-65.7037631565646,-66.324903943572,-71.1871778123646,-72.2298575573677,-60.9291788191404,-61.1921337993537,-66.3230123554062,-65.8318071890816,-61.790862497438,-68.3764774968325,-55.0291908236379,-63.7065342747873,-61.6927660168193,-61.4337471579541,-70.1344088676863,-64.7198926173175,-72.5569040381382,-56.9985394736438,-58.9673445248655,-59.5571220415923,-56.7102546489406,-67.4362691005326,-58.5001546031851,-60.6417929803278,-60.9473067011228,-60.714061337878
-77.9507075585028,-61.2772476411131,-64.3703321996318,-75.8945503671186,-79.1297987257515,-47.0446028833275,-70.293787050714,-72.6874349759216,-62.3257563018348,-67.6723713812243,-69.5018300783278,-65.9739942416373,-71.2219798225521,-63.5633151298229,-80.1032439166155,-111.588664556967,-68.0520037689208,-100.629050030422,-126.574820942479,-68.0824344457984,-109.634233347515,-68.8994808534008,-79.1567430453573,-80.0486751847344,-68.2248293738494,-72.8269934684861,-51.4728996264177,-66.1807754434896,-63.2722096593449,-59.4335564839726,-60.6930085768242,-65.8020896858362,-70.9813606478219,-62.4864389141716,-63.6152479247695,-65.3533124287633,-70.558491185943,-67.1002687462415,-54.8847413356417,-55.7707877336783,-58.0268052710927,-61.6963504489091,-55.2606966418339,-57.5640017450069,-57.881797568374,-61.8793375870304,-55.3447656790147,-67.4333809581545,-56.7150360955925,-62.4004824824837,-55.921858224301,-53.1410030216906,-67.7311395176657,-58.3629220212851,-67.0039610457501,-55.7083146580902,-56.3129774052761,-59.1063565612412,-54.4142165167727,-64.3798967196335,-55.0779988131653,-55.5225956110459,-57.41709839193,-57.4810929879586
-67.6242615683919,-49.8367772114077,-53.3213953915697,-64.7773105148114,-65.229935386748,-30.9438454233066,-63.1590213107986,-65.8950077753651,-49.9259840867565,-58.4551164539066,-59.5440374221116,-48.8384863313966,-63.2266580762537,-55.5752514388758,-73.9531535586416,-114.149791730369,-54.9327906372724,-99.6470699202821,-129.281588128965,-51.6516050206896,-100.18507184015,-53.1559980093854,-61.4780240499933,-68.7190769657592,-55.6423620127945,-61.9912004534316,-37.6159538207789,-47.5883290641828,-50.6043287129816,-46.0509680450654,-48.4286214849309,-46.4113601851159,-50.2217213249966,-49.0930557515055,-49.9213350769611,-47.8021180026785,-45.2096132309229,-48.1967488842368,-41.479762004988,-41.5638909583761,-43.9606761211794,-42.1577666881445,-43.7725129301905,-41.2181570312996,-41.5814744933806,-51.1255386820858,-39.7443452077779,-54.6307457123768,-51.9886496069429,-50.8229082060966,-41.2143907528249,-40.164328046838,-56.194286695035,-45.0253398186514,-49.6704741788587,-47.5495960626098,-45.2197746439389,-51.0442755601077,-41.6525446073331,-52.2046320086433,-44.4237805738331,-45.5993733597897,-48.2730110354085,-43.7581405514636
-43.0805250589117,-26.6212552843899,-27.6905899690904,-44.4956076621151,-39.1819470437249,-8.43716402981244,-41.4170475403797,-44.4798685976547,-26.7344026294542,-40.9282178090411,-39.6185655193176,-23.5535463095787,-37.6275511223615,-41.1061124122183,-61.2462198261777,-99.8791984281943,-33.6258217045408,-94.0163539017196,-114.966150869827,-29.6542762329584,-80.4167832453028,-30.0479090098253,-36.8173303495519,-51.7639822378194,-35.8250161753549,-38.1405779240956,-20.1278844074474,-24.5377745008288,-36.3512830797768,-28.395266924805,-34.4883924965902,-27.7606768677192,-30.4475245946205,-33.7796431166086,-31.25716005481,-25.8142624033317,-20.237081492477,-27.4014056312824,-24.1368236426566,-24.6682974438006,-30.5985391578443,-20.4262280464389,-26.0252399239867,-20.4150510572141,-22.7176626233893,-32.5512307914327,-19.3390020040262,-30.9127744263481,-27.7674118067983,-28.0630263639133,-18.5804930433244,-19.1773001932319,-35.9218048336218,-23.281726034176,-25.5335841915229,-26.8992071732444,-27.5888907744668,-32.9123910346183,-19.652914530177,-32.0776971819557,-29.3380022548669,-27.5041018182507,-28.8208276124308,-25.8932376761291
-29.1527310180852,-16.7779256830425,-8.12345342930323,-31.484606851048,-28.4408382505062,6.23418381123655,-24.6382398826583,-34.6239184697373,-13.2555715471772,-29.8757521933947,-29.8176022790693,-11.2777141652065,-17.151920924833,-31.5158155468641,-62.9873470191727,-82.2421556729986,-22.1795832252007,-103.781274909005,-108.575190236773,-20.5259274936092,-71.0509254136894,-14.5645541558277,-23.6273845287332,-42.5720861188602,-26.5288277130227,-27.8638053610873,-14.8137066956446,-16.397404193344,-33.8515405359518,-17.5535924352859,-27.9770428699994,-21.258533747323,-26.0731463030826,-28.0863831967517,-23.5544696720563,-19.6250567984902,-14.4110626991839,-23.0874155596869,-16.6806623925841,-18.7998795595101,-25.5070409850084,-15.4469159581213,-19.3690820631958,-17.4446320338429,-18.2446849008864,-23.7923616879753,-10.1861566927311,-21.3403865315085,-4.37498979556973,-14.7792911311412,-8.61599416774524,-6.65870223327873,-22.4693311158045,-9.17278022481614,-14.418782011501,-12.1845943142499,-20.3639415436799,-19.7850253556981,-8.85690723055476,-20.1317304384258,-18.6644666141268,-15.0621655115582,-15.8349606686372,-18.8549231963159
-29.6392047242842,-19.1583932575215,-5.36050091825362,-25.950673966325,-30.4715171717456,6.38916138035005,-22.926763495033,-34.5046197848112,-14.1149778113286,-25.7309480294684,-29.0719992790255,-13.7066304283495,-13.8250510555921,-23.386516657773,-75.0569672572565,-71.5377198656183,-25.7086082909494,-126.117786282817,-112.329220350111,-25.1552584700105,-77.2354957403295,-13.0185688620798,-27.6994267231556,-45.6358958025426,-29.9314370758591,-34.7465138577669,-20.5901874566966,-21.2247700702929,-38.482586308174,-16.2270623517514,-27.7088307861675,-21.1118333464654,-28.0157264757993,-27.2365267339975,-24.6945794972222,-24.3659894550913,-17.0553004464584,-25.4519625800011,-18.3160970134256,-21.2011302215685,-23.5802486259777,-22.2243868443128,-19.2586227257258,-24.1770961172837,-20.9867129855133,-23.9434317279437,-9.41357857041145,-25.1734013198265,3.14187412585526,-12.2898753972196,-10.3430149489212,-4.35754931543827,-20.2826005193456,-5.50328712339024,-15.1624473434407,-7.71091858878521,-21.5301936102276,-14.813717231457,-11.6536475957647,-19.2313268115097,-13.3275101561532,-10.4383492487192,-13.753579321909,-16.9316940623946
-23.0525656686138,-11.4111069195757,-6.7491848377167,-14.5853565196889,-20.687939520242,6.15437643123042,-23.4356564076777,-22.7828525274628,-12.6596837400908,-16.8745824784574,-17.6006972897741,-10.3441807313211,-11.9367692099231,-9.66468242543086,-68.3832218789747,-62.9084751646839,-25.7280005782304,-131.294290487286,-97.4315831862897,-23.5022105101722,-78.8894123189613,-11.8693740529812,-30.9661545632975,-43.9006055675499,-30.109227114662,-32.9663989491213,-18.9146904075187,-17.4450537947863,-29.0736460784927,-10.7770468403441,-19.1083269847651,-13.4614922626239,-19.0141127104768,-16.2593514535291,-17.9232438049301,-17.674332547583,-6.70146721231705,-12.677012956435,-10.9158920283783,-15.7151366054506,-12.3352133794569,-16.2072543549641,-7.70866902711925,-14.8622917932516,-11.1906152840805,-13.0752267163132,-0.618787238239315,-17.7843304581709,5.34385866473668,-3.17479080227688,-3.28099253533204,3.68369024019569,-16.5860223680251,-1.8364339536508,-7.16894156045584,-0.042223892793126,-14.8412872258551,-7.88697577195542,-10.4025657147344,-15.176825281449,-6.51653316411539,-4.84616284287187,-10.0695895380647,-7.57702459626278
-9.15796548549897,-0.00130617396913379,-6.31327200528091,-2.35057302023301,-4.85027447574019,10.5644090702116,-21.1373309554146,-8.90075051133137,-8.74634154833953,-11.4779104029655,-5.36409503655006,-0.838827439532518,-9.27575899629142,-3.79763875898223,-41.7507836408496,-57.0781032421049,-17.8248166826708,-108.189810621809,-63.3853306366342,-16.2616637723604,-64.8298923302636,-6.80068136135163,-24.6602663375242,-30.8989446236811,-25.1868559320847,-21.1047381138515,-10.9088007694665,-5.25487853116275,-10.3666685231989,-1.80357462794025,-6.42545190106084,-2.56563118778571,-6.4634197814491,-3.39283298720737,-6.08005563058323,-3.55112176319967,5.10881804257615,2.91286672296763,1.9509439448007,-7.01896734634601,0.354619788247786,-0.415793827609941,4.50625280230461,2.35729805503978,2.74764022561644,3.94618669654864,10.6241149795469,-2.66530822686967,6.49560194158865,7.59466488218997,8.24196053659554,11.9591712464145,-9.07575923821002,-0.542355347124342,4.42958200340981,5.45397282368565,-3.16806688340063,-0.370424265294302,-3.07158160391888,-5.54961744894996,0.228133288044262,-0.592121295676473,-4.92654922680095,-0.0366982095971614
-12.7987862329479,-8.16521440691779,-13.614785756974,-9.23332164758709,-9.0451757720084,5.77714117095491,-28.0346525541332,-16.5804190678578,-19.2023614200503,-25.0860210430814,-17.6449637134997,-6.07271931421335,-22.9237139204631,-21.3774379181171,-25.4651956555289,-59.712772666088,-20.6084871375036,-72.5853760527826,-40.1199590913894,-23.3531257479993,-46.8672376611703,-9.99546570073015,-24.1797250385186,-23.1611287391481,-29.0486349892372,-21.0244099480704,-14.0764912390637,-6.70149971158977,-8.84975959696076,-6.49955176624877,-8.9198853074725,-2.68799444336191,-8.72933528767639,-8.23567976227411,-6.26673779289195,-6.17054997767458,-2.86849868161031,-3.75113355303093,-2.36514076183096,-10.8794540309352,-4.25953896788739,-0.824642852374547,-2.63895213803394,-0.660415496475212,-0.69436566789072,3.20634674564699,5.11119828314415,-4.32921312723324,-2.47440832910124,0.528280223136598,2.27463347395389,0.892331960005607,-11.8317478111195,-10.4475755446944,-2.21067574442674,-5.39323373609818,-2.367128075586,-1.5788191671636,-3.17608028594321,-3.85126014509952,-2.90950575402317,-3.93347657508453,-7.56783197421364,-7.65072271566435
-28.8409563749886,-21.9772774916423,-21.9478580980311,-26.9056416076342,-23.4980045999042,-4.26564522957922,-39.3039148594013,-34.0489501161112,-32.9774934838931,-40.605821204186,-36.1280669811504,-19.1153599468657,-39.5672013211,-43.7183011597578,-17.1558957149757,-49.28463038619,-27.5277630718416,-21.6846764248769,-17.7753930692331,-32.642766508173,-22.1332418296271,-13.8055982737387,-25.5388934301626,-15.4225502127446,-32.4089463977758,-21.9930652698153,-17.3665800645866,-14.711999068617,-13.7893390301962,-12.5343480408272,-12.6454664673396,-3.01567399959202,-13.0761654614537,-16.0644782902335,-9.8851217246706,-14.2728939500897,-8.61008312236586,-12.6406985299516,-12.8167540794716,-13.4723904990457,-13.8596741130183,-7.53378164373213,-11.0199005856605,-9.44269874981939,-5.79222165062225,-8.96263080216586,-5.27099269342862,-15.2186660707158,-9.80042012347727,-8.79560013042338,-9.77814651018803,-12.493224706104,-18.7137450435077,-18.8983844550194,-11.7986892726487,-13.5146431677741,-6.58375709904889,-3.71312519101564,-3.13463114731697,-7.12605605876603,-7.98820935323808,-3.42459636541032,-7.80038243855627,-14.7803743957355
-20.630575478371,-8.83423677907208,-10.8407662440597,-21.036476197146,-11.3575567704752,4.89531334546998,-31.5811971925982,-26.2155724484342,-18.213200482294,-29.8522659945105,-21.2250399210309,-7.93445855748662,-27.1688321382816,-37.0283441209846,20.6315165676453,6.63614796827282,-7.47773927634575,61.2109830516334,44.853795380927,-8.16871222819309,33.9354798880516,6.08009368046866,2.64626120713301,20.9421794307977,-8.37998840058175,7.28826688460715,7.70790140402655,5.01751161820622,11.6936707053257,11.11489461616,14.5481420987061,20.3851254525578,9.19319992336778,4.36731640498115,9.7586706804278,7.07363340234665,21.2243642011673,15.1460702453234,5.59313181108676,10.924330104536,4.27113351898153,14.8983868178246,9.64773544426399,14.0242136841562,22.6925966758868,-4.97847060631892,11.4759533973798,-6.90902551425536,9.0173693851534,14.6370337516722,2.89507707876081,8.42199036347512,-4.93260623241857,-5.06459070397175,8.32778019065913,9.22675531155163,2.64386637266707,10.185063258979,15.0749659768039,3.30282124280729,5.85665359031682,14.472976226196,8.79233299037422,0.875203701494504
4.44682625912545,11.1546989657909,4.88098444682172,0.941999179742518,15.3019716777102,22.3622336782995,-13.4875299404741,-0.692796092229508,10.5678944226133,-10.2729172434343,7.15036915158467,17.9522291798944,-2.61705333443952,-16.4662692321782,75.3269677493709,81.4842971383714,23.245026482749,144.513047577097,125.812472449168,33.9770863762143,103.93227653872,29.56680111325,45.0249064331549,67.3345509442491,22.5262816982783,44.4309928509568,38.0261407936522,37.9735593633085,47.9099568560537,40.9298955279325,48.2807379831825,49.0222286008741,41.2702310100936,31.5149439242963,37.2646231925267,39.2254187412035,56.8084298022266,52.759398467191,35.1548285336302,39.3458170428466,35.6192120024204,47.7185446324762,39.2434976265627,48.2189617184115,60.7983819809651,6.04983325435826,40.060485343613,9.3623279837816,35.0326477845448,49.5249320360117,21.33525721363,42.5634909304517,14.9686803521634,13.4396778514258,34.8177574032798,35.7975127249862,10.7386235291402,26.3036442531948,30.3756790920458,15.6011572902689,24.3357927839966,27.3901002276196,19.4638971843344,19.7571566743618
8.5488954678909,0.404374642520938,0.34269452874262,5.0221517271865,13.2108527779385,17.1360235580601,-7.99661721618081,7.11110305332021,14.6436528533544,-6.65819564018266,4.74178830217897,22.3885096410677,3.22784069495036,-16.7340110715373,99.0740634625847,120.240584493008,25.7262828547843,182.259986698771,163.539482713401,47.855700357191,137.656599935411,20.1487658971512,53.6883583180106,78.8005443540553,19.1110322497017,46.046874412599,31.4967059085429,39.3117092689456,47.2263342878312,33.4162409695993,43.3604782763,47.4215394014774,46.2605556507394,25.4120538652913,36.1471308752284,39.9608819367329,51.9530298146913,48.270139671278,34.0130332282656,35.0452911588665,38.5261640645569,45.1953472194139,40.776269807679,45.9005620907228,55.3029800424597,1.55712951822993,39.7342143156132,6.9549276797952,32.0267369182883,47.6462464735224,10.8442584760395,40.9207865012958,9.3131628988674,9.33564519536373,26.1388240202711,26.6610311661701,-2.93444147134388,20.0837647309433,16.4261409840574,6.87581677070042,16.6779544407369,11.8487012847588,2.24231387611838,15.079685878343
0.750212816849132,-18.7555239889601,-5.57608508039398,1.98781598678474,-9.03786212321483,3.15383347530634,0.223420490947426,2.51608735701301,7.23100519663789,3.76591501057535,-12.3730515429737,13.381473588338,9.94450832433023,-20.3146829775338,98.7904432378423,132.355158706346,18.4141469514189,189.049397304799,159.805937983254,43.5803982985566,136.654623038421,1.66181178640541,41.4833362588038,66.9836199928375,0.0471226915938721,31.7778895518162,10.2996057564516,21.25676171787,24.3107758940552,9.82068302254373,21.0372788902566,29.0945219856236,32.9182030203197,6.46448582238903,19.889892350222,24.3976208865378,27.2229304157816,22.3335326808078,17.8656942056868,17.3335435597484,21.6848868703148,21.2535644929646,24.4756595335244,20.5453975252782,20.1273666514203,-2.53972097880967,20.0896707170709,-1.57277803682986,12.9497312120399,19.2221713702659,-4.50171680381792,14.8183317540553,-4.34505458921314,0.42216822181078,1.76836658834343,2.81184906386943,-14.2531549250515,3.99000757132572,-1.57661552287576,-6.79220355534705,-4.2957530161998,-7.761568648287,-14.8065364731864,3.71899525161966
6.13732638109758,-14.6050279302465,4.91256533344528,12.2934787759278,-16.7630500233314,8.9529950734816,22.2628091793558,6.83796703187578,16.4571008311894,30.7962488022027,-12.6682738176233,17.1439360645946,32.4613755236466,-3.20531808381996,103.250128591984,150.600200328366,31.0777273049017,190.467042063154,145.985994339779,52.2719053158297,135.573706252023,8.47743319849218,47.8872441700794,65.1603254479306,1.87273384777189,34.9964736661371,11.8895515781833,18.8038587784262,17.9655720183052,7.51955717728707,18.0086331636074,23.2230665715144,24.3043767843484,7.66317014685267,17.5004106533961,21.9439151108698,19.7526033621275,16.2201570495843,16.8773813751929,15.2299470210983,14.3694655497608,11.8547830715105,15.5034367574126,6.78069712124479,1.5024186561826,7.66731931935665,8.67570124562403,0.387922766162721,4.6364522592605,-0.384155349375308,4.9498472913736,3.27465961512277,0.358638922274702,7.15261966134333,-4.05871392601122,-4.33870554693925,-2.2696141689144,-2.93993898818781,3.74579464868293,-5.63256255013129,-10.2004986686527,-7.99049513849221,-6.61380251332747,3.47183014869937
14.9184482487475,-2.80790454674942,15.4099631509073,19.152407058968,-8.97165839051261,29.0717807819061,33.0985570505649,13.435239055547,30.5461112153345,41.7924206848992,-2.52531448972303,27.4812711048768,44.6294716618903,15.2147959171155,100.699626003907,149.856629087797,46.6038833700044,164.523728331204,109.544039722576,62.3290831973173,126.748193475171,23.5240999472878,60.0433421723735,62.8296503502719,14.0095809952356,39.7747954935896,22.8813977071031,23.9883859748055,23.6620439673456,14.9000325899413,20.9390435533246,23.6728871213845,18.4176641743248,16.8745886542277,20.7314453405291,23.1144870071422,21.591894072919,18.8174435817844,21.3290988020826,17.5098758649643,12.7951606048753,11.3449541746774,13.6841684700016,2.56673051434248,1.2898734089483,15.1067865026493,1.0094473988722,5.59158120258575,2.44334794829483,-6.91903598177629,20.7533026807101,6.86286479513771,9.9332918372232,14.9074815513268,1.93006571902653,-1.72893715868657,11.0567076272079,-5.17652966001157,17.2188833563146,1.83039365663732,-3.23594703936935,-2.04296602166749,8.9683678420187,4.75083071092617
13.6218855879641,-1.60020487450567,16.7134343818661,9.27018217772372,-0.0476075134328378,45.6969048999744,23.5342803789695,13.4739679864421,36.296023152681,29.3719206550286,9.68724830110485,29.0191408322343,38.0505975623848,21.0546759679636,74.5614183889977,97.4695333206729,44.1788284793476,93.3124133741421,41.6054364040129,53.5331375102752,82.819469118926,23.0520560268542,48.3275464541865,37.7833515939074,12.7997680962641,28.9887042108577,19.6805010175589,17.8582286858212,19.2771241477631,10.6248717403368,11.5523425453282,14.6320175277358,9.65317635128491,16.1326663680388,15.4784138903384,15.4714819461731,13.9078199622609,11.1609791295407,16.4504374782987,10.6760462070298,6.6601406356203,3.75258307243045,11.2449901385543,-3.01221160154131,-0.327414822437143,11.5815395720896,-8.48641532337174,9.22838184113749,-2.09606439954707,-8.34369122055186,23.4164302690026,6.81581312069614,9.87948142490801,11.3780557709656,5.23219888010602,-1.14898545676329,10.6808679717972,-4.76904141176234,19.9179600973733,7.84213585750603,3.21557359063569,1.02756444900499,13.3588062858612,4.73128319300342
11.2174168252445,-0.934322171832706,17.5465900861917,1.24970664128376,9.0598924272122,51.4203755468668,15.9948451314043,16.7626752554321,43.8200807815014,21.73430059542,26.7538524644915,27.3691652754726,36.8703429420389,33.1132128019106,38.2788380243927,25.2988526008882,32.6986649073545,11.2782135062946,-16.0214318338831,33.5745266151119,18.3886553941065,13.136841489888,22.7915812304853,3.2587327099265,3.35265113072913,15.7041886372799,7.13626982518059,7.87274935904102,4.64384482920061,2.50393975979172,0.409806961186507,3.08561811491722,1.24881609538812,10.6381711967556,7.51598280019251,6.23465768698485,3.20236195987503,3.95661206132312,7.40638134324776,3.06490988603763,1.82056248197622,-2.06026926138024,8.41913925053457,-5.3349371571557,-2.75533259927983,8.59567885164154,-8.39162858788028,13.1117088535952,-0.754477344288317,-4.74785730560456,20.7487791064639,3.73915659325829,11.2872110060274,6.69332829960309,9.50131329143312,0.750834487590933,11.7231481710126,3.06906592269273,15.8094246657734,14.4034391332409,8.47543004162729,7.85273189331723,12.497606107747,10.8818660572326
21.3088366366446,12.4379155817737,22.5047427955615,14.067547415838,23.4626141472117,49.0199672508383,23.1494421833221,30.9472606639357,54.3424780518404,31.5179532969993,44.6176172901246,33.7519946151937,48.815212808752,61.3058424685723,12.1619947207452,-15.0911590204412,27.5028579592814,-35.4797482529033,-28.3203362735431,19.408690023976,-26.6449503207307,9.1103842575616,10.1081439383644,-13.2271596440866,3.15140815075923,11.1688474532591,1.0970444826429,9.68734090299242,-2.88187267812685,5.41171715832626,2.69204347905386,5.94915225031455,2.28767462301561,11.3519542365601,6.74252303634573,5.61538819457434,6.05004151337002,10.5107708522084,6.40893502501713,6.11492657350166,5.88724736656816,6.47278931154638,9.7058366965829,2.49751168749632,4.20812417203336,14.0847096007883,5.91123117283862,19.2348409859217,15.530251835535,7.13051586991068,24.4800595722233,13.1339856070194,24.9115797783354,13.903390636386,19.9819072128988,12.3532212671718,23.3646955525683,15.7895028946957,16.1494138543387,20.3841805599369,18.0801235368964,18.4832492676826,16.6198872326605,21.0798840478216
34.4881399418212,31.8117199352449,23.2989600699794,30.7328860407895,35.1242356219583,40.7372044444018,27.1804948184011,39.2258710135064,48.1264935597031,38.9328806532128,51.4476655236977,35.6487616475247,48.5051308103686,76.2337895568879,-5.54233047900964,-30.0641849928036,23.2126971076791,-47.8261695127594,-20.6013378502538,11.4977688599033,-46.0198642028839,10.1024600976936,7.26828678860908,-16.0732358404917,8.07208869238437,8.54117594773197,2.89110618503632,17.8604251677966,1.30607535574392,11.2480724837665,13.7461720358215,18.1288871119461,14.2146492424869,15.236408276199,11.2071781946767,11.8914906324467,16.416288973463,20.8043267003377,12.4149199389562,15.152916678143,13.3127861654098,19.0237318166828,13.2051486942484,15.1235871423155,13.6326297173573,23.1254990222765,18.9848366464702,26.3681966107343,35.4897330161496,21.4293929059435,30.7523202727129,30.9398217507191,38.7635311580555,25.1070211460976,27.6723371093606,28.179378910272,31.9609124045104,25.1754121006919,19.0809056495842,20.1294992692568,25.1423708433869,24.3721213854759,18.4568090065335,24.5563233392462
28.043665842647,43.807603574167,11.0651405378587,23.4830278391653,29.8463836510248,22.8073929350817,9.18623377309031,23.8055089093134,17.3106842206356,21.2465969274995,35.8790137629922,14.504623467342,17.2360629147598,46.7951124469519,-24.2087168417981,-54.467058593304,7.52251809534836,-53.8853681543706,-29.7763105826631,-0.978274045871933,-61.3387941427949,6.05032600953784,-4.2372879304642,-25.2684038938976,4.10787962896672,-0.356521054013153,2.503463637853,14.6221241249277,4.07027638692667,5.41215124236645,16.2430281391225,19.1990012623841,21.7492521159463,10.919145221665,11.5462334068142,14.0468310807097,15.1184645426049,18.157435891321,11.1680901197481,14.734405013906,11.9439121700963,20.2824686388304,12.2132044936448,19.8823034698351,12.0980277442755,29.0188486522699,17.7607549615983,29.1887408155234,40.2525246945338,27.4891911809338,30.4222758869557,35.4183676678458,36.8882714406978,23.2107464645031,22.5765551973885,30.9053015433582,28.1024117055536,25.2138081387472,15.5609243943197,11.7410910277624,19.3572805608012,20.9326916750474,7.21364404919694,16.6389969725716
13.4295435466912,55.1958290936089,0.254118568070325,8.65074128723647,16.9458554802149,6.59380771201716,-11.7064313859804,4.77267355109375,-10.5216270944179,-7.11578485459557,7.04106247001965,-11.3630833329776,-21.9654488076233,-2.9853086149383,-31.7144560305165,-72.9118044683274,-3.85671401857004,-51.1760180557583,-37.3920456690653,-13.6119676846106,-65.6754246506808,3.06877536323296,-15.4654833812071,-28.4785020764769,1.05269979282441,-6.16925340632147,2.01162706426948,6.35247628875939,5.80807281418337,-0.0683859198290224,11.9076158801786,11.7533957843246,20.2633769903917,5.79536151355956,10.900303432944,12.8340494037385,9.58368320762637,11.5698049703261,5.92484562928711,8.69156209387405,8.47118037176604,18.1915203756367,10.6666119234328,17.1227746823639,8.45254144474063,39.0054615470896,18.3215235978937,37.1099926811707,39.8653492460506,33.1308815530878,32.8562925419308,32.0826153163933,30.2458919264831,20.6238533776148,16.7414416207766,25.6368822771541,25.3048436597797,21.8589382582557,13.7271673396328,6.61310228937705,14.017837784785,18.4857569492774,-1.4548998706153,8.99546000832107
22.3869656746096,72.1568333086105,10.8531803641647,17.3035760627864,16.4796953069513,12.7820545490183,-5.85323737221324,8.81299497764733,-7.77753730376925,-13.3108448917211,-8.67855657130992,-11.1988523914962,-33.7440591436742,-24.5196390065577,-16.0087790901169,-48.0070602309136,7.85922873027437,-22.8458125703138,-8.56649837397773,-11.5621634572747,-35.1798591361745,8.45087084137773,-8.53614552255485,-6.41782634874636,10.7889974233103,2.85163058537297,7.64312101260637,12.3243462740333,15.7294192777849,9.11102400999396,14.8035046337647,11.062516991402,20.3809729732313,13.9152784709158,17.6411093772453,16.4675157927341,16.2650185306061,17.6688762859353,12.0762462151046,13.4310899917907,16.8754918491423,22.7550468986782,14.7376579975894,15.9919708255506,15.3031763564277,59.416687960884,35.8365773508,60.8984274406306,51.8669722903299,47.3117127105398,47.7544288475126,41.6640510274044,35.8592568892913,34.5935955216753,25.1155684779678,29.753866857373,30.3000334736449,23.9392620370612,23.7383293453226,14.2113789967448,22.3725115306346,25.6256026611216,9.347416732911,11.7921402422436
48.9515924055688,78.9492549909251,34.8159262282268,38.9687376979321,28.1169585339175,35.9832849578224,17.9014476265677,25.0157280418588,16.831925199527,3.40930835085492,-0.417728671120641,12.0724235744993,-13.9488449065611,-11.1204258914148,14.5106575294582,11.3870999256142,26.0364243067612,21.8259857422031,45.0427126100062,5.69979486740268,19.2494120809783,14.203013947423,8.65675741355986,26.3916098171689,22.6087663110237,17.8766908428769,12.6566582446721,26.3281356014768,26.587234006299,19.9407600264485,20.3089401773144,15.8980062153357,23.1945517518369,26.4301173146892,26.3240005948625,20.9338386484953,26.5802437166767,29.8155453973695,23.5723594473767,24.0531836269722,29.0633973100069,26.4092530536998,21.327729003683,16.9544771885232,23.2533199339811,75.4226080487572,52.3656961479659,81.3426595488508,61.8743643430968,54.5457689668931,59.706899561827,53.6343671978984,46.2806497935189,46.9083340597168,38.3656352761254,38.1137014610995,32.0059122953603,28.8333151883256,36.1056905129885,26.9360814419643,31.6617894621448,33.2979194466799,25.9528116690293,17.8904157856015
68.5583340521832,74.9997782328825,56.1173057914168,54.0179120598678,46.6848851182519,56.6438038742674,39.8012696210247,39.5273681810239,44.5646803814978,26.6426941533339,26.7372370131004,43.3098771113253,20.8060324129451,18.2759427642747,53.1211883440893,77.6821442924738,36.8335727479128,69.7588612034802,95.9242957140045,32.446799920798,70.6566483559421,24.7393644246512,29.7567921926616,55.0582560983803,32.8698042177353,31.688117780824,18.8957247866912,37.4278628967882,35.7837288089709,26.7939670960641,24.981986612899,27.3343167101937,31.8481593039261,34.2799440268204,34.8116045754397,27.1959547637504,35.1660292389926,41.0537629275528,30.6061071914941,31.9671153351037,38.3991525976946,31.8902361647185,32.1790745530407,23.3244262713679,28.9597249266931,75.0040196814506,55.0957023044165,82.1157789099394,59.5691903623729,50.3780469518809,61.0316440888504,54.3885028725575,54.3207304854242,47.9372114376386,46.086591271777,45.1128490786706,37.0370825256586,38.2477953821839,46.473455841333,42.0694707128466,38.2797347636349,41.9147610707846,38.5534653891235,25.6237965577963
81.101736206899,81.7578353949007,72.7684144357817,67.6637873903767,72.7299434206005,69.2993087217422,61.0825228376834,61.9751904531048,69.8620252010929,53.122360511281,67.0154785959834,77.70638764513,55.9319212148929,54.3650264149646,89.8161820212526,134.046907794492,54.4450801413826,113.584514252193,133.975305026319,64.1671097823386,108.540898058702,52.4377913150983,62.6056394291727,84.497237789708,52.4327233308145,54.2296241198887,41.9091348937357,55.1347551728654,56.5776745909556,45.7179699069981,44.207177473389,54.6464189124344,56.2661286194147,47.9223249875528,53.7450579273967,48.3899714890336,56.0891604517263,60.356196683789,42.7047315462335,47.4963546572811,57.4737933895047,54.6339057694534,53.1481297262717,44.9845589534376,48.9382639220136,72.0595087131555,62.4052608706109,81.3831949466521,66.2783350214539,59.9869879962128,69.802561744382,63.6498513239877,69.2032828569873,61.4478528929289,58.1377245116366,64.2565622131505,60.9478072195737,62.6387691104469,62.573545227242,67.1818690347509,58.4232628086627,65.6913046461891,58.7339942298172,47.0998933804941
88.0868867268564,96.3496194660489,78.3819399725763,78.956196795521,93.254326834514,72.4704200555347,74.8271375097461,85.1294534119965,82.6410622571702,73.725372943511,101.148848468395,101.458982431665,75.6418466809439,81.1536933111268,98.7647144256547,149.808907368517,77.4829736375628,126.424046300796,143.624346321661,82.0476578637727,121.706348201314,79.9903143067292,91.0743744518454,104.34487521437,74.1376173870657,78.7597248670963,73.3063183960435,76.8209537127145,83.1933427779443,71.4995109957103,72.270105505949,84.6677702474953,83.4131850765288,67.7188657561943,77.478588712945,76.8964298723707,84.1987982627042,83.3529050938001,59.603876768846,69.5419952412213,83.6236808808139,83.8107497028921,74.873914729081,71.6874906589193,80.1197498116708,78.6793480735695,82.071868073188,90.0794401071355,87.5874293134383,89.0500019658257,87.2421852086835,91.1080022210674,87.2267893649752,88.9082101262074,79.6326432354484,95.3389905692372,87.2271256858825,92.8404925180871,77.8725340078403,90.3512996390172,85.0085844529951,94.3080065745585,81.0205863107045,76.4255486208226
76.4882684741313,91.7090468125261,61.7744689465138,70.1434148141581,89.3988708771235,63.8119994308962,62.1971594583535,80.4205591757573,70.467011716528,69.2821771012108,101.012207685546,97.5246525358747,67.1937858295322,76.3697692985614,72.2570986338978,108.266339205737,81.0630809473751,90.117107401778,111.262472433821,68.6570253633182,99.2263883475577,77.8819992378155,84.9380261370903,93.0220604319742,73.8444203722387,76.6784851430307,78.2650476417811,77.6632993091848,87.3464164936526,75.7362753022229,76.0623721120322,86.4530157158341,85.7737438351803,71.9150500435059,79.7789830755571,84.1093499083771,87.9958115452528,86.9313511834693,58.8120286174011,74.4321386579086,90.5563280136648,86.945694457508,77.6050833218572,75.5470172931773,89.4776868672506,80.3326957560829,87.7067716399739,89.2543579883666,95.9704264617389,104.465692816173,87.1706485367206,105.799012919544,87.7547740332784,97.2452694521797,92.6938657644819,108.912853250324,87.0785827988906,101.745386366339,76.0531565073086,89.0727610312438,88.7327768376577,99.7967293154477,79.7314957083074,85.9223358139633
52.4388532799339,63.6171397777452,36.6935873643548,42.3118967652853,65.225259909635,55.4484219106513,32.1095041832995,51.1349804409309,44.8967335039599,43.405726416025,70.1779750695649,75.7511423702331,41.7699869995138,47.3087899160946,38.8633488571836,48.7736101392465,63.9648602790591,36.9860953648543,58.8688118072689,40.656695469693,59.0352482386551,53.2240964949898,52.8175057716889,59.7395363504236,50.1012373313284,46.4415580998695,50.9660635818938,55.9323022506309,64.3932442667076,55.9163238058022,52.2456153980338,56.377671952206,64.0063664010479,54.1666605943615,57.5628977554978,64.2693642112438,60.103511734134,66.2466161092775,37.2404934724338,57.3189739599103,70.5193407332446,60.5059590272469,59.0947269727925,55.0968742594092,64.6994494019083,67.221589939043,64.2362073202509,72.752888729166,80.0980350994517,85.8849170086539,63.4810037551625,87.1073352269406,69.4257686723401,77.393584456384,82.6272147142048,87.3700366865209,64.8184900523532,83.8597716256359,59.0534187413844,70.0218098881429,67.3035846062626,81.9161203656791,55.1562668293492,67.3669361027055
42.2488928285174,39.0501870896512,31.2455277716555,23.4446721658353,45.6391682479539,61.3628973313036,17.1317819969453,31.9143613485623,32.4618962946131,24.2667315587874,44.6117427962464,63.0246381601615,27.3360813693546,27.2817335832715,25.6681699259554,18.4430871424553,53.0102534983016,11.1858354706471,25.1101875284582,28.4235652402762,34.5998860199067,38.9846049207709,33.0891860816211,36.5893260655537,32.9112109497427,23.3567102076952,28.9491764117972,40.7485434667889,42.9609894276776,39.7480102629481,33.1751660241911,29.1175363284538,45.3545057601933,40.0730172600012,41.2844229196887,43.0323727961205,32.5782458739965,44.0367124615418,24.9723090860347,43.7901317963242,49.6776178555544,37.0166118783709,40.7994411364479,40.063850421262,36.4835087572283,54.5122985387751,37.129299481777,57.7924144244745,57.8076523359353,54.2098005428524,40.6654101056208,55.9441960633446,51.78705845923,56.6269092619375,58.3322405573155,53.0746218617011,47.0673578589601,60.0786509081865,43.8300846675232,55.9299398017181,44.3608121789598,63.7394642465449,37.226576013124,43.330768127102
47.6727076889213,34.9516617296465,42.6011859385942,27.7896512221252,42.988542533727,69.065874687543,24.7048385015053,31.7912071853292,36.6507824100513,24.1640338135313,41.1652653497991,63.5930775882601,31.5371651375284,29.060665039173,26.9913874049953,14.2260423290612,57.2955614973185,12.7434418878712,18.0952356741275,33.4460521721308,32.9576641603804,43.5326993195433,37.5653369075665,34.1093669633234,37.9215293104285,26.4025020501229,32.2640275524409,42.3875009569583,38.2012027819887,39.363456100924,31.6639674720977,28.181861639164,41.9151880281105,44.8269220896441,44.8844041569811,36.5657606963641,26.54140678042,35.2903185793352,36.1082046880634,45.4220642282978,47.224372907432,35.1235212988282,36.7842115351866,40.6111452647738,28.8322697727235,43.5786305382272,24.91480168783,43.4815836347826,35.2193838981824,29.2765686678615,27.5979920978403,29.70544753108,38.1038011625924,44.6173465689489,31.5340970612201,28.3666774488177,38.7519822815634,41.3531439411921,34.5232779785603,45.246892492958,25.9463484184495,49.5939707985672,35.3904180464213,30.1139516855103
44.3082344479733,36.0829322246532,44.9933318207145,35.9788172714786,42.0975431399395,56.48761023353,30.7781184724443,29.6538205838672,36.7982133605437,27.1966208571105,42.1302001157682,56.7925251858121,34.8146378876501,34.0052760414335,23.2234664457509,8.81929775434112,58.9196425786156,14.1820686914851,15.0467235183635,35.9213529693328,32.4483221829505,47.032120619822,43.3292065725155,34.8831826513505,44.0407714106435,34.5032541049067,38.664914435729,41.6260892263343,36.1607571409833,39.0762667168298,30.4679422687599,34.2166601141288,39.1268685539649,48.7912271359148,47.5707702465315,33.0528717462512,28.0192066469949,29.3494511819425,45.2394570483759,44.245880718968,48.2451988551611,37.5110389776424,34.5763038357944,36.4437967662655,26.6992368339834,15.3989922186936,9.71062270335131,12.331521484488,1.22415393025855,3.16846375900203,5.35572969223475,1.3465527480655,17.6480688219734,22.5616950659731,4.04841757248056,4.95297714365257,22.1007875306579,21.1240859402091,22.5566196064959,24.9057521039233,3.47107082722781,25.7078833697546,30.8601663715724,19.987890761916
27.0396012308642,25.8810936124996,34.6232102611741,29.3973965052761,29.0541966300879,30.5097877126525,24.40580695494,17.8347786828563,25.8006643046526,22.9705098736459,32.6446306239404,36.7571513959087,24.227708824065,27.1943104213727,13.115116617258,-1.38041213125317,49.2083666747525,5.46294809149947,3.03116779899265,29.5047228200974,21.2003138097866,38.4880080175662,33.7545990590297,26.0030891241094,34.8058629870205,28.0601070108792,30.8283340750743,30.7646632809757,27.2511141866721,29.2191785353144,19.9448818464716,24.7473891242748,26.4191860500975,36.3908822139756,36.5971794973484,21.8741329301982,22.1580676392393,15.4220178171975,32.60184492506,30.8196487976369,34.4073717710359,26.8575357515723,22.7026187044314,21.7115628868648,13.5535621497853,-19.6459228940822,-16.1092651919066,-24.989255510796,-37.0920825456226,-26.7971117937585,-28.0583618117206,-26.3327005268289,-1.13606662387965,-8.89062025712811,-17.0492473056932,-21.3997335129311,-1.41876260647567,-1.0020501313974,8.41920479300987,4.0718958226492,-15.769395134539,-4.17781059758497,19.4755859740382,4.17739070398441
17.4243059896654,13.9718850995556,27.5548273611502,17.5181773469027,16.2647400318215,15.1507301591083,20.4391456612446,9.67871329037651,18.2069300572154,20.3418346559755,20.4086533892748,23.9727642338627,11.6184152426755,15.2491128587868,11.3748943499877,-1.26973914118957,38.4324381335081,-1.82811609514603,-5.30826206025096,23.739482076398,11.9862856284138,28.9423621421339,18.9360451192953,15.0037645054023,23.2065951716591,16.3184389970115,19.3300667537865,21.4028200471659,17.3493516353186,20.1546338725967,11.8507581665153,9.73450751085138,14.08372633938,21.958846502325,25.3552906460503,12.8579509359283,13.0737677126182,3.47659567933015,14.4493957037123,17.9460736929688,13.7471818773802,11.1587278987652,12.4514411699224,13.5200621631799,0.899918190301134,-27.9668476771391,-30.5198593588523,-36.8104265779014,-53.928393430735,-42.8494934091613,-44.3139410989552,-37.2006807846121,-0.529301091783737,-25.3492365210003,-20.8469833210835,-34.18771563991,-7.44354430173655,-15.3817793175048,1.10193988017844,0.140152291876164,-19.3230433569464,-19.700998032486,14.894467053159,-9.55463311701163
23.08220870145,11.4497459065588,27.401882990793,14.598799088584,17.8518935949175,12.0928326898129,24.2008156259308,12.7495660807561,17.0266153518171,22.4410985843963,15.8657177429153,25.1821965617809,9.96167338763033,9.91915557714299,18.601369485525,9.55988913948073,30.3850481505097,-1.11056272344334,0.203627803820049,20.5118024618852,11.3027501741448,28.2349978004585,13.0116161136471,9.93387333896875,21.5480209423265,9.57603579345747,13.1235856353358,16.2870141579884,10.0428831562794,17.8498789470864,13.5826870619619,3.26655447458356,10.878227342624,17.1086272868505,20.1623553528664,13.0671067853374,6.10201633227035,2.90251302130923,7.60213129268864,10.819343978371,1.03626370835143,1.97155175257124,10.2693468663937,14.4610502358629,-1.51584354206927,-14.3597311023712,-25.6550912661551,-23.415107417419,-42.7297202525462,-35.3705740419139,-33.6304112083708,-30.221735963385,12.1680015090916,-21.9713192358409,-11.865093706349,-28.4769689082542,5.78791713472498,-16.4626726592267,1.17315025110377,7.21054025290252,-14.146974996428,-15.6919104255197,16.4102574277582,-10.0721956999507
22.9620062775802,6.40945517494811,21.7391894468634,13.5610367824482,20.5207429681356,2.67000244639484,19.8707760670414,15.6636081718391,7.63646403820329,18.2804862969929,14.0643081393314,16.7609808210193,9.64339065645849,10.1251993327722,15.4070481420278,12.9297393333668,17.5485744975783,-1.7253016215871,6.55838672398176,9.9903382094927,5.75076106424858,25.7818318824596,9.51939812565673,3.75009730773591,19.7274851910281,1.05314785769431,4.96752552838084,5.52668364640927,1.58544677795737,11.9055719016595,12.5694475066353,-2.78015207284193,6.79899436475559,9.61986110795383,9.56835330949217,8.28238187116818,-2.4017309693302,1.02500241522068,0.142150649364693,-1.91632243657415,-7.07922293774365,-6.7052965623267,1.52504777302008,6.35107767194909,-6.78827848703487,-15.475793406695,-19.0835774416684,-17.1792392960482,-26.7652063728223,-18.6172673685411,-23.2652375758839,-21.5556755313793,11.965896192566,-18.6178003680234,-7.53317949336236,-19.8256094952141,8.52456795100717,-10.3735285306194,-2.53179894907989,5.4752488065833,-15.1915141281152,-8.27391189908979,10.1359823411861,-2.79974513158654
-1.04677304512003,-14.3166365729411,-0.878109841612454,-1.63328120796769,1.66214361375447,-23.2025307687459,-2.04011467912177,0.455538986510018,-15.0296584853454,-0.202556969160927,0.949735691508506,-15.0569705254474,-7.28691070921505,2.63623927618467,-10.624856996856,-3.95483074446675,-4.92365503697804,-16.1247536849517,-3.75998289687964,-13.7764367117876,-13.9754824318602,4.3001621633054,-7.60238716695262,-13.0559095425367,4.11938209538461,-14.9670156063761,-11.5263840094892,-15.8056585935559,-13.3013881847466,-6.62688526070525,-3.25050023714688,-19.2243303467138,-10.2093783978763,-8.8583131118995,-11.6718517976093,-13.8238477671835,-18.493961253843,-16.2924512761112,-21.794223628841,-24.1816091385791,-21.4266929184937,-24.4702672436311,-20.1988162933722,-16.9351414360309,-24.0698141084955,-37.5183161836073,-22.113259118538,-31.589882818466,-28.1989804529872,-13.1063892943084,-33.6517246340001,-25.7082469416434,-10.5870031407942,-28.684720622231,-18.9693505246363,-22.2825652038137,-13.8935671548546,-10.3685579550228,-18.9987923330715,-11.6626608210065,-25.3756294376724,-14.9487712203344,-9.62537279175254,-6.07164739003012
-35.8211326070142,-41.5280230946063,-35.1746134010191,-30.4278928670097,-34.8194730679575,-56.3437881977341,-29.2426532442385,-30.1840416944926,-41.05447330771,-27.979579471354,-26.3214086912339,-50.5705915760458,-37.3640255903296,-18.2835759636801,-48.9870814242757,-32.8418698731449,-34.3318105590564,-41.7020953531224,-25.3221820857589,-43.9714260565347,-38.849881000166,-32.4396809551989,-35.570192991574,-36.7272371660319,-18.5967020396236,-32.726772301495,-31.2797060693676,-39.3789628466668,-32.7533675404681,-30.8478710492578,-27.5184171010563,-40.0067005108331,-32.8544767907,-26.9383172185211,-34.6565273246697,-38.4194457778505,-39.7443475421316,-38.9921765448626,-45.0942382579133,-43.5257989509574,-37.3381541393657,-43.1221973226968,-39.9536154200853,-35.5714690883278,-40.8848890783682,-51.3494488043621,-26.2607756005595,-45.6501385238921,-40.4256390495888,-19.3355022156217,-53.9147926000341,-39.1908405427985,-37.4092042038274,-44.2656766697271,-39.1402850136826,-34.5514001379635,-37.8660585023407,-20.7743624209466,-41.2573004540568,-33.0337170243313,-36.8890946353291,-33.2294100798742,-34.4937495174598,-23.4279531446891
-48.5709504755169,-52.1771373949885,-54.8684463237599,-51.2082419221981,-56.2445677399656,-75.4064684775911,-40.9308311495616,-46.0550688866883,-54.302513788396,-46.5199063194538,-46.9213267521429,-64.1912596339624,-53.2816743385704,-36.5070958693687,-73.4996797793395,-50.289807685437,-54.8524049308937,-54.1553871388147,-34.7331733086145,-61.8165494058531,-48.8212102168075,-55.1041412194323,-50.9268121207859,-47.577261392174,-27.408885179654,-38.6384296351472,-40.7744058804403,-47.9729516297152,-39.9072899345664,-43.0552874106483,-41.3905449257622,-47.4732016310105,-38.3275545670132,-32.6216905590961,-42.6207306528773,-39.9453636050544,-47.5401325028732,-43.6603275052084,-47.1224728339153,-44.9339685223518,-36.6388176677028,-42.4061298413735,-40.6278691072425,-28.5238782463291,-38.9855302628082,-40.0102377210287,-16.8661286867304,-36.0879796659526,-38.9172434250543,-18.3610902956392,-60.5304012992842,-41.9009492031714,-40.2338582515419,-46.9374445881402,-44.4856136589831,-40.2860060422913,-37.0336821121979,-27.7147817870846,-50.3078889732227,-40.1487981494667,-37.9187246593341,-38.6149431167999,-46.491641457992,-32.0838401068809
-34.6084997518479,-41.3248950044395,-45.3533083539843,-50.4098641145125,-47.390989563966,-69.8660340869944,-34.3115872849017,-34.8858407173485,-46.0812801625216,-42.9096266342157,-43.1920489853105,-57.0172098080798,-42.6655392005123,-36.9881773824716,-71.2971706990447,-46.3642211197097,-52.636681279289,-42.903831681388,-28.0822733898663,-57.5812649211766,-38.0173412947661,-46.1871507254247,-42.4008273573989,-33.6775233833806,-17.9495680542451,-25.8134240387943,-33.6426442910792,-36.265800371928,-26.3612949879382,-36.3500338317742,-34.9857113230431,-34.6177713409867,-20.9134620180194,-27.3482023339643,-29.9625121450529,-20.6346229201662,-31.8554790162555,-27.0199236946057,-32.6228815310359,-28.1543014879575,-19.3754847652002,-21.9223697756746,-23.4396646983766,-4.679050970577,-18.3572737395883,-21.6789557791161,2.12955594170672,-10.2619353785533,-19.9398500418225,-4.71008910422898,-46.7769678501923,-26.437837750667,-18.9962180377968,-33.525504929321,-25.1581522282801,-28.9627438094462,-20.0941982844683,-20.8599596962672,-40.1036219134747,-28.7383291454112,-26.5664281772114,-21.387293583004,-38.7639582592759,-21.139709040858
-27.3706693971033,-33.5914582771982,-29.6663069611344,-44.0196866625419,-38.1740505257143,-56.4767222224688,-30.2336041600528,-27.3642575991508,-33.0907941709131,-31.2940743235038,-33.3799493980216,-50.7546100219288,-31.392854177471,-31.0574888999297,-64.7633749642806,-38.1722130564146,-42.7993105812,-39.1311604906675,-29.5439086604617,-48.5075123971928,-28.5392565635099,-28.6296308267678,-29.093657283073,-18.4493041360997,-9.87755062161018,-10.5795915775822,-23.8194840248482,-22.7555354861095,-14.5187833328149,-25.5686734633861,-22.4419276190806,-19.4615193113162,-5.95292298061175,-21.8815046694017,-18.1032730476908,-9.93799074455315,-14.4925833195301,-11.8770656023522,-26.2031941226841,-12.6589342944047,-8.38993447848262,-8.02448251427379,-10.397096146102,6.36819814347276,-0.0238308539129106,-22.3346571550097,10.276475227568,1.40814134179384,-5.96830444752454,5.22075930053369,-32.5295713888576,-11.3771258600799,-6.68842959325583,-21.3082857671954,-5.71101167797773,-13.0095931803942,-15.5011921955429,-12.8053987945768,-29.1467270129609,-19.2903706965987,-19.3432177829946,-6.14721452363328,-29.6224666774907,-13.8783298210562
-34.574477116036,-37.7890249485347,-26.8948524345448,-44.0112912750054,-47.367303649121,-51.1446854697588,-35.9811216940522,-37.228252858837,-32.0049882542449,-27.0929153469176,-37.065786277836,-50.0707942325846,-35.2604794172361,-29.1854041818927,-72.6382757306517,-35.6818313037349,-42.0638652170885,-61.0017955057103,-44.0056383409662,-46.047279300391,-33.8904099110638,-24.0574903800951,-25.70498522139,-23.6493324254232,-9.94982182994092,-6.893685764794,-22.0161197799031,-18.7043728016587,-16.3836355511492,-20.6005315415742,-17.2974392530218,-15.5767744077896,-5.81439057883323,-20.6832225266201,-21.1076438275826,-13.5023828551708,-8.5714167408111,-7.2214087173668,-27.3220223252245,-9.5326070665169,-5.9064558437952,-6.85069210918019,-8.28267014011859,0.972669872173865,6.37612468091891,-32.9776670572434,9.00047782792533,-5.33002376659581,-1.59716097604408,9.59551249579771,-29.2733576617112,-4.32440700965172,-12.7409635261361,-14.7885345853883,-2.68200818569758,-2.90022394808756,-23.7023874260053,-10.8539005939333,-27.9802375670468,-21.9954283318888,-20.7834119531572,-6.08732163066784,-30.5600454402652,-19.7798204331618
-25.9744542236367,-30.1168264582566,-23.0827336161521,-34.7598953624952,-45.6370636046839,-44.416972762665,-31.1016319813095,-33.6673734645661,-29.3761637333676,-21.364062333709,-35.7609208557402,-38.7761493308315,-30.4998795364797,-17.7797130855006,-76.540943957001,-30.4920322961264,-37.0398737558691,-78.6039652693273,-46.4081821651983,-33.706875289911,-37.5469397991603,-18.365073529673,-17.9985018426465,-28.9486782066513,-3.88909864219333,-1.54049604495917,-15.6614839501031,-11.6338041118106,-9.23636016020865,-11.9783369820508,-9.86814054705631,-8.72833135357699,1.11805867591318,-13.6892796286587,-20.1396893771942,-4.87465315506113,4.57178097779259,3.37253032135267,-14.9775448466317,-3.42366251850843,7.69248243251714,6.02756003143357,5.42746964216055,5.719638633848,14.7927099137773,-20.7439272405552,20.4426651899721,0.541350715108432,13.1936875376897,26.530054397105,-20.2622732261865,11.4755754993947,-8.16121062992033,2.31545965180993,3.45851412643155,10.7984521734869,-18.0055447408152,0.119319275020422,-21.9553485005019,-16.5472958943813,-10.5756108657077,-2.10615177434717,-26.0215408474477,-15.4814354478734
-7.47595359287055,-12.2105930936747,-15.1023132416878,-16.8132424926568,-22.1065732645902,-34.4785587994556,-15.3766781892418,-11.8444265891707,-20.5031749527512,-13.0618827418676,-18.4445580518632,-22.8314331920849,-12.5708103347812,1.98042868663582,-66.7470747287558,-34.1464856027729,-24.4760749901655,-77.7267883431308,-39.0192380706816,-13.1083759613329,-36.4740193487835,-8.11997401388493,-4.91074370401456,-21.4439912133286,2.18920463231387,6.9519868822378,-2.29944583404546,-2.52866306056116,6.98939499613051,-3.71874114704557,-0.198746165282824,2.58143422328015,15.2589721276948,-1.35479206283183,-9.69927771973287,12.0061455268704,19.6944109744435,14.2922211787587,2.07918720293057,7.76872843367905,21.9423236837264,23.7140226010696,25.0775095340667,19.8598268466645,22.7295132284165,10.4186981578515,36.017959538509,21.9738161662099,30.7149577058411,46.2820941884824,-1.80619179745637,28.4994000101295,10.9325790589748,22.9149438575385,17.6731766359963,24.3590704581129,-0.454445584786036,16.7661241932383,-11.4947813855489,1.4941560821747,9.01958153959448,8.78276262570988,-12.1092790337749,-0.678526823404329
-16.2626564355554,-15.1729487914287,-20.8954905144651,-17.2195381103045,-12.6110666143582,-40.4464786703682,-16.3214300290191,-9.36188996556008,-27.9319036560399,-18.8666278720072,-12.9010977564132,-27.1633099504449,-13.7515012381879,1.38998086545874,-61.0457553477757,-65.1637746873921,-28.6311922385603,-81.0660051620354,-52.633098742787,-13.6565761860642,-51.5934275248131,-14.4113738263409,-11.9964204598981,-23.799998101814,-10.8500133678003,-3.7946042104903,-2.54239977120673,-8.95570398987832,-0.768229965782124,-13.1128059015727,-8.1699705667133,-6.21751920204504,3.48373713822151,-3.17603309024493,-14.4619258638018,2.75066002879198,4.26111428395092,-1.08183317572038,-3.81556410408303,0.975487326720873,8.00717020825471,10.7266911804801,13.7190169285696,9.64751026194989,7.36622326564156,22.4996549890473,23.8568741439315,23.1327684480771,19.4867993485685,33.2706016539582,3.56156904248595,16.2834271801359,14.0165411469882,15.9177907386639,12.0839197697718,15.2981800474353,-0.139671801541607,11.6255699930653,-16.0958249293477,6.71197694204113,8.73233174883421,4.45952731863371,-8.37595173643017,-2.41400069733444
-39.9771472380155,-35.5510857129114,-32.0016072644631,-32.8013155389528,-27.5450399654082,-57.1364558615507,-29.5857173243311,-30.8288941750327,-47.1637023603065,-31.6018236564011,-29.4209863973078,-43.5168470456399,-35.7535415018389,-21.8506815166089,-55.8458354404838,-99.2289927173182,-48.5444248427257,-88.9592501483119,-82.1510801209819,-33.6540839820191,-76.5101768203454,-29.4168679225034,-34.6348981000467,-39.3528800083611,-30.064759351228,-29.2240054393098,-15.1990468650404,-25.0194598688159,-29.673676390561,-28.7533863650584,-26.7375815735288,-32.5118750513116,-32.8016749299315,-17.7242000372939,-34.9854079699435,-26.8839442274364,-32.6719970922854,-33.6139387054759,-23.7668258235307,-22.9341521372979,-24.0391004329652,-27.4136391458386,-22.7543697963141,-26.5652037156673,-26.1655670483435,12.3969808424589,-11.5910567112073,0.312233872565823,-14.2184768162726,-11.0905398934983,-7.86568104556555,-16.1476611378724,-0.878774953876147,-12.3154039132433,-14.0020220390144,-12.6457989218543,-14.1813187958914,-12.7579147193616,-25.3026396118091,-3.4407068139343,-9.86451832090198,-14.4375506931839,-15.0868914268174,-17.0102273431663
-37.9232337278939,-42.6973366403786,-25.4966212410329,-33.5736327748098,-37.0393413952993,-57.2642498327518,-22.9896425449927,-40.5198359592213,-47.1452824784813,-27.6443374644036,-39.567937603773,-43.8103555300372,-44.9136631000715,-35.6129029723575,-32.7988862269553,-102.114746661045,-58.2979710967688,-80.4098359240744,-94.7489336239093,-43.4236814825944,-82.1832143258523,-29.4222222530228,-42.8983132406827,-46.4447891694949,-33.2106242893186,-43.4840103490845,-19.1444438404989,-33.876924748963,-44.6414249369588,-29.9540565941059,-32.8206124821625,-48.4016128275565,-55.4480760078041,-24.4376558170707,-45.9171948680777,-44.5571709281471,-56.0205983095256,-52.73645166497,-31.0632683984203,-42.0418951618533,-45.9632907701731,-58.7045788319786,-50.0126099664766,-58.1293222733466,-53.1344309690241,7.17275785978807,-41.7174514359966,-14.9808307840645,-38.7474033476045,-51.6019789072402,-15.8075868378959,-36.3160821290182,-8.05918535209413,-25.0498060489975,-30.1650105440557,-34.5455631708893,-16.8376589581958,-27.3211832670941,-16.994867748901,-8.43308221883626,-19.9485657146557,-26.6855246648093,-13.6362951803225,-21.2308766181902
-17.6339816100515,-33.4023936518744,-10.0172424849622,-17.7802026232454,-31.4143811003728,-40.5481714421874,1.53350488326638,-27.4779543800253,-28.4982202065257,-11.4785696320598,-29.3875768134993,-30.3999507055171,-34.7120058757655,-28.7740270574654,-1.4167411274137,-84.6353112658859,-54.4252131443526,-57.4707509561054,-85.0005459896545,-37.8235476062662,-69.6897721456802,-22.0029159560683,-40.116832210147,-44.9929423457524,-28.472784400442,-45.625090743943,-19.5998779997205,-38.5947232077886,-42.323795193747,-26.6746610076938,-34.6084268034036,-51.8048863738111,-55.9635317491803,-25.9633050536982,-45.1296679862582,-50.7040626160038,-65.3690331155429,-58.1080352979761,-32.2366354179292,-53.012219463569,-58.5296524163715,-75.3899771388997,-67.1413114557358,-75.536113740965,-69.785317960197,4.98046371625393,-60.7789957835325,-16.7049633303108,-49.6056301365263,-72.9484877120902,-14.9693932552516,-45.0586015605967,-5.69403387477499,-19.5033374292272,-32.4255439430678,-44.1647873262519,-9.19830283763782,-28.0256894009545,-4.86736324723029,-7.78378700991362,-16.6090941858215,-29.4500120471015,-4.13389696472952,-17.685685548943
-11.2396404227481,-25.2110091472846,-6.28696615387834,-5.11095242670221,-25.2026792402637,-24.6281062612289,15.8149375532179,-14.3261770513491,-13.7151019527561,-5.15050085916591,-16.7638687293491,-20.0780047525782,-24.4441825180152,-20.8172537310806,22.9410364427349,-67.5606626894569,-44.1597525486031,-30.1670963604509,-63.7995208217266,-27.0178396178941,-57.0382156354777,-19.8763726216458,-42.4399781774138,-44.2813183609632,-26.6432773188111,-44.5541429895716,-30.4865610826204,-42.2491260758944,-40.9051080368486,-30.1702066895562,-41.530766122053,-54.4801181847937,-52.8715646687497,-31.8687123190251,-45.1196474378051,-56.6657195092797,-69.9458541913749,-62.1268416414711,-41.1958249405442,-57.9580561356558,-67.6616835873481,-76.9757540637063,-80.0695444460987,-81.5014137221761,-76.6947434876552,-9.63831589300608,-70.9784739627378,-19.7796319613891,-54.6914635717125,-77.8484928586687,-15.6484881561796,-52.6145516758068,-6.37761694313025,-16.0019924410919,-34.3640892106213,-45.986092241475,-7.18750054999105,-29.0312189445728,-6.20769830262818,-9.8929082341031,-9.48036938627562,-30.3551464730491,0.96293242705359,-17.5706803856091
-18.7415916464759,-25.4424633515853,-13.6983657125075,-2.72498804224754,-24.2643930880758,-14.3223402062314,12.3552053849699,-16.7783056664624,-8.35652996072712,-13.4053733421161,-17.5932915245921,-14.4423344949456,-18.5194193041218,-22.1787505961118,43.4700491803017,-42.6594890361128,-25.3107574580093,5.79645498620426,-34.0624173044163,-11.6184242168156,-40.8060632436355,-17.8268332116701,-40.7859850818163,-36.6367477564297,-21.3828532801363,-36.464085178618,-38.8397683981306,-37.6618502605869,-40.3926702229398,-30.5705202089701,-37.6500891781225,-52.1153020709349,-49.271587982923,-32.8888232114267,-43.2381100562772,-54.8794442456424,-60.4473085824647,-60.2257823167891,-45.7879313990273,-51.1529842060938,-64.3567973028231,-60.5602899097805,-75.0658746149049,-69.7070240672622,-66.3706611448979,-25.5220943641609,-66.3495211401233,-25.3437332326121,-50.9354469607774,-68.1032948636352,-19.548890669624,-50.1850463084978,-8.82789345378312,-16.2756399093437,-31.4263180105319,-40.2047217612612,-11.0069493846891,-30.7819991920609,-12.2476055932764,-12.1831946702858,-4.83459342823188,-26.8568233731693,-1.85653264564208,-18.7002064623052
-21.3928992946556,-30.1626526562516,-19.3159005334575,-6.27634336929255,-24.8654956617199,-9.66815435279698,3.38360627613878,-25.1824270042448,-8.14559997570689,-22.5133165812493,-23.5489828024415,-8.82829561877369,-8.90369495005392,-22.1612537252901,59.4887197667399,-3.73935540161149,-4.68016638892138,45.8265517938365,-6.15219329081853,3.08336831970062,-14.7834348422665,-15.8876151375164,-29.9903202918452,-20.9199839269251,-16.1885317196652,-23.5035635099325,-31.0268494972634,-29.5323275066401,-34.8768696067821,-24.4535725262009,-22.5105177322878,-42.2918623001572,-41.5704650870475,-26.744401217749,-34.6582930952668,-42.4239696947523,-41.8137029233294,-47.3040683730775,-38.0037674886977,-37.7035270362688,-49.8396840849991,-40.8242007361812,-52.7082742813686,-46.6637913323657,-47.5018501961575,-27.5794820845961,-52.381701505472,-28.4910467883425,-42.4504866207482,-52.8654507856911,-20.8459840497268,-39.3358015493296,-11.8798738594458,-16.1682736417608,-20.3595458243845,-32.7343610549922,-15.5095248471468,-28.0334863528983,-17.9953892098066,-15.5441333776822,-7.91420363240961,-19.1183252503148,-10.0639874148243,-18.6153793218145
-14.42420416955,-28.89421277096,-13.7408248509509,-6.7631369170525,-18.998293781445,-10.2708876227473,0.482423678347526,-19.5822860234621,-6.91165535076219,-16.8576704171057,-14.9792463957908,0.770738549443215,8.2258186649042,-7.58899589690367,62.4679409597348,32.0449737094024,6.5933777882021,68.3816403129882,3.03678387850785,6.22922756559813,8.57829929741443,-19.2948312782312,-22.4616888218292,-9.26068242271331,-18.8276652804666,-15.9255301406128,-18.2093726211776,-27.6366671703709,-26.4881458936262,-20.9228523954472,-15.4715551930047,-33.4662162882665,-35.0245440138488,-25.8274723818013,-25.9081326532123,-29.1016140453991,-33.0020256259473,-31.6611417237363,-30.1536147269333,-30.1232567358974,-34.6428956933985,-32.5998940552171,-32.1531268104672,-30.7278604157106,-35.5604674955834,-25.6127865435323,-41.9510305057399,-30.023500677146,-39.6188573795476,-43.7800262708254,-19.1350497301311,-34.4027011624524,-19.3686091870944,-18.9054290594338,-12.2250525872365,-30.1424605041374,-21.1515563834726,-23.2148886402612,-27.7531149207907,-21.2229870974773,-15.8452906760356,-14.8070715320035,-17.3684093309004,-17.8949344764986
-9.91437174238023,-15.2412558584314,-3.19496758696812,0.0351248062864378,-4.6535666143694,-12.5860712295819,4.30866742676577,-1.08141804964552,-1.42741239096147,-0.0577840678120554,4.23994045807701,9.29832290032287,23.4441549453797,14.8904136508937,50.9029761331341,41.9880630455828,9.52547118040618,59.0878084814528,-13.6062208490287,-1.43818239196203,12.4700540149812,-27.1112640075951,-23.1673373437568,-7.24307052298638,-20.3602496024377,-16.2087595077807,-16.8895167619305,-29.8401208566947,-21.393864824923,-25.0803982867772,-21.1875726620746,-30.6624846016435,-31.7468435344341,-34.9423053778826,-25.7408555997601,-23.168434695771,-34.7472649422372,-26.1551156612537,-30.5241599930827,-32.1598533816723,-25.7502107446728,-32.5076304475654,-25.9093023244286,-28.011893728537,-30.8895803748868,-37.0326921714862,-41.0884277881075,-33.3368440924495,-42.8830267755788,-42.8576191067129,-22.9748511525199,-37.126465266103,-30.3784499772533,-24.1526290191174,-13.6008571467989,-30.012797041774,-27.9577478838713,-22.5396962624534,-36.2976470210206,-22.2581287186013,-21.5221838610012,-16.0290120556495,-19.5959013130122,-17.0052261639722
-12.8490560934819,3.22601305422558,-1.59479615421097,5.84987933055732,7.1161794649335,-15.1731206706725,7.33373504332398,10.005168358729,0.598511805891127,6.73219247365702,11.3450496790031,4.8036222482614,21.1296886521642,22.3490385536847,30.0294437128291,21.8447515409501,11.6176522885033,27.166129165386,-48.190620098205,-5.67043558326013,-3.87749034824731,-31.7840820632028,-23.1927457690535,-13.6101507418066,-13.3918720075251,-16.8892526498442,-22.8963588489049,-28.5263777078668,-23.9384178617722,-29.9215251698933,-26.2991690687404,-31.2984444703129,-26.9422483051901,-42.187473532722,-30.2064297909961,-22.4878402100464,-33.8696699327018,-30.4973221383278,-31.2864878447659,-36.2221404011907,-26.4483664275324,-31.2791679479475,-29.9005833919978,-27.5501258346079,-25.8974671398686,-53.1117348528905,-45.5587539717336,-37.1120354403385,-43.7691729219757,-43.2650175921156,-30.0697688809656,-38.7540796816017,-37.2546234593324,-24.7849624807952,-16.6152004445167,-27.2010602962053,-30.6110372982052,-25.9807287553811,-33.7222521852624,-16.7841568394978,-21.8903213036445,-16.5651684473064,-18.1841944768611,-15.6706493528074
-6.64030276773338,19.9351230024648,-0.469714882554389,8.7495896861229,13.4053245060646,-13.5891666960877,9.36702139722606,10.4821841272863,-1.48777327791319,0.507288954426775,6.09235300015043,-3.81013078276931,8.38002254744303,11.8080249884637,11.0096098711223,-4.70269562229868,18.7965494250265,-2.69390099975124,-76.2656017429728,5.53852797932921,-21.9496904150836,-20.1311529630158,-13.0580725479505,-22.0181107943729,-5.22742315009716,-10.4211422654561,-17.3255740785903,-18.9062518640044,-25.8275677732672,-21.1506631070073,-17.7151795671954,-27.4230567976458,-18.3885808286197,-31.6376056062222,-23.9761587040148,-16.4018609075464,-23.9847293584332,-28.2204590007188,-21.5291821963625,-30.5636374594089,-25.8095522292345,-21.9569142115265,-26.1635994824125,-16.1121126448532,-15.6253862683617,-44.5573129114902,-39.1892119434111,-28.6995581846562,-30.6211661415338,-34.5945567480763,-17.6934592873501,-29.9018808051533,-27.2316376255948,-12.5755622941182,-6.26958370744134,-18.2654544632383,-18.3231573397221,-22.3966536063859,-17.4571967796817,-7.85440398370059,-11.9923709172657,-10.1409439424593,-8.95612813808292,-8.98575163939248
14.3335633162253,34.3660572061556,14.8098674972886,16.6364552101268,20.0920697461206,-3.58912146972517,13.8517046419184,11.8903190842805,0.955066839729149,-2.59623995969338,4.32322580168165,0.0343474226387719,5.45753215650232,3.07826158603743,1.78031619442537,-16.8104468068822,26.0669313863247,-18.5714043505251,-79.1439909340142,20.764375952827,-30.4128991186309,2.50321533263173,0.627910949978304,-25.3183862922042,-4.78412992534107,-4.32176880093687,-1.15474342990273,-8.57531549563763,-19.2078079046189,-2.84249982535958,-3.73620772300802,-16.7490033433656,-12.649097758613,-11.5870675244371,-8.59142806768625,-6.72059477871954,-13.1610584154227,-15.1866980262193,-5.46398752322477,-16.9786418851323,-14.1800802827721,-8.46669899523237,-10.5656643076409,-1.90146347680804,-5.46281172122855,-11.6058243871306,-18.6124445074904,-5.48993939518097,-6.58230554319247,-17.6516112011852,13.0600692597915,-11.5007289000092,-4.18746377570006,7.92405518856836,14.9083621945238,-6.18853909465804,6.80469114832608,-8.14670809276729,2.66928466198896,3.96062788543415,5.76645313617849,-1.25877500292362,8.68293915896697,0.265614882725973
25.3912454465374,34.8511806097847,26.0159865930853,21.4439684083379,17.2931828885195,3.27477964168663,13.2483533992106,11.3530880941501,1.06088168282143,-3.6633559521238,3.8890703110506,4.36106956543478,7.17189800643766,1.21286572322522,-8.45082491329117,-23.8111794048174,20.6481617453461,-31.684583055763,-69.6748261396889,17.3576005572651,-39.2019998664904,8.65490770199932,0.254910781321591,-28.2183676907281,-12.3417135049548,-12.0015487591589,3.75441600458578,-10.8939884852068,-14.6247540013382,1.50900577546257,-5.55326553887871,-10.2721461957242,-16.9437309807949,-6.66456815148982,-3.86516677666736,-7.55630387723939,-13.9259962644882,-8.06282436357151,2.31079427314527,-10.0236934637447,-6.57957553269104,-5.45223918380416,-4.52262901770439,-3.26612807170945,-6.49450390145211,8.52217785869918,-5.21147991545905,7.15961124626678,2.6183418482017,-10.440037667122,21.7040484029576,-2.68615431906705,4.05903441969604,13.892183380606,20.0050720553546,-4.01895905154158,20.9817620022581,-1.60240744481242,10.1660565823885,11.0333562370188,13.3430325253656,-3.95602398893785,16.8552195128826,-3.18065139533918
7.18358005424334,6.26733166899262,7.39188500105386,3.77946996559258,-6.67908428207127,-10.2720520885456,-3.48959795304618,-2.73744799304107,-14.9493191734234,-16.3182365528925,-6.67202632250362,-8.51183819052797,-5.37654149177363,-6.5923462581243,-30.770362612179,-39.2370038899797,2.23872306252361,-51.3134069247884,-67.6216375658471,-3.44261966233071,-53.4532043020062,-5.47233961286212,-14.6364846068428,-37.9138983761074,-20.5300914327257,-26.2916391685713,-6.61459978715168,-19.8262399174062,-20.9475989568543,-10.7947222370916,-20.9446863152845,-14.4133191332175,-24.968348485594,-15.2760324217188,-11.6478067370549,-16.316504601795,-23.1869175254177,-12.7710450475543,-0.906196671669097,-12.2243593979772,-14.014221943452,-14.1019946803684,-14.8699603273182,-13.117489358325,-15.5326120012628,-3.27976658516384,-11.0775835527913,-10.5148933956721,-17.2747335334284,-24.660758018168,-12.1108199942731,-18.3599639994408,-19.9837666406993,-12.2224026675095,-6.71417282745024,-19.6137455817014,6.6977809588,-19.5751767779658,-5.5529082156937,-3.11164294479455,-4.02971211002234,-25.8947013783027,-1.69779039922813,-24.0464048908091
-30.9691273656138,-38.919686720699,-30.3858522217462,-31.2483875468709,-33.5543065411823,-38.9692567117943,-31.5394971234435,-26.5528216277071,-37.9318443842183,-34.0291047732567,-19.7838204000238,-27.1618519789175,-26.5567208681642,-19.9036194291875,-47.484005614423,-52.1052512079628,-12.6168664342842,-64.8007873110912,-63.7625060320116,-18.8222880325676,-57.5261812191691,-11.8136755804955,-22.7197696772513,-43.1419173828155,-20.0788404319172,-25.7316752419495,-13.3157755943577,-15.6622477927707,-23.6465004951705,-14.0178380656099,-25.8730749796606,-14.7031410736836,-21.8634313271824,-13.985744290537,-12.0430306706492,-15.0343267184287,-22.14144978784,-12.5788802683926,0.114934360250289,-7.84920603023611,-16.4623820694953,-16.1561837481935,-17.1685029055037,-8.60522742558092,-15.2895457707486,-23.6308425617009,-20.9982267716654,-39.2038929726224,-41.6391999261974,-43.1950001158715,-56.4214276512283,-42.1489043419347,-59.8695895988832,-53.9351932473482,-43.5406013603132,-38.6775949144971,-30.3070377058436,-49.1499416332505,-40.2107320775294,-42.4838243270148,-37.6589473157844,-52.8329412629728,-41.0876973913232,-48.2340714766373
-70.5486129239008,-69.5561148689153,-60.6539169539919,-58.0128003212411,-38.6341393177495,-61.0051869415381,-52.9458738620178,-44.1782548305381,-48.5928612020123,-41.3317492648136,-20.6349488050038,-35.2915052744217,-35.4979032352676,-25.7011904647218,-40.6580166739424,-45.4363669761562,-13.8670729586149,-57.8144118490273,-42.7402777662077,-17.1549794375608,-39.2175346610037,-1.15002154502401,-11.341924948062,-30.3406626128087,-10.5853462049622,-8.11604412375023,-8.0732124986687,1.78207293207564,-9.68226485692463,1.00090891374071,-14.4193328435288,0.128269537411738,-8.10831276075411,0.856951471619526,1.89070310949091,-1.33459695405136,-4.96038312058134,1.73463246462977,15.1034121708673,10.0509176138188,0.637188426540151,-3.03259412904486,2.00877402277715,11.1282741796845,-1.48538156243546,-24.9036392959919,-16.5832062666592,-45.6364894225206,-38.9978906562716,-38.3485387824784,-69.5230885094588,-45.5455644167272,-84.9332335454557,-74.753338372842,-56.4060397333424,-40.9212022931548,-71.4351058991511,-62.6539799783368,-73.1187133419805,-84.6999668959659,-61.4928336185573,-59.7418759056931,-78.7562035034795,-61.3324606557749
-90.8327162215655,-69.6087678717652,-72.8527625411858,-61.5156404288055,-24.8689676242878,-61.8362461210746,-55.3494763234276,-42.8907632917633,-44.2866553870334,-37.815410712107,-10.776671875022,-32.5485345944484,-26.8034432307785,-20.1256221835926,-25.2604743178989,-20.5025873474374,-11.1352201029959,-37.3901813824884,-12.981738048084,-5.66629554903941,-9.46647040774293,7.21142678045306,7.85373401910714,-8.26043707220762,-0.971655698837779,8.42939720832291,1.00789361820252,14.3824144345722,8.60321968021442,15.2281338660135,-1.92211161942213,17.8304799998227,3.18279035725564,14.0975121327966,16.7017714917111,12.1345402292455,15.162822783962,18.2679358095597,33.4431422713638,26.7627734828279,18.3080808679591,14.558206487405,27.0535142095185,28.4744152773257,13.4926930300128,-7.81235264220199,5.6788537593643,-22.6205247475367,-9.71596684494693,-3.98711294270421,-43.2561706744725,-22.0033618461446,-77.637165957005,-57.3348278165053,-33.5704987495429,-21.2398837733229,-84.8290622274094,-47.3133545432429,-75.4463042629206,-92.4942175417099,-51.5406903061786,-37.3678313104575,-86.5556367875379,-50.9118867938644
-66.6831304447897,-37.7145157992506,-58.9139511969252,-36.2570856563267,0.997219254398185,-35.7839591701009,-33.7240701998414,-16.34820336565,-26.129978108712,-22.3919533673115,8.43435967083589,-13.4895566384756,-7.01410079007332,-4.43680204851121,-13.5185215256164,12.5853025077455,-7.5620749767328,-12.0749505377103,17.7095181024783,9.95758663106819,18.3491276051921,10.1558530978197,22.2264671387179,13.0749365361536,9.24022850810119,20.0185707789352,13.0091736153382,20.0677473514209,22.9443315463688,23.8407071296883,10.7747248131486,32.107934658782,15.6626522559289,22.3833940205605,26.7812634316305,25.0328922723225,36.3854065134873,32.6945929399759,45.3414385173459,34.7417635128418,25.4894741682596,31.9277365919132,44.6757992118208,39.465228124409,28.5830646575242,11.8977025172949,40.9595830341025,12.3557955490975,28.1566561106504,43.2003089472107,1.78786620654243,16.9320946564135,-38.3879199039185,-11.3825386036362,12.6059309733464,16.1857672114415,-42.0704036707709,-6.64711749528856,-32.5344146237909,-45.9703053507006,-0.876381942533523,6.33654778572845,-45.3486057209699,-5.59519983867275
-7.37535275060551,11.9820960907007,-17.5816828608919,8.71050922549695,37.370331825906,5.61895645163206,4.51267066539179,22.1505415461008,6.09430019754414,8.73442681833942,37.5740344635068,21.3711781597903,16.2853790463552,17.0942500615221,3.71917605698113,42.037380755745,7.47711684622303,17.3503416805564,51.2895800023929,27.7608231199942,41.9429201014425,21.6521651988022,32.5015550185251,34.0392530906718,26.515922622487,36.100379680995,28.9262218549703,30.9231156444264,40.5618850501621,36.6163470370017,31.5097468463765,50.1505951830973,36.6481997814737,31.1693195482318,36.9814681404403,40.7062001011911,61.2170064106441,49.6856048250237,49.7867111377642,41.4455353609224,34.7108888730659,49.6629382112502,52.8644040476833,48.8672761529015,47.7188684489429,21.5719321546552,70.8428828325973,35.3945804389617,54.0229460489605,74.1740891280467,35.2315538779164,48.3245639793527,9.95727610816441,32.29962759139,51.2714097250591,55.7682139041353,30.0952071305603,38.1521230146831,28.5333549038043,22.1520745678809,59.9448517360921,50.3970688436565,23.1666086447727,54.3026478359142
41.1549871445617,49.9321157143219,26.533482261614,45.8963853053753,67.7843010312308,36.0029925819072,37.9963082688244,48.3316831521533,38.9891155229887,42.1089995104981,61.2836840076274,47.5794084075806,35.2968278934921,34.9554591092547,24.6269823189022,57.1782505314829,29.0809706965177,40.4631564210034,77.110611089551,41.3606880581518,57.7248838207223,40.1361514692764,42.1671888982633,48.5347658944516,42.6689078486635,52.4567138140536,40.9710869007885,45.7562105745977,56.0412755973115,47.6345881614057,50.2152719342704,63.8267519542668,53.0491195756986,40.4461953428675,46.0729033832362,50.5034684863394,72.2815537120598,59.8053199448203,47.5269965773641,47.7843362289656,45.1847806325863,56.8981805913491,51.5827118824414,50.9302618841354,58.6835339214795,19.593854674354,70.9063301679914,36.2434966533591,52.4409632054743,71.8985835866451,41.1818468519117,50.6097348977058,37.1603825148673,46.426983336362,56.871785706534,75.3199529458529,71.3103342621974,59.942821163142,63.6216760603761,60.920861069778,86.3551869730552,73.9090590034552,72.471561177974,87.8276960178677
63.3925260584707,64.955085790764,52.3202271922128,66.3832471361224,80.6932096648106,47.0273690074706,57.672069001207,61.3818819648315,58.4018241115864,61.1461082660691,69.34408568613,52.4704421184004,48.5001094198163,47.7987028171057,37.6399500073093,63.8252375981471,41.1796800868673,51.6084259616592,87.1558546749466,49.2818335534024,65.1150085365172,56.236538552718,52.8271932874732,53.5377608825478,45.8370062405198,59.0443869398449,49.4873061412674,55.3455970997004,59.3562144277507,51.2176749813082,58.0411252100194,62.6632201731024,55.8958804987752,51.0160375214932,52.7845958643864,53.185231908609,62.4421852460926,56.4831136891905,47.5996494394929,51.8053190578088,49.2107221715791,49.8623050563589,48.3884257908233,42.9041479344023,55.2604744126571,24.7067241335823,55.2861756647851,38.8062762447174,45.4141910957967,63.2615811189548,44.1280613456309,44.4781045035049,48.2355999173256,50.7732288084829,51.7661534738556,79.6725738060107,77.3840405337573,65.5300401397191,71.5945404715385,75.1783621022466,84.8169371001164,85.1688810260203,91.2368361275721,92.7848279328855
81.8503722427662,69.3119929006449,65.8870688484186,83.88733479347,83.7571500838936,51.713541663961,70.481888523932,72.3137189534452,65.2675790297162,66.3424868674077,67.9214811039877,51.8416356674062,59.9285369701136,57.9195564378281,46.3164909011781,75.6448265188818,46.2776907110187,62.9476928031179,96.1283246478124,57.8757357203014,75.0149540346848,70.505381892164,65.6206107675816,59.5190510548869,44.8361375239002,60.7567590859206,62.1985677739395,62.2350270049809,59.788800178813,58.4630158183469,64.3305911011462,61.6899847117784,58.0257241385974,66.2556484702963,62.7027186088567,60.1655052027222,57.9207521227343,55.1170967720346,58.6962136237752,59.1345814699039,56.4408661543615,46.6117674835721,53.0755179917556,37.8663905867482,53.7153146487287,56.9254129620101,67.5235689880553,73.3602919467179,73.4838328358074,87.3098732027557,78.3175810881068,72.248139910512,70.9781625665208,83.383797237215,78.9256293289376,96.2190751439614,91.3557838605161,84.4647539021306,81.6090962106889,99.0673815165819,95.0219549147286,104.036162523886,100.031694730063,98.127047564305
100.379176031174,69.0556104585936,76.0764655931136,96.3521509995999,79.8417948677416,58.0172868008946,76.3705403751843,75.0953451118511,66.7818127513383,62.4378699326473,56.9665545022013,56.5593273544257,68.4633916764306,58.6722610769203,58.1516148746893,92.1214526837182,58.3584330724624,79.4569035287615,113.927005407159,69.5723380329726,93.329604178108,84.3364731912317,80.1015594612714,72.8002781309929,58.7837087226114,70.785128416305,76.7882604811987,74.5375099007464,71.0227103787894,75.3585202797227,74.7408727435387,77.3108853795077,72.2356881587292,83.6178405088956,78.8172122416535,74.5945019925714,77.5658453545138,69.5923956634058,76.5673833236572,73.6147618229641,73.7933596097492,61.7759594950797,66.1114353872816,48.6558024562992,67.2475879112625,102.611795850377,108.601117623544,124.334925563066,125.583244839756,131.828768044285,129.553584817853,122.224071407234,101.741897144835,132.637443758862,128.609871201814,127.978167856854,119.780465607953,116.222893151917,96.8056726848004,124.838525028006,119.081872354874,123.572086504319,104.359505519336,110.354885129602
94.6878538467177,57.4501814782039,75.2554768217402,85.9836905009951,60.9785291309674,58.0257237835369,68.245264692001,58.8864656616918,62.5164120293196,47.3136733543908,33.426836966337,53.7975550732157,64.9864745780914,45.0367185535447,61.1301924951556,100.758563871443,68.7889229954383,86.9651063485701,123.277979033066,73.6569607475558,104.785100042067,85.9842065572257,86.2938103801473,82.0599360052315,78.4931011800237,81.9762818155585,79.1975043208919,81.1715334676865,82.0937316818132,83.8789778869031,76.3729973206155,90.5289154376823,84.6124900793495,87.6938395647655,86.2811820577982,79.9816375985978,95.0502764678907,84.0255315701314,86.5773422310078,82.9761083651908,83.9247868788138,78.6578949597284,76.5834480819926,62.7772157428953,80.0190531335957,121.515325431021,127.787190132575,142.820521918495,146.076007332171,145.664669447786,149.169755034829,137.611613145169,110.650639488858,151.581740858801,147.139755490996,142.343147318454,128.141901460843,129.228350765872,95.5050088754747,122.069114031384,124.920961610565,120.46169193369,92.0705478558038,107.093702839037
62.266752061281,34.5530087910772,60.2388017167541,57.3920164008057,34.8829067756777,45.6959638858394,53.4049512585609,38.2751592051509,50.580514240042,30.9797160662378,17.0464818339342,35.0569817078387,51.1678432488528,30.7535620313627,46.8014518712533,97.0999209621012,56.7983861325382,79.3753164185026,113.244128886818,59.7124414457145,95.2525958599153,64.553446993153,71.3295851256042,74.8396185840225,75.0395959581082,72.0034771316803,60.5687446770849,64.3667594948893,71.5402049335705,66.8629393800912,59.5278637303974,74.9064524597325,72.6797251637061,67.6942235169246,67.3194010896187,62.0394935349469,77.8536325705619,73.6433600077017,75.6363621092901,72.4894095013241,70.4548836184892,70.9565582346939,72.323286232824,57.4055475516526,69.5294312921316,95.3109864068921,95.2457355514751,108.084603552176,112.031543082877,107.910817431802,119.572387580337,98.1405359008022,88.1084042259338,121.047811089528,110.056964825017,113.270739016419,99.182212883234,101.988225872819,69.8817767184572,89.3367199729205,95.6422950696784,86.1910278989128,61.5684863667806,73.2267594014521
41.0366156724169,19.5584979107433,50.5941937983179,42.177623550852,26.8986479116274,36.5594042286456,53.2215462716194,43.424930066684,43.7218897534719,36.9479019983799,33.8881889096582,22.5983907668371,48.6076783826672,38.5312663040491,41.8283191778577,95.566238128082,36.8702728765583,78.8092801314399,105.690076002751,42.6757109485108,81.2900082998459,39.7386706611355,48.4119943786259,62.1084837045802,55.0815617573971,50.2498995266137,38.2031276843029,41.4294142696212,50.6914958173354,43.909896560566,42.8027713125335,47.4386298246422,50.0384924680543,44.9984187275366,41.0687446980563,39.9867865041822,46.9828767975128,50.1454502986274,54.7122381636289,55.9477652895856,51.3478093966183,47.9652478730983,59.1150418550739,42.3563185958003,48.2970210705185,49.497901912518,35.6420204013401,46.39385609347,50.2929994657552,45.2552324814279,66.5628396031539,35.2696987240043,52.2335972722045,60.1726952029798,41.2139396110925,52.6597854300151,51.3610506736966,41.0919667909551,36.4950124787495,47.0013889320084,43.1479656736117,32.5250507772573,27.3758793384693,24.523134467469
47.7822494831383,21.4630215941714,55.4647041800293,49.2836688263575,37.4707759044375,41.7708919515434,65.7418320676427,64.659417969141,48.6150563735509,58.6187118154167,66.3895123567136,32.5539149101159,60.8699648786016,60.7079380355167,66.3684024269088,103.96404892472,39.4005840925433,100.647414573859,113.850288576471,43.0581198678282,82.0538870103642,37.7109101935619,42.3704480025549,59.2873260006943,48.9162677544988,45.2067131490134,33.4364815633234,41.0541572320769,46.6356958588573,39.9605726546166,46.6692442504541,40.5244092630162,42.7574503524115,43.2832569149051,38.7966323386636,37.6805864909201,42.2354110941157,42.0495513808887,48.0336764525318,53.4931119831393,49.6364635737109,37.2316630416193,51.3590942451664,40.1735996333926,41.0652016594246,15.7046294722334,-17.5644542510389,-5.49686066641884,-8.35979007981648,-14.6093541288902,18.0203735322109,-21.5561052749993,20.4263982242818,-5.93218637432455,-25.2298867456655,-10.8299325034964,7.77581297065562,-30.640439556902,12.5304649297241,6.58428598329106,-13.474544404558,-25.2416354649071,-0.310630001382613,-18.1499589064217
48.9808471694483,17.5124021221399,52.7493484701505,47.9244100177893,36.8877658445768,41.8359080704953,60.4518051241267,58.4220253940278,44.8011114531943,56.5188138167177,69.8625210605547,40.7082252109402,57.8269976077689,60.675003892077,90.6753011056836,104.559958942851,51.0682144456622,120.549103914387,114.976104413556,49.6670914806545,84.1787151008057,42.904154967691,45.4420974295843,56.2796602061078,51.3516371551119,47.2502099569447,34.8377766573847,47.8835688693993,50.4518672767339,41.3900095362063,53.4978634522312,45.8031447312454,39.7887544425062,46.4767009585314,46.1780285720008,38.7728613811322,50.7267361480516,40.8826166462288,51.475281962544,52.4082315485134,50.8193606203697,37.3485072912725,45.243701386416,38.4377396737652,40.7430999712787,1.37717797572032,-50.3774283010076,-28.768700931898,-44.7410514839402,-58.8265906947148,-10.3762829010579,-59.8039585767968,-2.20958982885965,-51.0166343942256,-62.2260469452036,-54.194131505619,-20.4521041016707,-81.4891392687513,0.0286828870559472,-24.9534669612119,-55.8897287097272,-69.2143748885158,-21.8634315332973,-49.9775091787152
28.8387584506691,-2.74096595294668,34.5223196393489,23.7891733303216,16.7644546511803,24.4707969404513,31.6138507011075,22.889046780859,21.60345975738,23.8895935294074,40.2008359321684,25.3954067243587,28.8103333278556,30.9219389881773,82.2954799813465,86.0330518914843,38.654582011878,114.176224639785,93.4233921008095,40.097413609903,70.4857683672418,27.1085627469026,35.3455175353648,39.7696596991343,37.1931406680779,31.2337570190025,23.2964969135596,31.2435466218816,35.9168713210981,28.4162253950953,36.7699486666474,34.7978019767412,20.7452879318023,30.2678152782879,32.3183639675482,20.3135035760899,36.8215383186911,21.7122992826202,40.3039147278271,34.2011513286041,31.9591170589952,29.2351071657261,28.8946540113423,18.0955560363762,28.1333792954408,2.6777657004693,-52.6370069499672,-23.7795035788845,-45.0302391531034,-67.7371636739863,-10.445804163183,-63.6757373384361,-12.9695194971039,-49.0175868866674,-55.4261412550546,-59.9274509486115,-25.5917809076348,-82.1679225361059,-3.81112121180629,-34.8560034573201,-65.0617887659916,-75.9600929623343,-33.3966554169925,-60.5010546040784
19.7383575917511,-10.051889452727,27.0975576666555,8.28919589897038,4.14463851696654,16.8953960511939,15.4412327819801,2.75187016030736,6.27598614136073,3.36464114128441,13.2273029989787,6.25345756795405,6.75875906002132,7.42875253028197,55.9649234848439,64.4279317463366,12.8038703212479,94.8390297684241,65.6927231551789,20.6478826437856,51.583525700554,2.55893886549959,19.372964441718,20.3729089787434,14.7572266534953,9.81617733714113,8.50487623234276,3.42058401246273,9.93772581441065,10.4061029288284,8.96545490768709,9.96468733038293,-1.52436231727823,4.84190591589233,6.71382993861562,-3.12337776544611,9.39102654612498,-3.95516810612926,14.798169422883,10.1593359747635,4.12601474839446,11.8699856383829,9.17469843119776,-4.4772218099546,6.42216955082063,14.5322212658836,-23.7581641828249,-3.76005180009261,-13.5168299867881,-33.4450246911747,8.17889863592623,-28.2912752470148,-8.37569842758242,-8.23007137862888,-18.7470985106394,-28.8421770665926,-9.24837899938408,-37.1009005732525,3.79009496652356,-20.8228218610336,-39.1921760886974,-43.5083246976008,-25.2293416379848,-37.1860094105711
37.9488423713774,12.8254034702216,42.5440183882084,23.2293212501006,16.5373740490497,41.6457593540906,32.9042179956372,17.3473096156547,23.2613616529775,17.7012626656803,9.82205060140107,9.70273907537202,15.7968533834924,13.8372793907351,40.5479956755142,55.0366607935642,6.71093456956798,79.8606517043667,47.3453305089738,12.2253216551366,42.6805287777882,-5.7284053077017,16.2393222609801,13.5215158747749,8.77391004869869,4.45502730602757,3.91506567499749,-6.5313443320341,-1.99965190703257,0.401669050331055,-4.07401592688083,-6.10717282710977,-5.74768941472494,-6.83951794618778,-5.73063063730788,-10.8239934627062,-4.33291890313161,-8.74683868513029,-2.25693484076532,-1.53824332099185,-10.0135772009455,-1.01346871070038,-0.720387812887117,-10.4708493749092,-8.73522585812514,24.7334454236465,9.48859178230086,12.6603790388873,21.3726066817999,9.38333450485254,22.7979568185766,15.2981718048929,6.69881985055045,27.1864958065125,15.3671125800638,9.86645516161845,9.33778871769494,10.292004752884,21.6085095783859,0.354751439724885,-2.32999221752616,-2.09869610449348,-0.660920200272508,3.04472031357046
52.09615325099,32.9202800958125,55.9296748965276,39.0316674798606,32.5228816171264,71.8358550403149,52.6478241995507,35.0295796064909,50.849814841662,35.7797344161349,17.3749066599704,25.4069918577313,33.9687816160917,28.6794150571491,29.0249463924443,49.9175598768077,14.293300908599,57.646727620177,31.1707410591882,10.1784973810333,33.6410732171494,-8.26477926196156,17.2717918505958,14.2340508010108,11.2565709295711,0.990198733907068,-2.2257848049222,-5.38186409220675,-2.32141619466706,-8.53248969967713,-7.14460488424953,-11.4468061382306,-0.550238949492777,-9.56813844609478,-9.28937272317403,-12.7721559365262,-11.2955480490345,-1.20629760591241,-8.17466623455487,-6.82354676491549,-13.6693472167795,-6.98005228343366,-7.42100357088665,-11.5913672670043,-15.735138700125,16.3925894210225,14.1896442650057,8.86579614535701,27.0168295333658,17.6469809771927,18.4680096939716,26.1465377457235,12.8491008270247,27.6771637503543,22.2028710043377,21.5356550222685,9.23302764864813,21.5475487371246,31.7806056630454,8.2110955388328,15.0836888663289,16.0760827848091,17.9339182193434,24.2201971499427
32.9065008771157,14.2770204747288,40.6796315229889,19.7293731237916,19.3345764922422,66.7389036157686,36.1301559944202,21.8417245130592,46.9147112897626,24.7290585593186,11.8592121300959,22.1208944696021,27.117905213037,20.4226327751951,-11.8423920495931,31.1433692922304,4.05108524680876,9.06036653740239,5.1213675692157,-7.88125577025064,5.13265067846732,-26.6329745006761,1.40978810456841,4.33648336765481,-1.20356673983153,-19.5442259823899,-22.44823723999,-16.3201326527098,-14.185813144119,-25.3733398922616,-18.8221749598718,-19.0368849810019,-8.55254695548163,-25.2039926721723,-20.831184321562,-25.8655518192227,-30.3232250869748,-9.67555592921099,-22.1710348394064,-21.8538525497526,-22.7144021418734,-17.8141318464745,-23.9510562271937,-20.6882266109238,-26.2857892799288,-15.4740387035223,-12.0272894087088,-19.0161004871044,-4.1135300244645,-9.91029759148763,-4.87951261879389,0.450933916825436,-7.95736095153102,1.23420244873179,-1.85210100071325,0.53313341024573,-12.3666165058283,-0.455294455921424,15.4505835199997,-5.7742233080898,1.5191096704756,1.25941645633279,13.0261555218316,10.8799855873545
-11.1993890551471,-31.2996822548246,-0.860536450680855,-27.7612474104837,-22.6742867763618,24.1590537248911,-11.4924371559012,-17.5398232251157,4.64359931539383,-10.5956270615058,-17.3437465215154,-9.08214688191546,-7.01850109219466,-13.4779853045841,-89.5639158503129,-8.2610455015346,-28.5206751996158,-62.182631180419,-29.2639325629547,-43.1085186750331,-39.1850623958945,-52.5278994989863,-30.1781955806101,-23.1021089463168,-25.7684784796858,-45.6534886841078,-48.2497096120448,-39.0549344241975,-39.9149173190876,-45.1835998552864,-40.2746758224085,-32.4813220184151,-32.2393970079641,-54.0333194999088,-41.1752790849405,-46.4853179442047,-55.3304177375611,-35.0319664763117,-47.6921446482704,-44.8092380522927,-39.7914802526953,-38.0043750703807,-46.524568838871,-33.0901071586766,-43.8905705194452,-56.086451536783,-48.2612419840462,-58.4660675329738,-50.3388858447907,-48.5378752690479,-40.1922674420142,-38.1823194280274,-49.6296018435511,-35.6087571471664,-41.9315234541388,-32.9931215132733,-43.6197550640005,-31.8543777226292,-21.5336813247624,-36.2513174334062,-30.253705656563,-33.1993111385056,-9.96993441317183,-23.1231884827427
-51.4356403373654,-66.6189076590398,-40.644819133128,-68.5228114112662,-59.4102519186513,-21.8208746582196,-54.5055104768222,-52.9162106373056,-40.9535282898344,-45.1461502845801,-56.2901383316687,-47.326842385779,-44.0715246638167,-51.4144785812791,-161.053503904078,-56.1348483446444,-61.8361080624223,-128.346271107553,-59.8854096318827,-75.3934288242409,-77.8391643101012,-67.3794550920853,-58.5768055715718,-54.4175425411103,-45.5408009144809,-60.5141260022182,-66.5944781185269,-58.0531397141916,-59.4003028470095,-59.7308374309668,-59.8445097493439,-48.1620697855056,-55.6803961263408,-75.534866647373,-59.8628363233569,-62.8723561749718,-69.4820804973165,-56.620713443307,-66.3783138891211,-59.8381355498383,-57.7046027812614,-56.3263156016495,-60.7240651833972,-43.2768693975607,-58.1354242208358,-86.6242477588184,-80.5575453805951,-93.6394764993042,-88.0876550937066,-82.4427136552607,-77.7626450776112,-75.8891488251409,-88.1853131584606,-74.3754457274248,-80.2507553759485,-66.0664484821267,-72.6186030415891,-62.3291697495633,-53.9289826124008,-68.676699425497,-60.2612730900873,-63.6024455636164,-33.4427210482673,-53.781608764475
-66.9759071708188,-72.356297174319,-55.2310927714367,-77.9606919972475,-66.8389236829532,-39.8574330982668,-66.3364048714995,-62.6805608598446,-58.3670542658585,-58.2078430272433,-79.8018468333621,-68.8665171863814,-63.1073179113286,-71.4656137124439,-179.183765389614,-90.4871593728897,-82.6733093209301,-162.985959200153,-77.3179115856637,-91.9912764379332,-97.476858377712,-73.4721780016831,-73.7472700090962,-73.5342422146436,-55.094307455562,-66.521333043753,-72.9179862476053,-66.591873321783,-63.750691981233,-67.5362609279654,-69.7878518750079,-60.5147753817215,-67.6497534302435,-79.531926472039,-67.9188408759977,-71.6041025158138,-70.8788864966382,-65.4096477307319,-69.2874366443322,-61.88660565806,-67.9798849309483,-62.7690443015299,-60.6490217164981,-50.2007981735529,-60.204940752614,-100.434775235993,-101.211376278604,-116.921425159052,-110.626200273991,-102.677361449928,-103.917261821434,-106.805175568289,-108.193081067729,-103.66393821231,-107.847982471112,-95.1860682462127,-90.8362891669913,-89.3359819110553,-65.0547244290314,-87.4088085773872,-78.1931296732302,-76.1434978401313,-44.7212872558567,-66.1217838267119
-60.9759421334997,-58.1917488036119,-49.5883446472288,-62.1183372935305,-56.2809129488205,-33.3486368206708,-50.235544060571,-52.0259670457701,-49.865498859655,-46.4390861652171,-77.5804496969977,-65.7500009911714,-59.5212683544741,-66.9079260421287,-147.022072893677,-100.806550982761,-92.8971558294375,-163.097329292975,-79.3893387555536,-94.7729480132101,-98.6793435557221,-78.0424352709002,-77.4570883671224,-78.5561826487437,-57.1087156822143,-69.4626981951378,-67.656076218261,-67.8877062582547,-62.8056551828667,-69.0960544119563,-69.9153289311341,-64.1597154266028,-68.6974855076797,-73.0932352828387,-63.8137668754058,-73.2054441990903,-65.9819192787411,-65.3964085946878,-65.9650398855132,-59.27270395408,-65.004594623338,-59.5641134949009,-54.3722612404113,-52.5447650842774,-53.1292477496611,-99.3901270904871,-97.8146201408238,-123.016711243989,-115.835919313763,-102.05778772072,-108.748627854831,-117.75277763258,-110.992492005653,-113.553110390235,-120.785349160845,-108.334440154641,-94.3601373406008,-102.437810106085,-61.2356462833522,-87.6906611136229,-84.8235801560682,-75.2481807828531,-43.8800413716346,-65.8921290396137
-52.112153035593,-47.5989684737005,-38.9565478831,-44.1367675566578,-47.5933852411632,-22.0611089156585,-28.6257703107934,-39.7201880857737,-31.5274600192655,-23.8033946075098,-57.9390678287771,-41.0371449522355,-40.1835504322759,-45.4020339767893,-92.9013535152409,-92.2509229122616,-89.4401650427014,-135.129804578211,-64.3278405711833,-85.6715590112508,-85.456713095449,-70.9897074046739,-68.4052418519694,-71.1170360512695,-52.9945235630668,-64.1204840395865,-52.6602315528678,-61.9397632024296,-60.7268023685655,-60.2273883726653,-62.1162243494029,-57.3128340652754,-60.0563522155054,-61.9325629858074,-52.0744908556672,-63.5620080874522,-53.425234483881,-56.9807383055744,-58.2116579942097,-54.629330600004,-51.1536981629329,-48.8126834409616,-46.3765906314709,-45.9385297439026,-43.2521422191718,-81.8015233538999,-63.0386029642791,-101.737291700004,-91.9271711523769,-78.59676787327,-92.7714866396279,-94.1388503600781,-99.7882513075911,-103.0516299238,-111.84886082946,-91.80490080794,-86.0863212823668,-91.8223976217786,-55.5700699985705,-77.0850928080555,-81.3897775112269,-68.5777900131754,-39.6655761297451,-64.6287223766776
-46.5169841543459,-50.2015837509872,-25.3801152803535,-32.3047524066613,-40.9628544557976,-6.08043715848105,-15.1156343106978,-31.2294737498067,-8.78627141737378,-3.8425905855386,-34.1908562406613,-2.4565988625159,-13.5792051750859,-17.7117151469938,-31.7132099671823,-67.2490812110636,-66.2013084686658,-80.8556598603928,-32.4209772898304,-62.1655120780068,-58.3282056140055,-44.1223617992167,-45.9593256524139,-47.8292978149322,-41.6093081150952,-45.262139475719,-31.6019323251049,-43.9744925712205,-48.8139920478192,-38.0728935558784,-47.487572099364,-37.7004517441719,-40.6796075812751,-44.1902301055837,-35.3877435038932,-40.2849472891365,-31.2709764127627,-39.6915012601527,-36.3013987819585,-42.7941705103006,-31.726853485001,-28.0096032976312,-29.160089638896,-28.1410131309049,-29.5103757103543,-43.8821404087328,-7.56390677344124,-52.1076095336776,-34.9109909033668,-35.1549317749863,-60.0753367386731,-40.2190947076584,-72.3474973668051,-72.5761747982643,-75.8973951276622,-49.3721791378901,-68.6016139713961,-59.8619140031674,-46.5103189102266,-63.2823740664901,-66.4751913664059,-53.8498711553696,-37.0018734208564,-56.2295069059117
