-8.55457967447666,-11.4544371912484,-10.0045084328625,-12.5418837600378,-16.8916700351954,-7.82961529528373,-11.6719265050063,-16.2392020939218,-9.06205473991172,-13.3393445771501,-16.9641664731147,-4.34978627515762,-11.8894158187642,-15.804223466406,-7.97460817112231,-14.064308956343,-9.2795440536696,-13.8468196425851,-18.7765774210971,-11.3819407533291,-23.9238245133669,-2.17489313757881,-24.431299578802,-30.593496801942,-14.1368053942623,-34.798290201261,3.18984326844893,-31.0284754294577,-40.0905301693694,-34.5083044495838,-22.3289028791425,-47.1226846475409,-54.8798035049054,-12.0344086946028,-35.5957510183732,-19.2840524865321,-37.8431405938713,-36.1757225217276,-36.9006869009205,-32.1884184361664,-14.1368053942623,-28.4186036643632,-11.7444229429256,-11.5269336291677,-32.9133828153594,7.0321544781715,-29.361057357314,-12.9043659496343,-25.3012568338335,-24.2138102650441,-14.2817982701009,-21.2414563103531,-8.69957255031525,-15.9492163422446,-17.9791166039849,-20.8789741207566,-12.1069051325221,-17.6891308523077,-9.93201199494325,-11.7444229429256,-17.036662911034,-21.0964634345145,-8.1196010469609,-17.761627290227
-42.3311999119381,-56.1634541132049,-49.8635467348855,-61.1058739607023,-82.2529856711586,-39.4712319744556,-57.1229395075367,-79.2295366123247,-45.3916254617976,-64.9623037835422,-82.524483177323,-22.9595226584386,-58.3724106535456,-78.253019516612,-39.5067519213493,-69.4171933552492,-45.1186714115013,-68.4577079609174,-92.8642462894783,-55.8194601691212,-116.562851940227,-10.5373076362685,-117.883362980023,-148.355287671765,-67.2963084100768,-167.436979173587,17.6006124289382,-146.141961499029,-193.925969412163,-161.20374205666,-105.732645464018,-227.510871302038,-265.69565563946,-55.9430517111833,-162.521340008192,-87.5150850406996,-183.479646459327,-181.150011465187,-173.570492342292,-141.496363295667,-63.9614722657893,-140.210362486833,-43.0401423056809,-51.7951795925345,-163.422894405923,40.8345456818049,-136.200200523364,-57.7510930267702,-118.313971975144,-113.226559251808,-67.2593319190513,-99.1953039822959,-42.0767341071547,-75.0986961950568,-84.948015943158,-98.2727950789897,-57.9544637274108,-84.0795152322583,-48.4321062220124,-57.2494441378625,-81.5635412388594,-99.9572448525144,-40.4847255611939,-84.4960056142612
-89.1464892877239,-116.893834798984,-105.50913194055,-125.757503505348,-166.733113137524,-85.5188297950745,-118.021495897188,-162.154666889309,-97.0053979116691,-133.648293596093,-167.991282922299,-55.0851875161343,-120.887614961324,-163.13882652136,-84.0322901218137,-144.626330544826,-92.7201405879665,-142.701208629509,-193.319859981354,-115.654153259722,-236.719333089961,-23.2156653608178,-235.814911990463,-297.810658529956,-133.445253606049,-331.583431094001,38.1856603516075,-278.210936338098,-387.438091659559,-300.242274539058,-203.536141547778,-453.549393543644,-531.616706016306,-103.500487789899,-287.48396332816,-155.18577030637,-366.061658554852,-384.770498091187,-325.596181496555,-229.66018261509,-110.154399072513,-290.731558226574,-36.5245842936959,-91.6416130114066,-342.679819698685,103.555546685063,-249.055988802719,-98.5967910621308,-219.300579670754,-210.691376769173,-127.04744439979,-184.929712933994,-84.3265700143074,-142.529249222856,-163.048062191392,-187.155010649439,-113.956965925633,-162.889676094266,-99.8345056192253,-115.329338087428,-159.776733761686,-192.375079129754,-86.07521802869,-163.965876512177
-110.959789172689,-142.706612343269,-131.57296362436,-150.805732823107,-191.065783083367,-111.372243863579,-143.293014313262,-189.856489330221,-122.075694773655,-160.705779127298,-195.032736435898,-85.3612197975712,-146.208325885565,-195.254330017331,-108.8602280575,-175.297388590431,-113.076011170206,-172.231989118062,-230.390647683645,-139.799918675252,-270.230995656696,-35.952310326862,-263.323392101054,-330.735938394474,-152.986469538023,-359.290555414734,35.178122857159,-279.001685994304,-425.888292713121,-280.462339554999,-209.317107327675,-497.479887831663,-586.865963326921,-97.5447053299694,-233.142398891961,-132.604868796166,-399.718271798503,-476.317039611342,-302.73119601938,-140.509905400422,-83.0761346842503,-350.059628812069,61.2589829474722,-87.69177445343,-425.640016000315,135.336163639383,-219.729415407377,-80.7829959646426,-199.725618221,-196.591409890417,-125.605749891589,-176.312051297437,-97.0285717981548,-143.05549119665,-167.305171014637,-187.933658943168,-124.716478334139,-170.34323086614,-120.76063010018,-129.518366417257,-169.859957594615,-197.995617455234,-109.292578438424,-172.734116406106
-105.678222823658,-130.198836111007,-125.140022490071,-135.71304018833,-159.629137180315,-112.48142045944,-134.816552305201,-162.376616261256,-115.574608401424,-146.39000368718,-164.90308442756,-103.247737032313,-135.024892588519,-169.926558655735,-114.745900321559,-160.777759067094,-111.698886328309,-155.240116347257,-198.484903917621,-128.503675555485,-218.158845026023,-50.6720773792242,-207.343590401319,-251.912637156127,-136.528877051642,-262.711414734519,-6.99557510535013,-179.847620136712,-319.597028146027,-140.707976309228,-144.527466313771,-377.055999404894,-450.924171882303,-57.6806674361273,-65.9891302754353,-61.2316658267009,-306.699329198635,-448.739453971842,-138.169576198029,27.1519128445951,-25.6137491405246,-334.853853254209,164.265723447279,-86.4023637992545,-446.127086183432,42.111385531457,-83.5158328757692,-54.1415994340833,-88.4199462881246,-101.512251559065,-84.3846265520276,-100.756863779898,-88.2222025295875,-98.0061008651121,-113.736453359225,-120.542969718558,-101.256311690176,-120.717688619235,-110.836443248896,-104.969674491528,-123.146366306549,-136.61576977356,-107.841751627816,-127.277347108302
-98.2524566407403,-112.336679359707,-114.692818055388,-118.758011455,-135.608660523089,-108.69671698195,-126.250097811993,-136.963920132961,-106.355488151459,-130.343594181968,-137.16850377374,-105.170176581585,-124.476659210805,-142.652656800768,-120.927010143033,-146.245451351076,-117.120772237932,-137.827901758472,-164.117870975114,-118.211980212951,-170.346446817518,-64.3335722603925,-158.406634097031,-182.124195960547,-122.18481412284,-180.769741491951,-58.6362870630315,-116.195549284655,-234.802275718997,-51.3855308410702,-110.090803727556,-296.248237276825,-362.006431048391,-45.2292893699033,16.0031005458519,-43.3722588726852,-268.561992281777,-449.708982416696,-33.7754785111534,72.1308587530528,-42.3472715336509,-369.311955288116,164.174563370722,-155.055837891049,-564.367394238726,-183.911253795175,9.61666858743601,-88.4194725014452,-17.7382473249197,-50.751937030184,-71.9770552587946,-58.7070517414283,-86.6126072830032,-81.5066987476674,-79.7917258575625,-80.8186860966699,-89.0291363482906,-89.1506966020555,-96.0489114258005,-88.5007772109085,-93.3752998005036,-102.645026672776,-101.551619685488,-103.6540929331
-87.3176296594281,-93.6965434609634,-97.4942501824615,-101.245380917195,-119.582555136113,-97.0591387383994,-110.216836502294,-119.54198223981,-97.0677322210613,-111.494003500229,-117.742269207877,-87.916589206985,-111.568937352346,-122.448638155175,-114.843192043426,-125.76799602589,-114.544724401975,-118.750066645182,-135.701209124212,-104.748591816742,-135.41112706901,-67.7688444588111,-118.912405131525,-135.06652068066,-89.8374783756584,-121.509027456158,-82.3165863855429,-75.4906079183669,-189.998702646588,-12.6188564282984,-93.4836243662191,-273.047149488357,-343.456470852096,-54.2766442022137,31.2837674707002,-52.6848047623401,-289.477077035803,-495.810989814327,-32.8751236978065,40.3080722514731,-116.621736568142,-434.116951934817,100.682898619473,-248.36507436037,-733.325158494385,-388.849893592543,43.4424096610276,-123.600159065004,-2.23826504696355,-49.2212639882799,-73.5182039987831,-49.7451131116881,-77.2469130179309,-82.6875535448105,-66.9258952303365,-75.5368557306923,-75.5167839829529,-77.6646764395913,-74.3615139477885,-75.4820571834055,-83.0431115313629,-96.9963316658371,-85.3787403404657,-97.4463776330873
-52.993199347045,-56.8327898672167,-55.7161029275032,-60.403452635349,-74.6623400747687,-61.0954536929119,-65.1917797815073,-77.6588972863099,-64.0219583200856,-67.531169708079,-74.5099571402657,-50.5612095086958,-71.8980663804038,-80.0991275534053,-75.1588073688071,-71.025965683827,-77.5057359282547,-70.0453279722635,-78.457347370647,-64.6119607484858,-71.9856565631627,-67.4776576917984,-51.1788649166807,-55.6033290736457,-36.2067460937121,-18.9168891091523,-96.8982716198415,8.33262770061208,-96.5178650926077,60.8948414030284,-9.0679656192275,-185.985256956592,-254.865228665417,-47.7602985401222,119.005672928703,-2.02187688130642,-231.387121468518,-451.234343495667,-32.0386439385713,84.9160983945706,-132.310256124661,-397.525246001144,75.1604188684284,-271.807526723177,-725.811915718462,-392.375410497633,80.1605024923584,-78.1261856913411,20.3064190104016,-20.4733195176646,-37.9678389251243,-19.6697864940082,-38.0207308547865,-48.4509350621109,-33.2489569134244,-49.1456341889598,-31.6115035036411,-45.080947100298,-36.5950021886993,-34.2748661947963,-49.3768915091594,-63.5793086370978,-44.9132723030423,-61.080079939723
14.3101094058203,14.3580282791948,12.1495769626001,16.4230257127007,12.1120427888753,2.34658933512176,9.19009166155042,6.29661866059794,5.56339742628197,9.51926354947932,10.6760884893964,7.22090182179466,2.21816751038749,1.30027718086729,-8.66901846397913,10.9384692489756,-20.3982896708115,6.63776795950753,15.0581272107018,-6.97512688275119,21.3766151326107,-87.56660529992,29.5983224023185,65.4057459785917,-27.5654872197705,127.5057955168,-202.763193318538,87.1073342086191,77.4714979826678,129.617641543231,146.794036565669,0.858044748360204,-43.3232408405118,-39.028347978117,295.07999753318,72.5516186199466,-50.3888376048461,-221.568446086823,40.2402362228195,206.680913614387,-46.9847992525369,-217.983398174936,108.734417131048,-202.833238134334,-450.350542401129,-203.288483509631,136.39498566866,19.4344001157859,72.7599541024875,65.1065732543682,32.6552865561584,50.1457647086852,22.5448012744919,28.7274577059958,38.5700487207517,29.5020039524728,35.5246647568566,29.9829551215116,17.4465788590323,38.5072630905901,24.2290601667873,20.2581800680892,22.1502858332222,20.159730817477
104.984022141793,121.551991079687,97.7566756185722,121.900459728891,131.692226163924,84.0864368914162,105.11983943511,123.860822822912,98.7167042233696,115.116866933901,132.393706614776,82.0491533948619,101.967630604559,116.258480569482,64.9100618890637,102.668653152616,30.045190100204,90.4055263548026,129.065416638799,43.505530790894,127.632781926179,-133.276909688584,96.5008365043042,204.811880907946,-92.3371145770248,272.847080325155,-452.543265902571,90.1924584234482,293.92594401065,127.034067811679,257.609497330871,223.541483412668,243.428572851338,-60.2392591265824,465.385610523403,23.4258398052884,173.857368868607,129.030007834982,168.580576575675,304.8431431056,59.4149278417271,24.7678458950845,139.461601448048,-75.9161542933969,-33.1312297367643,10.6329135713123,207.700506603211,113.066774255696,150.924060095631,184.193303666887,112.787933512435,151.571660726528,92.4350926248178,124.860255441924,143.683360049008,151.794253553642,111.186593569935,146.121542368495,90.0698653462009,127.985886611252,129.74567516265,141.930916677886,107.633757073926,134.673482273086
197.242410447026,238.341961139226,188.876813485986,229.363814483365,258.550856379505,169.996476800872,209.381537308567,246.448236526766,191.530963271961,229.115398666216,263.644601089234,161.58234004038,205.936175087801,239.36672165561,137.902074170833,198.326264187726,75.0141126606661,167.707624473219,244.673778867151,85.3184436473566,234.994071091517,-169.026571796567,154.073101800001,332.418809245297,-149.437439784833,364.774526666297,-674.859658665312,46.1489994437017,472.07218982489,116.027683798493,204.084490534097,399.703647913799,518.327016828679,-86.1312659467324,535.760223072739,-192.522281506127,348.50671761095,411.08543218735,278.1298591866,317.215557442682,108.766022100761,251.179136597175,120.1417627761,83.4415929059759,382.568168310857,148.097332770087,291.159216149675,201.459234603122,245.925406478825,301.982123145191,196.034085035876,265.006310701556,169.29554938395,218.309330107433,258.5038010707,282.303350273208,190.689787355643,273.181941802481,173.527081322483,217.725273134477,245.242959599679,269.465448770991,192.983824808823,256.409264751445
274.697177911053,329.762013321902,268.336489660393,314.931693483201,361.8134986973,243.582277607702,298.028791512245,345.643865595689,267.146129761182,320.96392456124,371.891958912751,229.720960444003,290.235003250739,341.763619931947,205.84800262894,282.1882758896,121.768681424949,232.716713139833,339.699521839133,129.602908397835,320.801750804992,-161.821806430074,209.106973289291,417.326086514247,-114.781143036894,368.027122962828,-641.001137770169,14.1034257113326,547.517193466311,134.279556869731,29.600650005181,498.154059123579,684.227233114306,-71.5847990172687,459.58667742889,-392.49536809567,443.307709796288,468.510881471773,319.870531040162,257.509521563873,129.05791844808,417.953130011468,102.165949208541,253.244075062057,713.130684435625,236.749375008168,370.036761823261,289.394557801154,338.679910980871,394.390579601036,276.080354269403,364.54673741724,243.885454523363,295.375959164441,353.312698976077,387.136598203109,265.39354337751,370.369435692648,245.507413545869,291.471123491874,340.927349187277,371.216117315023,259.873242139512,353.498364568995
326.339438591026,381.683985477356,320.300511376732,368.628844416989,424.214590692266,290.401142281485,350.276678198283,405.26323997171,315.295320434662,373.540483785034,436.623585153,273.974078242742,341.965524533012,406.8264961493,251.669475762318,330.745929246291,159.873289511202,279.152484377992,397.092601927526,171.575854497095,366.183741762173,-119.020168943942,250.464422124803,450.715375920719,-5.88717056050813,310.565532660316,-396.436852837233,-4.39738076037837,539.578630302185,66.8965729925016,-92.0527233705999,566.545230858728,709.781333204884,-50.4640198839615,259.227631061006,-349.432119193779,488.116010216033,370.607555890531,326.206349852617,184.075829968927,192.046595191075,473.725326662,159.182610494337,377.203863161739,859.157862449101,305.539771959775,416.381960802884,350.572132760033,402.760195665591,445.364104032475,329.197264090575,424.289583008857,294.96923750713,345.288799044832,410.51160412409,447.505134444769,319.322431954136,422.847964788312,289.596183619948,336.60138447297,395.95108309946,431.414575270383,301.0620238988,406.894040763367
344.786077686329,399.62861811163,342.499318527063,389.284465686415,447.172680232851,308.81108639986,368.819040726243,425.310219126522,335.207801403989,394.612804031658,458.57539346676,292.89711864624,362.793924918847,433.471126045384,265.142719360131,346.092423198029,183.241479900631,306.181032907413,421.167685365797,202.011315969859,381.914246485638,-51.8315901874189,273.229996320368,445.038868951634,115.677980077256,253.590045725108,-176.000220344842,-16.6666261582858,480.108523318538,-105.924157431985,-85.7535305304843,638.971627401891,696.479921344182,-90.1355311155735,18.049417231433,-53.4015872331677,516.994044465559,404.016969526257,334.243965133132,139.775269534191,264.415077072486,456.172055501788,246.0335763212,399.32849301812,819.979060361519,336.053417270874,416.974360812049,365.062180527112,421.665738708762,451.765713459776,343.44011530841,435.924514097117,309.769471811215,363.321656398624,424.958680629045,458.575514418564,343.606506972519,440.29178844284,307.392893695312,351.786691745467,412.261717488366,449.998094865049,320.022225336379,421.316828388353
348.118752906328,405.306879834729,353.035879139782,395.104883319411,452.944268699993,317.970494261094,380.143863519764,432.334277613701,346.78037434692,408.212814044581,464.191909553351,303.531713044226,372.252370682125,442.760310043088,271.061200744964,359.983164406866,208.024490560471,328.067371469558,436.26745605548,234.172777273094,395.636108939494,57.6247612966042,296.724201575996,418.605082554344,244.314351224453,217.104994329042,-52.1393532247935,28.0148046139071,342.578548887795,-175.334545101827,-29.1116789743631,653.449635513431,766.567416552978,-151.90402352025,-197.283624723418,289.949088992501,522.586317677608,737.793221483143,316.364545412602,130.391813628875,228.500448068447,539.367534718936,249.139619647348,360.1565770274,790.708244929016,339.639558341429,400.804622142913,358.287946999717,414.948409529433,442.926885604356,345.766960858934,429.723286427707,309.608966020431,368.610126972146,417.999680929227,447.864348615575,352.438376365603,441.641140646056,316.430227371372,356.738225260701,415.81872119396,450.679879417066,333.523871519886,423.948458760158
354.814014426088,412.264174246612,362.662925941331,400.637478755167,456.535632605404,326.591107894826,392.729884512342,442.626656899772,360.355597593021,422.143045879641,469.971995897629,315.264598704582,385.024743404382,452.457370810297,293.764477642794,383.872535740852,242.57758028954,354.979343806269,454.665652111639,285.542361208804,422.314281253889,216.61010799601,351.765393617276,402.171342041511,423.35464971417,226.692142286317,130.514240945854,207.852724067325,188.514086217801,20.6329520627825,46.984184384972,589.288778597446,868.74864502153,-93.3670763997471,-373.520044208898,513.627476209351,489.193993689109,1152.68094061391,256.168379989506,151.662704061293,99.3206386630817,768.894386429687,134.142508841035,364.703682332622,890.735501191205,356.92927070434,398.247109304044,364.118300048873,409.834810033333,441.610718036324,356.956115722257,429.315354726594,317.587748106283,378.525099562641,416.697560138797,445.175777943208,358.332852054282,435.746045695586,324.643365022926,364.44666395705,420.965435558048,452.929574992474,346.478297234321,426.90091336492
336.145288576023,390.274258165285,345.881009175982,378.467559388083,430.554152103789,307.403069363361,372.972884517655,422.267372576338,346.542706230583,405.027208038411,445.837633693695,304.437041592134,377.145504488401,438.804395651671,310.013498538328,385.489360445257,267.683739333235,373.304692194547,453.148002007368,346.060331127466,449.91149935106,390.017014966542,447.77372599349,420.413602617326,653.350647335783,346.325622439426,498.990308041344,517.670132078854,208.462891520987,397.427966032107,213.723029203331,568.567279835178,846.184615616179,168.634623456164,-441.402043270412,636.879489783502,455.126012887639,1278.44263623154,221.780678163047,184.237278205034,46.9840605914898,919.532132941582,-44.8227279713257,401.553802516273,971.584836913063,368.131199013548,375.042627590132,359.227182846386,382.453681545619,411.940960692959,343.938273862545,398.176567664591,307.011500869215,362.614691742115,395.557400570749,418.918493260601,339.593774346267,399.780819275708,308.089341513192,346.207112894311,396.727856080968,425.125696748854,327.205317032495,398.120668461188
260.716177153908,306.964563093123,278.284069269535,300.820084886006,344.747574896403,244.911484003208,299.046771334046,339.400502160097,281.655891156308,329.175331146185,360.371883102606,252.768133242842,317.364485518461,369.090493928727,287.760201814208,342.113275370553,270.250494254124,363.220574689004,403.202913022198,385.168408855575,445.886075793241,525.363563125626,536.409983506887,441.90187694834,836.743296830356,527.732609957986,930.067367624094,803.51905968193,418.243565671709,736.970302609315,449.968945799832,643.299934663984,683.712361785139,519.037402478529,-271.812551156,711.94554734085,461.633124397175,1038.25080592029,268.8187690916,171.392403742394,138.849824009089,817.804791864941,-208.812285282701,358.645153845741,892.535114392624,313.377184104233,281.734272100044,294.227929001351,291.467682228745,312.15110773743,269.872800992626,297.451930214912,242.035173267416,284.623378253564,308.128170565283,319.968816682581,271.620371164603,307.692904718722,244.526776554159,272.369469713203,309.589746800054,329.202529285049,253.267282417742,309.413765433635
140.08594643423,170.817397543977,166.920350620106,176.80278275134,203.136212730617,154.603423614916,186.066003659582,204.017560451417,176.432628830597,203.80664433465,220.604657732165,166.516653955482,207.273319499066,243.673038370414,222.967702038881,258.043870339114,244.477175659427,305.724346349937,298.278408408732,363.540392801689,373.427970920402,565.401257356038,526.585545373227,392.177921138716,850.035678299469,582.585509486688,1146.52614107098,883.277885593539,566.275860031602,861.404677033399,597.16834000037,671.321073763209,500.725538712117,722.257671476135,72.597081505998,694.778860707702,471.61489229888,685.70004155761,317.590273919618,64.9794657265807,259.178176993023,601.973931219426,-292.249728162977,254.756081622146,743.272740333376,184.428477956982,123.558988444232,161.57822179132,138.171079122835,147.39701060117,141.078556293279,138.974751616886,127.879688299138,152.008444553802,153.073872096522,152.782952143168,154.380650292968,159.181145118864,138.840497379075,148.771865239092,165.172443030133,172.403951345293,138.155068094875,167.46354210355
-6.95602872991643,-0.397033351323043,24.7834991318905,18.8000100393422,18.5521560379276,40.9725694437964,46.2324154371646,33.6213755316966,45.3149804701554,46.6018146031475,43.0381336517496,51.0347971593572,65.0917362549868,80.0484355179121,120.822433421768,134.282651643201,174.786514335947,190.618521608553,149.238705819903,264.515874755022,228.786817530102,483.216992528981,389.944784205131,251.286232091559,692.192739210019,442.283456712314,1048.46452093878,745.967123541092,504.639452174409,750.883388569068,576.73330150531,559.148508335705,360.288292321493,684.953739520813,306.325469276726,569.17589148649,441.073532731687,451.007363420721,251.615670466406,-92.917507363303,307.90305675408,484.377174138679,-293.318258102527,216.094805059509,646.827215637373,19.5224726704581,-72.9291021280771,-12.4258414078676,-52.7629185024829,-63.1597346330464,-19.7138061639149,-56.2320056033914,-16.1366679189646,-14.0688377500677,-41.9772996285115,-52.9640268197361,-1.61109227534136,-35.1321332832895,2.91972515004039,-11.2134478131156,-16.9076435397883,-25.431175638104,-4.49204129830339,-15.4361131851427
-162.502832233698,-183.937880879769,-126.104875113737,-156.534184088518,-182.864776198214,-88.7216722820575,-107.529328017814,-149.447700498815,-93.0885122392026,-119.863560814652,-150.46123877664,-74.0854792079616,-82.1781107740322,-94.5517478458847,2.06818704461191,-11.6686853676339,76.9322785378494,49.4162850466833,-11.9476408975239,133.934422740285,64.6796046477509,342.240999681401,209.660277266166,83.9145702152299,491.804468543414,244.246468441847,815.355236316379,533.767554855377,345.169492964899,543.810052477315,463.678845463453,388.684488890489,237.892140915425,537.460906125348,284.280397481242,409.413466083719,386.072672551144,320.193846087092,96.4419197622023,-203.308110620343,291.232919912863,445.346457553981,-284.490478851581,236.646709116805,565.63952147592,-141.706732892141,-278.431986100542,-189.624901406942,-248.758010356096,-285.865774054983,-182.235152333351,-263.652123525863,-165.824469835835,-187.495031143122,-241.990695063508,-265.448775854093,-165.689159537629,-244.043625854033,-140.892564572905,-182.156664002922,-209.584393082156,-236.700764096511,-155.687450882858,-211.939580350969
-283.508759730596,-328.616845707584,-239.858890789798,-298.31205614719,-342.296440627676,-193.868126904386,-235.541463097901,-297.098122168052,-202.819108835223,-251.404921725245,-311.164145174706,-169.814973158878,-196.394813817655,-236.136713555016,-92.0085938755512,-134.74466236265,0.160827589436253,-65.0309661326304,-143.145626361837,31.6788762982027,-62.7015448896693,232.48315220108,65.9185230245158,-55.8856516887776,331.507785410931,93.1432036049931,627.298522012137,338.103741498482,193.793239497152,362.612840570918,322.459093111476,229.921145400455,103.726849729685,411.099105240565,145.043259842492,261.107379028803,309.782358915008,175.76522864901,-33.4664222586771,-236.480102223147,238.627693395516,334.539918925675,-306.893388398303,212.745322295537,416.189383916702,-255.76907064299,-433.62844607311,-318.128175409207,-393.203765205772,-448.859293316462,-299.707200011997,-421.919585269783,-274.320643217039,-316.563001588591,-392.350273047268,-427.877664384937,-283.799094023355,-402.298729136549,-248.510777546281,-307.684594355673,-358.028353671472,-399.286726473168,-269.393281710947,-360.592577237955
-331.700887108256,-390.179675033153,-285.188767897876,-356.958519271452,-411.553788733208,-240.618250563062,-298.967985468818,-366.740399504157,-257.106876149559,-315.014536141734,-392.065277740027,-218.380421199988,-256.260777648941,-311.31518703312,-138.725860979357,-207.442728829471,-38.9418752860245,-134.099342017453,-223.761545766983,-36.0325806528271,-145.909599141175,163.201701644493,-40.6354039281038,-165.161376114965,183.473700086411,-33.7221736159873,484.811503482939,146.072128223842,44.34156886971,203.924083190532,154.52078866324,68.9216626890303,-45.0052402677296,302.351049909038,38.6737640756326,118.359653724801,183.956319263101,-3.85448028039909,-100.868289880849,-243.032017980292,165.564515801691,129.226144651822,-301.009081008924,139.189325337062,223.790998097203,-289.893845376512,-488.032559139714,-364.428272833904,-442.375316595494,-501.52781017067,-342.670682757282,-477.088679414219,-308.399617236592,-362.363538421116,-447.102988101184,-488.851984085564,-325.565972234901,-460.790942958776,-288.63062229755,-351.142197970784,-414.498342557556,-460.969665026554,-311.647323540753,-416.500516526069
-315.388725592861,-373.00514243965,-272.790703949224,-336.91206463852,-396.537268657511,-235.168718412325,-295.635563141994,-359.418988059307,-258.718624325489,-317.195196354533,-390.854891058492,-224.45857354715,-266.377308440355,-320.927861122439,-147.531885855495,-231.263779123556,-57.2602316217381,-166.419300677823,-255.901536381134,-80.7064194091648,-194.752850647087,108.633831170292,-117.635835023952,-231.876629140183,41.883658663671,-142.346113292208,354.321323076803,-40.2112477588667,-92.0465190690952,47.8578385070533,-12.0112400676344,-91.2508988238174,-187.001036175898,190.720573593222,-31.0054271925043,-6.93304368992612,17.4810019393483,-159.929730831367,-137.127315690334,-252.178392803128,82.8017735906953,-61.9234112988226,-222.498428320056,70.9831365247091,60.7877861762877,-262.527273468157,-456.338361259357,-346.230605020644,-412.33862416074,-466.708216099478,-325.126097202106,-442.653831148357,-285.540065221597,-340.135490610999,-415.752067732252,-456.24831195431,-309.510351311929,-432.536452110991,-270.634828078224,-332.055542795969,-388.357960846987,-432.152329734251,-293.267345194387,-394.516293879099
-268.574107820329,-312.851490863554,-228.031189354953,-282.163497719752,-337.363680447956,-199.033856492372,-253.718428364019,-308.561982021562,-225.518056344046,-280.206524519927,-341.590850617002,-192.218622145111,-237.489529142608,-287.839186919188,-130.588180058292,-212.40727115474,-54.961156644418,-165.220162334028,-247.662801727222,-87.8970218944753,-204.900515349616,83.1669338983052,-146.446889379685,-239.895854952919,-40.9741551116844,-190.734921925063,266.644968008298,-164.911571803963,-187.339074524003,-64.4640292990369,-124.374948853051,-237.310660413777,-298.324429459959,112.843339855471,-85.9079648935983,-100.208549893034,-157.034987898987,-266.192263088365,-147.152157663085,-242.412981900949,-13.1624592824275,-178.923660449663,-140.868270181488,-10.770372756545,-73.9076997442662,-224.391745623437,-390.049906339012,-302.850792906131,-350.713476314909,-395.50293406099,-279.638515114589,-371.686324564764,-240.805575559792,-290.084602513238,-348.561164425249,-381.785601515103,-266.257917616637,-364.778473234768,-224.703931295477,-285.263122346308,-326.146540705505,-359.653354590852,-245.074195995965,-336.942257855049
-218.180559005517,-249.087526194188,-175.186006630365,-232.072752579494,-276.12697456422,-153.441485263625,-207.943046109094,-253.417942234352,-179.74737027749,-229.114667020593,-284.289009990502,-141.54356332663,-193.298290125963,-243.58110416586,-99.5601354517397,-171.241137204837,-29.8533154679247,-141.948273613828,-220.378359752032,-62.9910618066998,-187.91454362606,87.9692596750281,-142.978859573311,-224.001575264152,-74.5355768575952,-188.550957295446,218.568256343768,-199.509394676081,-262.247994114047,-115.959180397189,-169.795213475657,-376.962741782951,-386.421445823052,82.3757500236758,-108.40806671981,-162.668370533631,-316.243377330685,-356.833292825205,-124.603188122217,-197.780437848459,-122.151857539814,-266.083028720594,-128.719360340732,-141.166748964394,-213.509061277542,-204.312673205175,-325.708716515706,-259.836879496501,-292.960911258816,-322.447908767851,-233.653512427921,-303.854821807698,-195.76914953501,-242.094328964716,-287.165337404615,-310.836249409325,-215.647934012512,-296.837089625643,-180.16769171227,-233.438191797516,-264.645718196301,-285.277654517925,-195.290461241825,-275.200954499335
-184.073504117336,-211.527955546956,-142.778956776371,-204.185464535869,-240.535630301562,-123.666673139163,-180.647985872879,-222.105478740783,-149.386170878396,-196.328813547297,-248.739944017418,-111.438788492085,-169.849037682516,-217.657692815879,-80.4444089902674,-146.897268731506,-9.937773327707,-128.073871417688,-209.424812691366,-52.4165970763453,-181.827595291087,74.4302052815735,-156.386334465029,-233.00759850997,-131.009170198937,-189.788620591449,154.130903423425,-182.158816578248,-328.768625199835,-149.326022492684,-168.660076471012,-476.670876364474,-467.819792815311,65.3164608377986,-103.421394406798,-179.350832495986,-414.196949155068,-470.207550526892,-98.9171957082587,-138.272212456581,-205.196336331332,-353.868075136863,-151.365434730686,-255.907151146894,-343.974834458631,-198.493399263096,-277.220969767534,-230.70846613319,-254.888913516898,-267.357387407242,-205.88552362488,-255.908362211317,-167.989670487817,-211.840403329897,-245.812766346897,-262.215617313177,-180.988875517471,-248.651606638765,-155.877340840878,-196.572231309609,-220.817239525384,-235.558010544362,-165.573823824732,-227.808595990225
-178.030596351234,-207.131920871671,-145.399549490589,-201.203004047575,-234.099613013801,-125.128821671334,-178.903953516525,-220.601095216605,-153.109152027552,-200.716679627401,-245.986483595735,-121.7854859861,-180.079951793172,-223.201316275722,-94.4911954721694,-162.393141977999,-24.9113371209383,-146.28364048583,-233.750450682341,-84.9264407343056,-209.545507416781,13.7314653957261,-197.780741601802,-267.548140081541,-226.241162532391,-210.662067709837,58.7714183878671,-166.457493945224,-353.398406620353,-194.445933646375,-144.533010249087,-482.911245207646,-531.074553281705,42.0383852198537,-104.370835504725,-146.950001042211,-421.521802354877,-607.241489192904,-99.2106547162079,-98.64875620836,-215.021701574598,-422.502020788492,-142.654729625396,-287.924897216886,-463.028680997922,-194.060304829896,-248.210936021755,-218.632837106486,-235.653973272623,-236.48664912801,-200.1426313777,-231.483190890585,-164.646879911036,-200.94308480219,-224.678456807559,-236.791165758662,-179.80836575543,-225.383793941716,-153.974867958043,-185.863816383509,-204.093922831952,-217.101595728689,-162.628110992787,-205.294856058126
-195.631008918828,-224.371646649537,-170.848476993912,-219.422926993632,-247.164699502066,-152.200937986871,-202.822663788404,-238.42595066942,-184.93079278296,-231.665695843495,-269.846191252003,-161.102241420405,-211.227589115014,-255.367775445533,-138.078367023712,-207.682036983652,-74.0358346467849,-193.21982390066,-281.248318148092,-148.113145542452,-259.079134289331,-79.647953684936,-243.463762064308,-304.741064239556,-326.564991653119,-231.66058416923,-56.4472830522132,-172.019443666595,-324.58045793004,-248.132608160085,-122.797059107431,-416.826742042434,-571.371010769608,11.5752559081267,-116.559184884197,-105.656218855659,-389.276454062978,-750.882001132522,-112.548368632571,-87.4728429080842,-158.270362583507,-478.738344053337,-89.4659854686789,-286.608082081558,-607.510346529055,-186.729062666653,-241.168635465798,-215.434095684622,-229.663263827189,-227.064274913567,-205.43050434741,-227.100955679428,-172.709664756647,-202.311699477878,-222.760989300585,-229.56025856971,-199.502784796896,-226.320401749466,-165.952862375452,-195.043915431932,-214.275057121616,-219.886790467157,-178.52146154326,-208.989326489555
-219.984301451681,-247.39814173792,-198.682007549013,-245.372101206377,-268.512535107017,-188.469063578044,-238.899738771339,-260.948472093256,-223.800671159909,-265.739338929328,-303.144860622154,-209.529338140724,-250.847553396415,-295.760180943722,-193.294071647865,-258.873584461608,-140.23052718428,-250.882099282735,-330.559608016868,-221.105556414256,-308.837994380935,-194.623746017341,-289.685153281975,-339.410438020749,-426.907531617347,-248.283301484416,-214.035693010885,-187.303853229344,-278.227205965674,-306.360070630666,-117.944315109603,-346.206218733348,-603.367462523204,-35.0155471140202,-117.266040435379,-85.6189815364787,-370.554137919275,-878.542571964725,-116.066611069825,-80.6708980190535,-86.2837888261581,-533.298697856999,-13.9861004388965,-296.286047868519,-743.821352084502,-176.898525131887,-250.364721845383,-210.574127112143,-232.410460603158,-234.944995390871,-204.390321549988,-232.876841290126,-176.754868721668,-203.983026171768,-231.463991347783,-230.707373666408,-210.188301392545,-239.104750235263,-178.052856961154,-208.536793025733,-229.751035063333,-226.929593698185,-196.655638193879,-224.174762452473
-235.742757852764,-261.458083805488,-218.439857132106,-261.344809087769,-282.832531693054,-218.969526135021,-264.570053580112,-276.170490402128,-252.854355095653,-289.921950644472,-325.801141177131,-249.727529116054,-287.547972752169,-324.852694134993,-244.999144902464,-300.821958792861,-207.991898528532,-301.556219804806,-370.327754502512,-289.904586409759,-352.922159214327,-317.181927152141,-347.30022721767,-377.620328812271,-522.487051542687,-284.293065986869,-397.458654098866,-210.980015576931,-257.619669658484,-363.941763466737,-129.506387150923,-308.14443436675,-620.368662700015,-99.2965782140188,-107.011224501175,-89.131670695082,-354.334398838771,-954.138159672185,-117.717687715563,-72.4767366352206,-47.9918232534096,-560.263056008174,42.0801320563639,-286.052731636815,-782.329973962691,-162.165972969046,-255.90690931836,-200.621739131455,-231.898423883072,-247.082240255128,-189.604224677524,-234.804945745425,-176.169336647414,-196.919552930966,-233.498101412644,-229.735927955651,-203.820125285758,-241.191039464372,-180.845910873601,-213.89627149162,-228.334347998789,-224.658137705854,-202.481984205242,-228.373054210105
-236.237587220829,-257.080183700988,-227.260973796265,-260.851139254323,-276.632692464575,-234.310221665016,-272.428738215982,-277.495140576121,-266.726237116456,-300.76693618506,-326.749364975126,-268.292642600919,-306.71545814369,-336.831280227617,-284.609023021155,-331.6095413297,-259.45898790553,-337.557350278904,-397.349870508077,-341.078031957704,-395.617352528191,-401.656447309844,-409.075296520456,-424.996736320509,-569.738869289508,-364.196786050579,-500.979969280531,-270.587092948409,-296.163384495853,-407.251800895779,-161.187700259041,-318.759825017853,-612.723091030558,-164.723016226553,-102.302111626351,-131.145538057968,-341.766776932516,-947.060105907169,-127.312000035416,-82.2174760668838,-78.8593459097368,-548.811591301004,34.4300152277596,-270.92999594955,-720.286561587933,-135.977756412788,-237.366650941872,-184.089862807099,-212.737936780998,-236.757293632513,-170.079005689608,-219.526290957443,-173.910093058715,-183.479221603962,-218.335878657485,-219.037834916091,-193.535331778829,-222.392904270985,-176.72220130396,-205.860482662693,-211.27010877788,-210.042641156215,-196.885032145724,-214.917197300948
-214.593753185151,-230.964465983622,-217.479665294491,-241.306653810441,-246.020404091467,-226.585957285491,-261.451238334937,-258.170908516404,-260.080662967364,-287.836516062534,-302.840091417301,-258.772743987102,-297.811416778261,-327.443853528699,-298.90094598717,-344.016228676921,-274.722359908115,-353.911141317406,-405.533084482099,-360.379193449028,-426.512664066027,-405.572586619402,-451.468201983626,-482.449779473516,-545.104980629809,-477.412013093105,-458.635504194019,-375.395957071212,-399.163738663416,-422.289583572449,-210.746721014865,-382.343004197119,-596.266916675643,-219.139007978395,-89.9662607690912,-218.044362506707,-369.752660979464,-853.176608042082,-118.800121107241,-97.6051696810964,-201.484671602439,-506.615774178384,-46.805269420191,-310.088438568397,-612.905834074122,-91.8725312870816,-192.272931854229,-151.02898045471,-171.511479946808,-190.345786676199,-145.085851677848,-182.060012680263,-153.869841283401,-159.250457726799,-185.129734796572,-188.256559506004,-172.982275617942,-186.948230228174,-161.891814909315,-180.629020239661,-182.493989852432,-180.886879048934,-180.838502895993,-188.97178946499
-168.921256673527,-187.984202744321,-182.533076683196,-198.350789348193,-196.763001991791,-192.158494608346,-223.145146643053,-213.446766803219,-225.105075654634,-243.577596350099,-253.806805162892,-226.336129121835,-259.158255540803,-286.496118879995,-274.768059417622,-321.569131763338,-250.680814655791,-341.419773220773,-384.088922877797,-343.590891624141,-423.917358298472,-347.526544206716,-458.303818662416,-528.955680931889,-494.618663949734,-577.684366964526,-359.301168191774,-488.711452270386,-505.885821134889,-408.335624479748,-257.272705673992,-451.751076108004,-567.908688357782,-274.671174164533,-56.4648046499154,-327.71084845347,-412.635104074194,-696.669526918683,-72.0363386181456,-96.4153125183424,-391.910720263065,-424.442362473065,-182.757621645431,-386.108638471766,-479.497458495519,-53.5247024587537,-144.403720962044,-106.032116578035,-124.051932987384,-134.317681070892,-104.771711352789,-135.862964826374,-106.542266314841,-115.09255169684,-140.34859434694,-138.765769916294,-128.511078545489,-143.47356920242,-126.002916291139,-139.334161527288,-139.127161428277,-135.842096408109,-145.734514372275,-150.560965797851
-110.988070111979,-131.829237422451,-126.789769475506,-134.560583380086,-130.933834169453,-136.42096156478,-157.711744112864,-144.737603265943,-164.669571244236,-176.278296720858,-180.935182215017,-182.311498856057,-194.888802330928,-213.037216025946,-219.640949224186,-260.179428510458,-203.981793812149,-295.179789419064,-324.801438441342,-299.291397376978,-376.805599557344,-292.664226059221,-428.099945272509,-514.469534261463,-473.767341864684,-615.998173261848,-339.723287381677,-557.043879978096,-514.229526728094,-377.596718603273,-289.601970360354,-447.077428763699,-488.47798328426,-329.871201432392,-26.1997640523152,-443.669654610109,-373.819552948588,-497.603029581534,-7.15318379458036,-107.440203527507,-554.803163083972,-298.059728747925,-336.777954640798,-393.731608059718,-348.943857066467,-62.1097922073767,-101.535556748535,-71.1740915062761,-77.0814081175579,-87.0608726874449,-56.1514881299924,-87.6239056210613,-57.3288124214732,-59.1485052472265,-87.8242617295032,-81.2541183280888,-72.8778876004399,-92.5648156780421,-72.2556333881995,-88.0744637354117,-82.6874202206161,-76.734809170281,-92.8645654457111,-92.9036306938132
-47.1524322091667,-52.8704108671121,-55.7939967322784,-53.8072098181281,-39.7655553967067,-66.2321092817795,-77.1993485127188,-54.9046012751642,-91.8956472783598,-93.5036442008914,-85.1530081584773,-126.298744476248,-112.538314642474,-117.211155683405,-155.408305248371,-173.658325812422,-150.628630796985,-222.357404865302,-230.582197600172,-239.970916988364,-288.932146950739,-274.240037172161,-367.437334903566,-411.741382118603,-487.386813142678,-582.548995404331,-417.964349424663,-543.918015164676,-390.874920230105,-346.02877619695,-321.679135410385,-354.675348444602,-365.977150170682,-339.457659411704,-37.2352255152464,-543.406068740641,-249.269098211731,-245.225053730653,38.9331130591738,-172.693934240299,-617.99598023211,-167.926663418946,-457.737497416193,-278.828510489222,-258.781751056663,-99.1656865137785,-30.2445471777476,-39.0171001060564,-9.56216938326816,-19.5987212421084,-5.32928976903563,-15.9689758133238,-19.7073006161717,0.525907185171758,-15.8691826895375,-4.32315961475598,-16.9989043922578,-18.4358870984954,-9.27928222478226,-25.7987077295189,-11.372487725096,3.92904357188768,-31.0701301923281,-10.4009210547064
17.1044603424907,39.657906392677,16.2242950888833,32.201243647426,61.4908766333806,1.30034714850186,-0.299906530654633,37.0372420652653,-27.0387459194098,-7.3197535625962,16.40321887929,-62.2959601384491,-33.9591890045038,-22.2057511797407,-104.418611775284,-89.7323299855761,-109.144956744423,-151.800310495971,-130.3374116799,-192.37761272805,-195.949563885359,-279.159443602323,-312.086558157988,-278.700643637963,-539.237921353421,-529.108737857659,-519.989428083085,-499.03700944502,-230.618133649571,-365.820958248302,-373.674249803568,-257.462984990661,-293.101169342587,-301.685830693462,-152.338585778801,-595.115074770248,-178.6247122403,56.9733966043987,1.40718232637428,-301.150554599266,-617.294382122905,-111.992267579809,-528.575966496018,-149.280621166016,-186.280908345254,-90.5541072154383,66.0757205368826,15.0153808354262,73.2786654602483,73.3280800492815,51.5572593196217,77.4371254071949,24.6329104043873,62.773825606561,71.9602571331359,95.24461991475,39.5603517315631,76.1837974015261,52.6486842571698,43.1376953033989,67.7569631789632,100.331982681966,31.9704255940241,80.2248092983064
64.1795249903628,109.528736089086,62.8165707448775,97.0535274372267,133.922554519814,39.874663246683,54.3496410264487,101.112908245707,14.0877992936784,57.5437329317109,93.5580934284102,-15.5239299711978,15.3131402497487,45.2816627003231,-79.5900338641605,-37.8247634425384,-98.7200370143374,-116.161149988116,-60.3228229492644,-186.36946180446,-151.305693597113,-300.513366872442,-316.489367354444,-198.283162043049,-650.752746915164,-520.92650312825,-603.602542020467,-593.260900837664,-150.193118337676,-527.998256901958,-460.520696058319,-230.04197222713,-275.877788477348,-308.026076076711,-447.665724379565,-634.989602035178,-210.098369139433,395.540833127556,-184.887217707331,-494.975837414198,-588.788487257034,-136.006298729843,-574.552105453969,-98.08738346319,-93.4553396341851,12.3943311301917,134.165947003821,88.6868240053484,134.208250657408,154.057004304211,108.035898677474,156.055236726949,78.5941699402564,119.353469230186,146.036182501872,183.638985547426,86.5535636635019,158.817062147197,95.7930860759072,101.054131212403,131.588701177667,179.887260301997,84.8872940959125,150.143012560056
99.9936049914058,155.411019966022,85.7458984763084,137.089614830455,182.915141799522,54.6390945909712,93.2544689144434,144.316366404966,45.4110381913791,101.870449418767,150.695558431459,9.10018749894302,45.8792085028825,94.7431432704881,-64.4600372016687,-12.6092751633519,-103.979102202735,-103.634331378311,-13.3035654033345,-204.353488501043,-149.085599189451,-339.912850138805,-374.743989830939,-167.069534523485,-788.881799158795,-567.273224293709,-710.571740610686,-918.548052102065,-186.040511548667,-842.278795257166,-602.825103500883,-279.156864397213,-100.742802164394,-425.091111525472,-860.709696660706,-776.405130272806,-194.499002716138,805.596488497026,-472.245428421183,-732.745682598388,-514.158124905019,-95.7605640876241,-581.469904983349,-14.6997237236165,43.056225135303,198.012524174174,175.200847003985,172.632273725211,182.833822924298,225.335474830443,159.3986576925,220.063894362504,127.729846477417,171.781771941209,203.711811887357,252.073461386748,124.037545590386,221.927227435527,119.699639141697,146.41396677033,182.301579605782,236.410395208508,124.571962388551,204.671623402127
153.613170240963,212.784623122734,119.487578576973,184.244646635602,249.906507749018,82.9678838370937,142.782420900571,203.411492942306,94.8027775321842,156.990096782927,222.023047930606,42.8200509878804,95.6826539369431,162.658671360873,-27.6382873299688,25.5570628249525,-85.8531420007741,-70.1685911646536,49.3610311945634,-194.908839370366,-125.831031476675,-377.680076549896,-413.872256334894,-130.165554093296,-869.337834537217,-625.175180109607,-911.878036763903,-1251.1475216086,-349.136542575864,-1137.37668971184,-816.418558677147,-400.365622707351,387.824738160942,-608.854720433082,-1140.48970991533,-1034.46284176831,-46.5593405077407,1277.83436991772,-707.418075889806,-907.436916476517,-409.69772377093,125.008736140908,-472.042869289207,150.253091743406,281.097271154406,391.173800352691,239.073745973705,258.178913639301,255.92065863904,318.076166803409,211.295239490327,300.344577237174,170.808642662711,228.383853804679,269.071020529997,330.811660428777,167.02697992402,288.919393943234,147.1569396197,194.783468783297,246.548275091192,301.68399973855,162.005458404293,270.825979326631
213.555354591134,277.006179279197,167.728565480547,244.393939906649,323.76718665553,133.13326782977,200.633024734092,275.767944212551,154.274895351776,223.347865097164,300.549949724242,95.1280254854898,165.279673549591,242.853926861523,29.5418634779096,88.3023244892037,-39.1775132384044,-8.31262886995151,129.01946215292,-145.43230988916,-56.6750684516368,-381.08628862411,-381.711705648153,-78.2563002350539,-831.494276594133,-627.57675446626,-1124.85414672156,-1261.66896950965,-613.193298453599,-1178.32126739231,-1037.32780723617,-566.864132839909,932.972918124934,-754.473818273955,-1127.24189469926,-1186.57623281758,105.3817948667,1609.13630176609,-792.669988368382,-900.571604710277,-308.891854687668,372.524652836913,-231.708972568673,132.762312601533,582.488079284367,476.365890014273,314.867508528837,307.546004196576,325.180940742605,402.804750875776,247.044848941784,375.113512166283,200.780514159125,267.396382177748,327.779936798157,407.057365988232,204.50295023462,351.065151642626,178.088130008678,235.993855091378,310.51689304752,370.019309436893,195.231024404182,333.466740388766
235.297133103054,301.731722320372,192.42478869064,274.582463038967,349.394344460582,168.67344858105,232.131414140453,314.66452989978,186.003354044315,259.86932905317,339.360935922209,135.040141689595,210.843944690478,285.506226047915,78.8265017327462,144.483821147282,12.0920273286362,54.6601964330645,188.592072721994,-75.4563277286579,34.0172433450424,-320.155338077511,-268.10172782224,-15.806240285643,-660.081649655777,-485.580787729001,-1066.32223259392,-928.798870769082,-798.769678694964,-888.428895328472,-1084.71400419765,-668.841124212647,1093.97698863989,-741.894541945906,-942.803562968781,-991.888529533931,122.735748664011,1524.1112860187,-744.775144998454,-713.839140876741,-226.654653149981,379.115307616618,15.3973174210374,-249.267319256185,704.86249125489,403.114025874693,342.493685713363,286.893667344456,333.166557832152,417.818345209391,233.890412256226,386.571076524197,193.109033996741,256.942120114635,335.509487266561,424.251971426253,205.079404442024,364.424879361794,182.046412480812,238.719107170607,324.505562503442,385.488290327509,201.393029136562,344.640974585456
215.522295537852,275.182654527969,180.204270862132,253.582755604817,316.851186098594,167.60683625059,223.901730117698,298.278506242424,181.298531403848,250.91744618738,324.284266386768,148.14529168918,214.459560851217,276.665946824529,114.599243626433,180.609794875233,65.5887596653308,115.669916573907,220.424572473582,17.51510463358,137.283181485534,-184.072882803204,-71.580492504989,90.8498491965199,-373.289134041103,-162.758451933506,-591.568080359634,-466.826919679184,-705.462949888035,-394.524654270157,-804.215785120699,-605.831228439555,805.079643112045,-509.149196220701,-719.906735910484,-511.333768751573,25.1518128111623,1040.96828719738,-599.631429914533,-436.273317450788,-194.072567785627,179.398426836549,149.295649399697,-683.132434501383,518.706693403911,261.67743257764,311.014468274656,226.094370057581,288.407032847002,363.103294219975,182.867894396247,332.046670063487,153.17021894815,210.32858659709,290.393311293356,371.398536763866,170.805906348566,317.753346452709,154.41569178224,204.481188158979,280.669426140915,331.616383343281,173.60084829864,298.093935823125
181.69655291773,222.902075661185,151.073391309539,206.421138780065,256.161219064963,145.904600442671,191.764695007784,244.961311666137,163.728834335242,218.358276593197,273.92734741284,150.665509940828,197.965451685306,244.290490784193,147.129144768057,206.640696283262,126.665028032347,181.808869420869,247.807226477303,130.44121514067,246.810284572728,-13.8828624511292,174.067269744113,242.814108665267,-13.5498766409142,233.231715677828,49.2914415862104,34.6326238012556,-370.060522301909,118.333051282815,-260.978745929247,-417.016117104932,411.361435847325,-172.854448855798,-387.83663210524,8.32400460487447,-83.263043492062,534.320848120952,-381.719527771359,-159.909908772077,-181.368264037641,58.1233707008789,170.16557253395,-746.908747857448,223.964734193011,164.252631172724,243.690934605942,172.738118069717,225.970848573363,272.892463385597,136.91497806587,246.708199400403,115.228607650421,161.209548435173,222.817170310874,278.656133686003,132.552210277173,237.1299924705,120.855902568499,158.886548081614,211.340115134389,245.792326884064,131.866629849973,225.590581308333
128.091472362082,144.351101900107,103.984065492504,141.257498399775,165.866819833278,114.206647987438,138.763286390761,162.305456093032,134.870037356715,164.962774164079,188.582625009703,140.96902114484,164.8256564078,189.85396524209,163.077297919403,211.389180063811,171.614319247875,228.648602623079,262.778751817851,222.391611081751,325.848103015752,125.922257069887,393.746800337687,374.69913356593,364.691496886218,560.709331943051,498.439428085658,601.024040771353,19.6304003008134,541.186301047848,328.599468558974,-196.696106410113,187.028340094567,71.6484930587245,108.879052047817,469.624293684331,-103.141751559856,262.391267506407,-159.185840359421,67.6192737686328,-22.8774634725199,95.5689421073364,137.556583437263,-440.027019974552,5.05357152763382,98.3938196589045,126.791032146296,110.582595846378,125.675846960809,134.982752234458,92.9160298706385,125.782020082286,76.9310643836121,100.466730009002,127.338861865261,143.021688774763,90.0733365976844,125.479634650492,82.7635032897195,96.7201574864765,119.452300225532,134.592084782954,83.6081795762749,129.076488632338
36.6095042826351,22.6879792620959,23.3998660044061,39.6842819649944,27.8688865872915,61.5840230230018,54.9593498595866,44.9659130448773,74.0838106685253,75.1569235809955,62.018157893092,98.0423441566673,99.0951392722757,95.5017959875178,146.099984615173,179.843487980503,178.786085539789,234.604326882125,234.475112067769,268.562145628963,353.030558474606,222.946848730077,540.853449334264,448.114216043224,696.388100430304,800.216263156766,661.236009292939,1130.55533477038,370.223571186098,841.895064289023,844.771830245275,46.8230873199461,96.150162142153,177.41829993837,648.649845368417,887.036540995974,26.456507294633,69.1771521115762,-17.1063205803844,293.079689463969,379.655540626016,117.594653718233,138.507203754834,-22.9149351794402,-206.870197811788,0.613978596396107,-50.8280802242796,1.22897515440931,-36.7822959206407,-65.7570575439249,12.3465713143847,-45.7312771224558,10.1868161589946,-1.62223259246312,-18.0529055654266,-48.4240387424583,12.6869443692067,-29.7602710659224,18.6284870426014,-1.07512643707931,-14.0423314371578,-26.6946353543284,12.4684139874904,-8.98488986982694
-64.0674668189266,-111.073081392324,-68.4637659662814,-79.1378904262984,-122.476129369515,-7.51212828584474,-43.2464866508503,-77.9903610316395,-5.56420650516039,-31.4298127696325,-73.348896565353,32.4892222333871,18.2635525848023,-13.2860025716398,114.627604377682,130.572950491919,162.273945239203,217.352931094039,174.64349364124,286.962798497287,352.532954006806,296.88667207795,617.935625208672,489.599888363551,906.813251456114,982.41240764472,654.742078199895,1438.3082739827,675.480434332663,996.658945472099,1263.92968727104,315.577541294831,-6.86709002969544,217.495093618566,1092.99610117911,1148.80151129557,225.36589312194,-281.383256067597,36.9644849121998,586.840455592248,822.633943961248,7.31893525365715,263.150759719327,333.935031709996,-478.523903122267,-110.891836984723,-228.490070213049,-126.293696526998,-207.151197792028,-265.62940829153,-95.0663082708171,-222.268418755066,-71.3718773680769,-125.607812151641,-178.821125125759,-242.400888763843,-91.8759887170717,-194.85480195393,-63.6393252409088,-111.858312162046,-161.875081340366,-208.120652100785,-76.2147087657666,-160.408957233117
-125.47804382089,-197.057225478538,-127.589486615917,-158.120378040551,-216.711481705708,-63.429540638106,-114.60961989722,-157.183201076745,-62.7280280235864,-107.504491082957,-161.17335456094,-17.2992586338108,-37.3835261014804,-86.0506326448924,91.3045112446094,90.0611599870687,139.725997760621,196.410343933009,126.783345843356,285.560135440077,341.444287152336,328.744241159194,623.901587954861,512.624239864014,935.03374517754,1065.98171804596,585.001105515332,1458.8348854539,897.889766081013,985.568252819926,1466.09216184121,520.853368121227,-176.998221870584,216.597579124727,1391.93814220724,1119.51427739721,288.00058944559,-757.164194890317,66.3290177491311,897.906788733011,1007.67590989319,-217.529126504238,498.874738188344,532.45348540525,-691.35950043831,-181.412029633364,-326.413668194807,-208.084808841362,-306.371596250071,-377.879755327742,-175.745217682872,-332.849366865194,-126.492136249676,-214.830094812238,-283.984710412852,-356.535604798662,-169.60011684191,-305.35278077052,-126.371885724416,-190.121486936076,-262.118293885033,-330.969981962032,-143.783745846411,-264.993740416172
-139.106471424484,-217.817034933288,-143.146761948452,-173.633610094551,-235.567157317176,-85.6694463657939,-137.481817830155,-178.657925011286,-84.3622208385027,-132.801731245961,-179.573301302783,-35.9876021751594,-57.8582917877509,-109.788820006221,69.6704946995283,61.1363219829582,110.033712022994,163.263064323632,101.876982984197,250.655144414512,300.915156531378,294.540137390073,547.198762130137,484.816117686413,791.216734583617,985.978617674523,473.661302909385,1240.96191499797,947.1563134166,838.316618838501,1315.99413394718,584.16480380518,-355.779505193251,121.261360929103,1510.73504735322,892.64149642243,141.750965975546,-1127.36832093448,111.16910551054,1083.77783543218,920.326979415216,-474.625418862873,763.735066493137,512.156502282199,-698.106455957902,-207.131334544838,-334.840315178876,-230.993973063753,-322.497420779609,-392.43166030559,-204.074470508524,-356.892814300975,-141.583476616385,-244.066697418184,-308.733816027598,-376.853289805848,-189.323357598966,-334.217391967316,-145.836799809991,-217.508823783022,-291.610546525195,-359.85529835283,-164.704095354703,-297.415677156829
-114.009045105733,-186.82928462544,-122.786062208825,-143.021691709318,-201.078463002648,-68.4850611135378,-113.936218330635,-152.496181628017,-73.1670597828645,-113.050762182432,-144.983696426125,-23.6880397774426,-49.2532599261116,-93.787019646665,53.3550606264294,50.8204472529734,86.611526560183,124.24512049131,94.5969667719087,200.417309592828,239.131106925041,233.419287117881,424.759405372763,406.511230068335,593.95133471916,784.768735700163,303.003017987457,911.180769747292,767.659062838952,665.785715516117,940.638947800579,538.230533397721,-404.591902203633,-93.3249332816136,1456.87713792114,713.58876769169,-39.9359928217632,-1148.04816425848,192.834451769654,1121.35808283939,779.722354078806,-560.719231801651,1040.16372442531,400.099177949804,-459.329860999195,-198.748941074952,-282.929310645115,-211.221891665733,-278.957681878451,-341.443923106891,-182.443884264279,-309.547136292282,-119.676960886515,-218.853643375981,-270.565760518744,-336.069690919542,-157.783522988466,-292.083752969005,-118.514181077899,-191.085687838578,-260.808451134838,-314.717467980284,-137.096987244178,-265.537899343894
-43.2785560764406,-105.034246626622,-59.8743297541143,-74.3923159504574,-116.856776911119,-9.06951197297986,-41.6556934692933,-76.5735102692757,-15.5573392586855,-46.4999889301353,-67.3691902210786,29.327057520409,2.74443212215577,-29.7585964765588,74.0268806320874,85.3622581960859,97.795883166315,123.377533081408,129.726451462589,185.594809912994,221.168334506662,214.025200481051,350.491643399499,359.324114933601,487.591954083335,634.451165023978,126.644533449222,686.493802750165,499.695683888423,620.525439332479,664.615479498066,472.435997337653,-231.961871388035,-296.216342945298,1344.22629561231,706.415901458078,-65.5165640076074,-740.241861944692,361.446036219024,1167.43473676392,709.928921822322,-273.473917827361,1301.75778321466,435.246724097868,-44.7790559325166,-139.886966180972,-172.359658676603,-140.599376414391,-177.169993922928,-229.581867125717,-108.038854669646,-199.015705067857,-55.0253399518965,-139.273112391692,-176.682914735075,-238.805275041903,-83.1302680338673,-191.779227114553,-48.7891629171159,-107.361083950647,-171.010729677435,-213.692009787076,-62.2329663630071,-174.891813365477
59.1973572356079,13.6404581948697,36.7386498634616,27.766752513232,9.32919312743555,73.8224824844265,65.1965410322099,38.8602753291299,79.9251999986742,60.039971825958,47.679481135786,111.489183685527,98.0404068935333,78.8205808464768,135.530502618689,164.064178678826,138.490882137582,179.97398764988,220.397431323077,223.447834263015,285.220623329589,258.757206756808,383.637854140214,417.063202728459,489.067112661898,672.598581108664,102.711931708304,681.251271615876,420.400858431483,736.348646853666,633.761765349862,431.385127203293,35.713574987558,-263.650652657248,1259.77710340663,773.507967064483,42.210252212656,-149.039901334688,623.481664502533,1304.22098234746,627.987230965461,216.754630239519,1408.97595444957,615.567868067144,337.265545525848,-33.3267851995602,-16.4816339208514,-21.9699758530696,-33.5271163298135,-71.1108699067544,4.7733695215727,-50.4957425242615,41.2341453106176,-20.8685750057221,-42.7240304568102,-92.1965553067748,18.2982066112223,-58.111929877892,41.8623304863242,9.08120407603618,-39.8882709763217,-75.4310320055303,40.4324998201438,-44.8989852500396
146.631336924575,123.258647045867,126.571028634942,129.756441148379,128.286039798033,140.046957185576,155.815140000976,147.007976148929,165.131973454358,165.749509648025,164.398639159703,179.906684707379,189.473914790887,185.599693465109,195.442266643209,241.071808399826,172.314680381942,249.692195635334,319.541856699424,276.437045662687,382.599670816195,329.337595591506,477.95671302049,539.389363882446,489.898113586159,841.031048954479,291.331508829471,774.848990092892,589.341933420224,861.378021451399,717.686515331936,386.560922312619,159.650579896987,47.7428301810087,1172.09127168854,743.461441440835,94.2269419190833,231.301912012423,882.34028861467,1388.9066584798,423.951695963196,447.96371616154,1266.78341594539,673.808426723781,435.761371489836,69.7022221818693,121.982166027743,92.1152305235699,94.5130227191877,75.7458985736316,106.959248254644,80.9015176619065,126.191443876216,87.128233677111,81.7656926159212,49.7192207463906,109.516857110982,64.6330058544363,118.326737727256,108.322134935633,80.6951777482724,54.5995220151209,127.952271631965,76.9042139085986
191.603461264987,190.553729351478,177.998371930925,194.575979867188,197.716095267137,168.312495467494,197.361580522674,207.610346039557,205.415907041919,227.74253877619,238.5239757654,207.122077959637,233.218358439586,245.143274968286,220.225496425586,276.656978034814,178.373264431315,283.360580441141,369.420784866541,303.288478054363,437.834806471353,372.452206674043,542.128271830393,614.015710482755,447.953533029641,954.988319730987,523.482213297714,820.001278144769,762.385323754491,852.9310316348,758.630374078154,322.853304562328,112.936083163468,414.351427948946,1058.31227572792,579.958404157573,9.59291048600529,264.674311889739,1033.42420231017,1286.58106115509,175.082669523533,290.318858937687,983.132486886865,502.262028736707,238.482017025964,121.722054567714,201.1631142762,153.394117444004,168.952993609388,168.795598131943,159.668396032216,164.20328350006,166.709365825239,148.422616999186,162.20429363434,142.809096399346,163.526737926862,149.520103434005,158.464135744555,163.921293235694,155.665675053129,141.965461846417,173.353927439052,154.594209007012
206.12366411965,223.425002347179,193.752937539672,222.641564265079,227.411742482014,171.441863931725,209.444125994753,229.304049271072,209.283394456859,245.037753299093,267.283248480721,203.45236588864,238.863755056543,262.059000803443,216.571209149972,275.920962700592,160.833514103361,281.917925117375,365.446052273176,297.254197702106,427.043476126758,371.565410417693,536.630358133505,587.790774402209,429.455685841333,904.605031355343,625.435759034362,771.065924005675,750.308773943789,723.105830975984,699.650323935458,300.482043675514,87.3514349850712,618.180615368023,929.634355012103,399.307074082668,-43.7967637982738,131.666330513544,1052.57513642065,1043.22516817364,73.5384084219473,99.7479357269501,738.7427602171,306.403149776791,-0.388637845064332,131.94474626815,246.443256962865,176.362383742055,210.032314726107,225.434023683749,174.829967095441,218.488423479125,173.080450043844,175.387505617425,212.060979904156,200.742671999568,183.831967704849,204.108297000009,166.932914891971,187.966603261798,196.278365980228,196.133363729821,184.627174331487,194.533306868832
203.210051588268,234.108250566319,187.093082867543,226.226431893031,234.738844719041,162.258866534436,208.555763372853,230.936398360225,195.89919042876,237.655651317948,267.30152591388,185.093916226743,229.099890136549,256.258546993213,198.619931914198,255.270784690532,130.732355143951,259.220007355677,324.458216333616,266.096464622909,362.708702943569,348.153217475036,463.581151405365,481.6060598922,430.810869804782,707.867289478585,616.593677276489,585.983307626766,592.599723363217,531.506854199293,519.309491526755,348.539063645412,154.586263052471,651.814397500883,707.892418361168,288.306624623342,84.052202814113,23.4509734202689,946.309559442642,731.872717716438,117.834677733531,139.340020900088,560.184022661196,243.093005693637,-102.102138467179,131.776609821335,277.818999022676,190.200666392982,236.57143514735,263.276534480594,177.346585623059,254.073937582367,165.982617511941,186.868958479153,239.878148715958,237.721583503476,180.708760197528,230.701878253413,157.051095428086,192.985467908517,215.783430492762,225.140368492932,176.210986750347,210.747268496887
165.131064723548,196.643565380554,145.787278558266,181.733420608587,190.01518443605,122.718822281693,165.558512427117,185.387769126621,153.654340849592,189.174780002443,214.984136677217,138.282947258497,180.158359893552,202.862555158505,148.355553606299,191.612048107308,86.9538895843841,190.889128226716,224.794835396117,196.065403101886,232.737773183545,305.109928709945,310.165525148211,292.577734450106,361.773313019466,397.318250584242,567.093144488815,261.257628412967,346.210242968097,296.247189100281,225.554089663231,367.043922568345,173.93976907605,593.761590406198,308.624547203985,187.301657069857,263.462110086229,-36.5802135954209,708.847248435686,362.294914410776,91.8705618404732,252.728475787197,334.264257379028,208.884481876587,-150.653462151519,107.895846267529,251.707262827389,168.501958495541,210.838321396262,240.101939342759,147.762329584559,228.336906177247,131.329052394647,159.851409875963,209.411620510931,214.416922324057,143.08464465299,198.542633637482,120.753665058632,159.352839940474,186.802428173743,195.912127484466,137.564778778981,180.339469262133
70.9245763798283,85.8055342657659,50.4814398949647,66.1880110192108,65.4671269291753,35.1386877049493,57.7950313380739,63.3382607845228,57.5513968305075,70.5703294752856,81.8206770613154,42.2283397955875,62.2776349937807,70.6887150124807,41.5459400340389,56.2584446016744,16.3346318717991,56.3005645269652,45.8491782032029,70.7804143963127,28.8569975178381,213.397845740655,84.9136896229451,10.8959856679898,212.23624253978,7.35060586651375,461.678809405272,-68.038287234544,22.9071710322886,60.2976030138466,-89.6099617174523,263.06410071065,61.1149395094134,477.137353677787,-142.927210924345,18.3753564673926,305.186394885283,-103.023032207181,391.496874805174,8.65399461176981,-58.1913848830131,221.206453600757,51.4751928890624,93.4835666153134,-261.194083842283,31.4393844382099,138.772689655725,77.7028252964051,104.267636417184,124.307266656374,59.7844091502401,115.029429013165,49.4262543852218,71.3294285202137,101.117817557359,103.90396895347,59.0769476782681,92.4427334575824,42.5533869847267,67.5572800346037,85.7582530852747,88.0107563906648,51.9861004431339,81.0799579313868
-52.0290527700844,-56.4851978695374,-70.9991472217875,-75.6493486963977,-87.7716606330912,-70.8785767858608,-73.8907375188834,-91.424997915083,-71.3568153698869,-81.1147440283805,-86.4562004271061,-78.4770795062274,-86.7024819241037,-97.8981885086073,-89.7638036161457,-111.518731871296,-70.5272168827872,-101.018047485379,-160.114251119628,-76.9799179893243,-186.308172377465,81.3747182962976,-132.996779340197,-279.618946413373,64.5709614173188,-345.684199355014,300.177777402505,-265.5520446403,-267.397160064787,-103.06260177408,-304.017534499082,107.110506449962,-95.7392667555074,331.023998754475,-411.695339499635,-162.641164522032,238.366111902527,-186.045617602182,119.281133208725,-204.167857175349,-120.837856686222,95.12852746357,-131.87810454297,-19.8996229630294,-358.869907360356,-74.6661623444653,-0.171397183124595,-45.3289705510934,-27.3971662495395,-19.5350555138584,-53.6007008884355,-24.7820430965788,-52.3057196745856,-42.5222598645815,-31.6154971676538,-34.4563106581414,-46.5030012312807,-38.8608299843341,-55.5044307378988,-48.2833537816236,-44.3451284194149,-47.5596876934641,-54.337351515305,-47.1776691310703
-153.803824051303,-167.855679892485,-168.319594687077,-181.882884571023,-200.639936053442,-154.450107080972,-176.079550206881,-211.095293795893,-180.088595775945,-200.337088419779,-218.841634239633,-177.351983640269,-204.336856826752,-231.020683873927,-186.738365941351,-243.547892292623,-147.176071400962,-225.112798851364,-319.00836979097,-195.448282159405,-342.009544872487,-43.5118532164616,-279.888591366543,-471.939579329774,-48.2233040569485,-559.956896236713,141.035143123453,-393.083364846769,-411.483405263053,-207.610676065822,-419.718087406559,3.6165503735213,-227.028051875749,190.728976753843,-500.690646801317,-284.99712157125,163.102084761565,-274.408013493968,-48.8168457127028,-311.230815493456,-20.9198542939284,8.10097187484036,-157.548131346775,-36.2828863488052,-342.137588274848,-177.181217519459,-98.2108920813274,-147.948790758516,-121.590747433983,-114.322267322322,-147.681736631842,-122.165331587901,-136.047384172142,-135.705097406876,-130.41736698008,-131.67146177852,-138.944755026143,-137.926878225302,-135.471344684715,-139.104562773855,-144.823364758418,-147.746172227211,-138.484913727483,-150.669658005239
-232.499783593784,-251.872946519664,-239.785846730973,-261.085036263692,-285.676615329768,-222.031370775062,-255.090139875814,-296.605608608051,-256.898749906323,-288.041478703712,-317.550776625218,-248.172382589669,-288.020077311078,-324.656688802681,-250.446534201899,-335.646775313839,-217.393588182426,-320.496266368637,-429.227770860876,-283.351918335007,-451.601328920172,-147.81203104698,-389.199856628781,-576.963292421013,-161.980790663001,-686.568010915475,7.22911932908835,-599.446938800052,-476.911780891849,-351.199715695385,-566.406129014027,-81.5858868400613,-381.546387943508,63.6167949018014,-647.789580941798,-408.304832731113,48.220749817918,-408.378236037044,-191.6409934883,-512.283015603201,21.5922398288399,-81.3730974483554,-191.032466892307,-33.4367716812282,-292.97893250467,-289.564098825519,-173.906490827781,-242.596790114591,-200.73996858615,-179.567964316894,-233.838405277438,-195.383768960607,-214.347764407319,-220.318435039234,-209.416780562268,-204.979374514802,-220.513735266022,-211.20363085231,-202.071564469473,-211.972737130001,-222.410076682703,-219.915852343235,-207.100518543282,-236.447439366261
-307.997176777576,-334.203501411765,-306.936620978783,-341.472956817655,-376.978355715581,-289.387640580582,-332.668005208629,-377.558545065158,-320.104963517756,-369.659121558282,-411.507017458834,-303.548927041707,-359.397894358136,-406.709886583004,-310.719773524405,-413.316945255287,-283.17580198837,-403.169288168584,-518.777204401527,-354.273464324102,-546.856346678412,-232.88172971729,-497.452020515623,-661.437678863924,-268.043088862946,-812.398466896172,-113.207339015151,-850.495051633585,-577.78730795006,-557.587500446445,-801.018196032049,-217.066425999501,-572.49501767035,-46.321983362131,-930.239636730541,-590.181467276344,-145.749973478879,-607.434321699526,-375.397190578326,-879.983811205015,-135.918250595268,-264.761766912036,-362.807070952579,-126.235816619755,-337.142815898342,-406.555918090867,-258.894523778538,-346.331589945662,-294.393786237847,-258.694799351365,-325.997991448522,-280.022374835833,-303.591236130622,-313.108749994515,-295.69850040298,-289.545293587161,-299.984572741668,-286.737279951169,-274.128061591219,-287.272089758826,-302.1736076416,-295.480920351729,-279.721910492982,-322.371444540922
-349.861675748047,-380.629882529751,-344.328374511733,-385.718647450037,-432.588841587924,-322.235972389695,-374.392406640076,-424.472472402628,-351.224849993167,-409.390555262951,-461.705899713189,-320.709138081042,-388.470470943506,-447.012542891612,-339.073986553325,-444.938692232178,-303.208353415943,-433.806098740636,-551.712515078853,-377.154281708225,-585.256325639197,-267.25221579969,-555.062645564658,-703.574026533667,-310.519193640133,-895.425233653119,-212.135173738996,-989.801920857147,-673.61729046627,-758.840465187005,-1040.84870323705,-359.603008805472,-683.008231800989,-139.878851861909,-1180.10610320157,-761.0425210037,-322.527233118368,-759.385772583295,-548.424807677148,-1210.62770240793,-351.685087518141,-471.645389473462,-566.998856843232,-280.560846829171,-425.081685855488,-455.047185408393,-309.672532716247,-402.594029172321,-348.568964781422,-313.184819678944,-378.938155843912,-334.573522734184,-360.075114356672,-366.850907372499,-348.545666706724,-345.180088454229,-344.878983719524,-337.521823409802,-322.144707671491,-331.183364690322,-350.625415794663,-345.994512699667,-323.722497897331,-368.936181815111
-322.577167975805,-352.493539256896,-317.174691122579,-352.309091220164,-401.514733961053,-287.987489306148,-340.707657592386,-395.206491900655,-320.0116601355,-366.806318416437,-418.826565948462,-277.50873798462,-341.574892436093,-402.27931976487,-295.602269745192,-391.119014680505,-255.755855091562,-381.819755848483,-481.895995452135,-332.352439533578,-521.128809456467,-243.924253226698,-519.133034800275,-639.862210888823,-302.45982673707,-858.032543750092,-304.439686472554,-1012.79268995879,-676.727253423815,-930.091085854364,-1218.3078566437,-436.14722368922,-614.392837154948,-251.222923996984,-1330.74168695609,-836.295543381352,-401.494630393327,-704.559511762504,-674.403164643688,-1285.13991300933,-464.107939455845,-554.778349581676,-646.207324565475,-385.828499015487,-407.389615509694,-399.232192473597,-281.184184318701,-363.955588824299,-314.450073919138,-292.980344601488,-356.100595036882,-310.673497138328,-343.541685497411,-339.713695822142,-324.91460495051,-324.565981344197,-326.435671246198,-322.500285818648,-310.493906500917,-311.947902091142,-330.593025330152,-328.85253243085,-306.249981303655,-342.05330154594
-256.178627483085,-281.859235888808,-250.025719132817,-275.569503865867,-317.639042822342,-220.428497189838,-259.11852601648,-316.199897781443,-246.893106766233,-276.882642624166,-318.92440913592,-204.280928554838,-254.603494040621,-302.621325282086,-210.892213664109,-289.055040838061,-185.624923223368,-291.478913009782,-348.652198755841,-259.358104239012,-396.204799715414,-214.73366986339,-431.640576088831,-490.617380378872,-317.410111347361,-720.827211423465,-457.29930297345,-1010.21564874546,-605.414871659799,-1076.16826890136,-1319.62000710022,-448.446337828476,-413.897416683772,-389.017892981339,-1474.45899908727,-817.659457710225,-438.366031644043,-412.060010339789,-806.258822070515,-1150.38682731006,-482.022862990518,-458.854777511439,-609.972628027418,-396.887835525059,-241.807656916869,-313.403709376344,-220.115463550557,-284.914479509695,-245.030311213169,-236.194934461533,-296.903053196906,-245.731956031447,-285.785739957917,-273.279206702953,-260.365475849004,-261.68519150711,-271.878752591888,-262.218626867486,-259.609621465283,-258.539090655196,-270.467443842948,-267.896394909143,-251.693407019134,-277.153677868154
-188.712071297098,-205.7857054474,-180.708835145284,-197.799493077995,-230.197824398136,-161.09953578062,-173.999393371418,-229.698414539254,-169.828841005138,-188.766429031,-220.417223746622,-137.627693385238,-175.019225383133,-200.24343201626,-136.313015303602,-193.408080631985,-138.435894960573,-208.147681735983,-217.596147319993,-194.087861308896,-269.223304256123,-217.282147736114,-334.993833134988,-316.912764785014,-361.466715606926,-525.631764852954,-684.774552136548,-930.789642288609,-479.521775292867,-1133.3432688301,-1266.03595649682,-396.660079255312,-191.931785569705,-484.353770120432,-1564.49374839564,-727.271293270479,-438.451327862429,-32.8809073213987,-943.416147798439,-976.877509789551,-428.54207995638,-236.916251552137,-530.262332901975,-311.345322347085,-21.7324711972539,-253.650516058378,-175.437898541475,-219.700990351671,-191.567647270158,-185.853417931613,-233.803378205918,-183.017307959854,-220.730914909121,-209.741082171737,-193.488442996058,-195.497254977453,-207.916440248245,-188.605074808713,-196.964287606324,-195.269532796562,-200.927350759709,-197.240133841503,-187.559854580477,-205.179766596342
-107.611363419337,-105.048654234331,-102.085667568433,-102.16053994678,-122.124223715907,-100.714527408461,-85.486212364729,-125.272176142978,-92.8126845370842,-95.0757725874543,-112.328907335573,-78.360343877712,-95.0083542454852,-92.8192983688195,-81.3836009300162,-102.837446511158,-113.821799525251,-124.546754040342,-93.0388464931054,-139.438108684506,-138.275039676855,-249.193664059863,-219.090410609132,-125.050766895402,-381.435197356458,-263.280984103123,-886.37903247425,-674.227983718517,-238.532342887992,-1036.33176545628,-949.858247398356,-228.559405081728,1.53121211529507,-480.58133294601,-1439.50302652441,-533.090867811466,-290.170301662136,233.420149000076,-985.154043220649,-775.91622365067,-267.773785166249,-19.1214776344641,-389.90700718848,-151.836989749733,146.510212006516,-155.336616536128,-89.3527934592051,-114.035554658384,-95.2802568871361,-90.6779918840423,-119.9655056169,-79.1424367576352,-121.52860940033,-108.219194266905,-87.8710765006477,-85.6792333055509,-111.227189968263,-75.0348815959468,-108.420205323511,-97.2101286586214,-94.9017879586087,-87.6750575601922,-102.033920578032,-94.1102669199302
1.23997742041215,32.0236027425097,-1.82707888425457,25.7995264583428,25.9242891389558,-25.6702668245539,16.2747653782238,12.3168928359192,-8.34443765276539,20.0415872712147,33.0298661810906,-23.1727665008283,1.75103258172557,34.8720710917388,-41.7228332199083,-6.11106239673427,-102.287072870092,-39.9684439788002,39.8576500306153,-104.08997006109,5.88350450710523,-310.824855340783,-87.5555878196143,85.2902115552746,-367.422494691632,40.8109811676068,-977.083277091151,-306.289075210381,100.963984507381,-802.834259771943,-409.064073116028,42.111772166146,199.524012278153,-417.784965979181,-1097.83578040061,-217.737717378217,5.22678185013842,361.366083298539,-870.306410355863,-454.969927167259,-54.861819643406,83.7533899200089,-179.339893174853,-25.1113796597813,219.962688320425,30.6137987123399,93.8236682055825,79.0633358817968,96.770785364754,92.2605671757181,70.5334230717959,103.032657885356,31.667385166826,65.8944616128365,86.7169058110801,97.0454279313938,32.4617428629469,98.5089327449495,15.0470904558094,45.7740468541182,66.517922625042,85.3770915563893,12.7567587349829,71.8341412801107
116.425093036775,168.035965462217,103.868611084092,153.166160455964,176.042176696174,52.0501304554636,118.662992170043,154.01271858314,78.2782087356342,136.390230642447,187.662622564955,28.5868867886335,97.9501193070479,161.518362302437,-12.4246079182196,80.6686201914555,-96.9271610409248,28.6374496369546,163.527024166712,-87.2226296170743,136.505109340799,-377.614125564279,23.3219308347342,258.595408688846,-320.4705765143,289.128832878349,-970.32039343442,16.0178238430649,384.895278050711,-482.899377056945,177.90465521954,308.581197212456,458.017185804867,-357.094579031362,-644.050116174987,151.656836280933,304.318173927114,501.197924076644,-636.84678189048,-25.8807661348872,101.074391949554,134.467991777732,19.9596114841345,-27.5608039153235,230.854992620952,216.138796304526,296.98931542511,279.557667313638,306.391838639553,288.007791347536,263.663218806167,295.593635611426,195.043867122038,251.279025612565,271.988358855775,284.112164953142,184.233094452327,274.82609474225,143.195563037869,194.498971878712,236.037952499458,268.588835673381,135.034460953748,237.659256327021
219.917186062725,276.120129606866,203.703651000284,254.433574952109,291.887711233167,132.472212346442,214.890712713272,269.849198225718,166.947761384294,238.04712781548,310.119600264605,97.3757102874108,183.39498734603,266.313446622172,35.9461136524237,156.845726165339,-65.7352993204458,98.2690026880455,264.229751069183,-46.8716419054996,237.619561938555,-372.96375123152,106.973085428606,356.108883407973,-204.421563544566,416.919788923874,-868.812064691998,229.18102877633,534.389937329577,-137.029864643239,683.160217334739,525.75447735381,764.93241796888,-277.432078792962,-93.2134053025382,511.617729961651,551.29044829536,716.197665549056,-340.455103414493,412.703883460268,221.125951547996,305.895236509277,160.12799972172,-95.9879886029692,300.000368821719,312.56246621152,415.921504819475,394.380901819492,428.65865251225,405.507711937019,384.598786745519,415.365410949656,318.34458664872,371.064032618956,393.592149106348,400.414553672355,302.848994127103,389.828867036446,248.286236331265,311.233795235269,358.548707060991,393.787799424307,244.635973861349,351.256300469345
313.215211674545,363.731716401091,297.474263315988,337.423875578973,377.360185823332,225.816066584215,308.737682122648,360.065736087236,259.646547627439,329.480311263665,396.43549503187,194.256200397349,269.713844382388,355.191066050621,124.000071892612,242.143122957711,17.5586451273441,191.568414792033,349.296061580758,47.1318460831853,319.755848794502,-249.596749510986,190.367850250049,404.947755572946,-19.6224139629222,440.632431284686,-605.559541809821,384.382218225474,613.907045953226,162.906697858708,1056.13852770889,715.843330278507,1008.46963416482,-107.606928486061,535.680289333904,813.113204836519,789.542127392389,865.251474643844,-1.03152440983788,788.970116407768,369.967283498386,606.793799790174,266.911878097214,-122.50774036343,526.052243861771,361.754558987686,453.217853632255,438.186088705612,460.751945636567,450.196821011456,436.673397284314,462.037398000575,393.828640079265,423.75169320204,447.135394361472,450.546065594927,381.83999762923,446.837144841254,328.653056771911,388.243515511562,428.553485274418,453.460332005867,332.753474964211,415.701150121249
388.629018300533,431.10272865965,373.643442729867,406.243918816475,441.722515682492,314.480696287319,387.426383577005,428.493891395423,340.940114572127,406.238506559229,460.246254335168,290.512211543621,352.254410262304,432.170119969857,224.484705211205,330.87568800675,127.160620531592,288.201587031604,416.84394097949,170.483955110815,387.804031188112,-33.7324973973457,288.021766608787,433.281705793905,205.371045663619,401.862678235228,-129.593178436488,565.982824911843,636.708462685762,454.391507876522,1210.47116645432,838.700048007682,1091.41146273862,173.544514241607,1104.49474083691,957.766693848351,980.07234035703,825.781421417,375.668492260043,1062.42225515045,497.480076564218,837.626746067991,312.301517673876,-101.753674311157,829.339636830829,439.78970247413,467.032620710245,468.464033122322,461.98193188508,476.541720732945,453.536415203487,479.251249388209,432.533620853221,449.148088857416,472.930278620517,476.319705551507,428.511395025808,482.372638445124,381.297058108548,432.411733473539,467.508208463279,482.940127001255,390.002242531673,456.771876231619
441.375169452551,481.800250984044,433.289597626502,464.089888466334,497.477253154356,378.535439411737,445.509957047342,486.520058292609,406.075222982574,470.196302024398,518.48884413551,363.032041424182,423.603400614982,500.500519463792,312.203679087673,408.786595529395,228.580022969538,373.757585767666,474.198989574162,300.860800260177,457.790458411173,232.646236738233,415.251753446524,463.492107628941,489.822708580065,382.920423571237,493.398742836945,816.606454586124,579.256968934869,880.336087868082,1137.90520278393,867.316632186484,1066.85935632874,499.71111054206,1505.90575205749,941.381696588611,1019.67249519338,727.609768252253,764.452817318742,1214.56997613432,563.011627047723,882.541647746735,241.178860850599,10.5425147850291,1067.87966534852,549.143584533622,497.301701637571,511.440911022092,484.117058810372,524.916409873066,469.600729760528,509.520203071967,454.200707228453,481.839652995936,510.436044284763,517.781150058868,460.941583207284,526.466581880521,410.043345095485,467.579305357767,503.653298623085,523.966450253074,426.649491527108,503.543189065514
479.336235090617,529.678689776708,486.086928605697,516.242351722392,550.933604257247,425.413612259765,495.925883730878,543.871399158166,467.200644243879,530.089087114818,575.367456678879,421.479446873034,489.553681239713,564.599338019456,394.262998003444,480.514958749514,321.487697768012,462.238070187516,542.005070650495,437.103806220261,548.564632893201,500.424165570362,574.59010936337,526.891260336262,808.867777486048,470.878452526059,1056.72070347728,1070.12635069039,540.803143143823,1381.14531521391,994.752253576959,874.94834941671,1027.95531386139,750.82014615106,1720.25409084355,901.695294247787,892.340413041413,772.735557360612,1079.97562013878,1231.03087576568,629.882582022088,842.843765525829,112.97865972257,351.625222422391,1206.13318055924,633.761767694869,543.550437147608,556.358061831813,535.259215062899,587.048341140096,504.561205714431,561.396101879726,478.081004636469,529.081416509254,562.359931195799,578.489011804029,495.818324421183,577.48950068825,435.638292614022,509.21912087253,548.755515746153,581.523124302089,462.751251897754,559.655569440006
473.08006251627,530.3895363086,491.268051975573,517.00946185521,544.430259542406,437.347515161674,505.017759962779,544.801220091337,489.308063147193,539.569529160074,572.876887455834,448.753043720885,512.78229818648,575.704169829299,446.223906077883,514.04654565025,390.129945844914,517.490111953468,573.999684140884,530.032200497151,599.683013449459,681.253078224358,676.364073699477,571.397883716093,1013.91543509566,569.380729184135,1355.92748024578,1162.36164219764,588.953699687794,1606.95008653405,857.484502688632,870.841194937271,891.898814567808,814.260559629856,1664.88206163578,890.605114541883,666.77456266698,854.347173256503,1191.0042907714,1057.77346852178,700.506876469154,787.547690491082,30.1886307330755,858.661923296828,1200.28279581346,616.192502896805,531.200698078639,542.294095941363,539.457972189117,570.988792966691,507.18526713101,556.061328918838,473.445496419458,531.355404875617,556.706369229724,570.225063917896,495.702325583839,563.883915986161,438.126660108728,505.525869619321,543.211991569234,574.471257519553,466.112372902606,553.111220159761
364.293988537055,400.269642333675,387.374605051106,393.96140069423,397.106166797423,359.343337084997,399.55896261945,406.648366616807,401.677492653457,422.452991431293,428.793682883283,387.512444765303,421.082782378185,452.647465386213,403.540551027445,434.180550719051,382.619065068133,457.020249102873,471.016958269402,499.871957472109,503.687168024559,708.474068924412,598.967574752637,470.715919294394,992.723446065813,459.404575351452,1375.22440698444,1003.76868414154,586.909915581732,1369.00658103324,658.678451564328,749.752008748688,514.471898193128,659.759350760849,1303.00865505996,816.916028211108,388.537432989865,636.98298252461,1080.3468386629,696.775490923485,661.597104170106,582.60716013705,-6.27839512474902,1160.84444611414,922.153242173826,452.559115916802,372.970300467249,401.093728592131,398.132760651127,386.946587342152,393.219994979071,397.52202353647,374.807477896182,404.984092797038,408.242731407855,395.272611577853,392.533288525897,404.074019407224,353.248328571608,382.000658898285,400.545507959213,409.412377503252,369.808900436651,399.978145650274
166.116674886422,159.231303283112,198.545931514544,169.215345825683,139.600654601034,196.717609988403,189.817049154125,160.393435834816,215.626814791609,200.710484277323,168.986408998413,232.896390957907,222.43631170479,211.664602050647,262.72209640313,240.174015276085,289.114457676036,280.045482956629,236.203253119114,354.001688450189,265.256123208566,622.720379139737,363.005779216963,213.170577618377,801.534677737561,138.776347088318,1247.82840583761,701.794979272036,406.956651866079,928.656472648808,437.052894448859,500.187044052801,-21.9979611733592,402.043161894505,872.260299296442,633.787800577237,77.7911148114737,12.7196270529211,938.758057406758,332.885438125097,476.1544653159,130.615960897359,-17.5326524086363,978.964699664067,379.172883658054,205.961070431569,115.670786048495,165.974598647221,142.352109408381,99.2342223221034,178.837230096545,130.46411443186,187.97893606127,173.855626243372,150.97997291532,111.131545394258,198.231993593455,140.879504403098,179.203877785101,167.585869189949,150.895284605018,133.259746048756,184.374744729778,142.939796494021
-21.2276163595313,-56.0148469372651,26.1986676003546,-37.1726081156554,-90.3933143386845,39.8413872215469,-9.21455662195817,-57.4674223516832,36.7534520288899,-4.59169855093949,-69.9885135241261,67.2956005314684,24.156201796461,-20.3422440120817,107.778580290983,38.7187280050264,172.970109162664,88.7130206949714,-5.09183814789666,188.867777614669,12.1408096111927,516.66728619184,109.996080225479,-65.3088306306209,543.043746733335,-163.142834522387,1071.55546405517,404.077440746759,121.696508564927,611.955617169725,308.748609980925,231.182163061239,-482.769233015676,252.736790948589,626.717329218161,415.51275772556,-206.772650719773,-744.595514230925,926.480981665224,177.681495014244,229.460641200518,-376.151806801209,29.6855702654381,452.931509668854,-162.380705342077,3.31485564761753,-84.8476315377532,-37.7685589303354,-73.8802746838179,-119.624938911101,-18.791502412048,-88.8478257591754,8.78318617248404,-29.789366830313,-73.2989536864178,-112.728874049642,13.5897150363617,-79.4761952989722,7.27710207245064,-16.2418541022318,-63.5359393166453,-94.4988700096521,12.6951998812711,-73.0487864854837
-140.72554206969,-175.675604007123,-83.5082214337499,-163.375311203042,-224.888188431192,-61.919563731733,-132.409750856443,-188.288866216443,-80.706523395595,-136.150272274084,-216.213833663882,-49.721979691515,-109.45935575788,-172.828833294959,-9.2489212189123,-104.671767403956,75.2972541025536,-59.0884163079961,-182.892004549241,50.1012421103157,-181.833604850759,403.109623484498,-101.249056230705,-287.884890995956,229.782795086957,-347.550115605897,844.505482893469,110.26902671641,-174.055394065819,410.938352028165,193.882890963075,-44.007983506922,-784.212836328248,318.955458766174,451.80219844474,184.444625238624,-439.144540119987,-1245.20288893493,911.428891349801,165.245251774651,-72.6064037394942,-668.740687031044,67.808806324069,-110.807966913279,-465.21180230372,-116.649311551477,-176.401965534198,-154.115946730973,-182.376450670026,-213.672588153412,-140.609138001867,-201.856011342968,-105.4646850541,-142.875806395579,-195.043281013324,-218.089804153665,-106.684098722914,-197.193169150728,-102.835865495827,-119.264503453803,-178.379975441445,-209.206147384466,-89.6659391996625,-189.931683923559
-245.841201625604,-276.899685906922,-184.601129076044,-271.016146447278,-336.680325633596,-160.994158890988,-240.399857588671,-310.054589161555,-192.478533149838,-258.268914909878,-341.175553197316,-154.911993245969,-229.565554595626,-306.840350456643,-127.192293665455,-242.404691955506,-37.2599802132675,-212.208542806501,-349.002828757027,-105.843766221653,-366.243125074214,227.142782642116,-325.902998696161,-510.374122722873,-137.176744496299,-539.794635259164,556.94113061182,-230.688075133177,-508.215868355,178.186874923712,-108.887815687579,-426.416052406799,-1018.69009782562,478.136698134226,99.3178054251857,-196.936656112926,-705.493322049735,-1331.9703949602,676.015188512676,1.35719273299166,-516.641995757554,-766.453472209197,-103.016643196331,-612.003663366375,-614.254163148927,-227.576237621215,-265.254985879478,-255.468392330502,-279.178975470734,-297.923719747221,-243.522923491827,-301.640731440977,-201.292006280861,-240.288882553749,-291.32594095825,-309.339062780027,-211.612254515303,-299.498240198771,-195.618705825305,-215.141545520209,-274.479948152005,-303.885071213767,-182.000334810914,-292.29323274337
-388.120292190339,-427.423449582972,-322.754290016509,-416.898273718651,-490.668432738962,-300.757289302049,-389.612586947893,-476.907858612054,-342.277400877184,-421.95179348559,-510.759712891364,-291.801378247738,-385.654863932283,-477.165992474685,-278.262523704959,-418.452309893793,-184.799760141834,-401.227888695568,-542.819328886092,-294.535555588209,-579.806260171212,-12.0482784841696,-566.556418391358,-757.299758176549,-471.016791017173,-795.121737972081,262.266758495061,-555.69869864593,-859.849991075761,-75.6305841738307,-564.329839242657,-887.081601307057,-1244.12684436062,543.260732946209,-349.989618170918,-745.307793181756,-1032.34100244442,-1207.41610527096,288.976409425527,-407.82664725451,-1004.92621878327,-876.494893160322,-514.278220273477,-1055.1353768998,-837.748105051048,-372.698453065859,-422.024271296229,-400.191662672115,-437.13116520386,-452.908973397351,-375.246567921432,-455.271431340653,-326.980091098587,-382.798640094077,-435.719151244349,-462.859740363806,-344.05789939049,-452.360950616715,-319.271951235008,-357.090653520027,-416.60119438914,-452.134443540324,-319.655630256089,-440.579981751717
-521.111533258249,-572.429283096154,-458.371972375007,-554.635221221239,-634.280775322947,-434.314439900213,-532.227013072158,-625.097220297688,-482.73015746131,-575.089907856332,-666.337211227383,-426.408448817142,-534.377315176984,-633.4007907489,-421.117134236189,-579.15783904206,-322.83358681902,-564.929221900517,-714.633152381076,-463.74456454889,-767.325055824592,-256.562849714788,-752.955316566768,-953.390863934753,-708.705094029079,-1003.95101425296,-7.48009276601157,-795.288288837156,-1073.13520200079,-315.353110253295,-905.39718710575,-1210.3722018992,-1396.65981421077,460.848047948412,-627.416618811017,-1174.24790090598,-1233.59757029318,-1160.69392974789,-19.5876432469465,-823.270427368147,-1240.08761589757,-1036.04100553494,-908.097820254201,-1306.99969953225,-1158.17037355468,-504.179314712022,-580.17768603385,-537.76354144903,-587.091100590953,-608.681539925156,-496.154954124386,-603.68098076487,-448.764808242074,-518.584189916614,-581.065440307404,-614.882540248646,-465.769179029254,-596.245017523595,-437.619182950797,-489.860758441675,-551.953268530748,-595.735004942906,-457.00969119722,-574.916773596681
-569.380536129866,-628.564289982207,-525.500665460732,-609.815775209655,-685.855247151703,-495.061732566146,-594.598932174393,-677.137117028883,-550.984845770869,-642.337093161926,-722.376417840208,-500.845219755766,-611.284928237399,-703.571748888007,-503.811039487454,-659.551611091214,-412.400914322496,-646.434072191768,-802.954757986601,-581.154225630281,-870.52501269567,-478.142955438544,-877.226608394255,-1044.11902029128,-909.502143716834,-1128.2240562421,-315.138313932571,-1023.11888436773,-1079.04381750819,-645.169038532486,-1038.91389138088,-1271.28678732479,-1393.07703470727,260.846459563383,-744.206192005764,-1284.6820240059,-1151.37337342296,-1210.20899706286,-235.203555989944,-1065.58619641951,-1137.00227014534,-1118.94508067418,-1077.83327204248,-1255.8754727175,-1402.96064102586,-569.994057187064,-656.399739501111,-597.256363808343,-644.113852812202,-673.889193898806,-550.379964024764,-666.243775926799,-507.126504527924,-576.705704198171,-643.990839274806,-673.816219268018,-524.346049109812,-652.901001516258,-492.901865880546,-545.046174874554,-608.990781590185,-653.020038959763,-520.25413950634,-625.758990233254
-536.820115470853,-598.83751487066,-519.998021700308,-583.573823173947,-647.0248583791,-488.530596122315,-580.920000318959,-643.526280528316,-552.334266741594,-627.559171754167,-689.374467668267,-513.661155342905,-618.813195245122,-693.226140606375,-535.653714467547,-673.425340031083,-469.44969130929,-671.991120453544,-813.947508142848,-669.402834558205,-910.822610434925,-685.582836869073,-991.842307469405,-1066.92936181576,-1123.47189483368,-1265.11305470071,-703.103522812352,-1308.24782335125,-1015.88439447438,-1105.1430254212,-1151.67288557143,-1192.92260306177,-1245.07425541144,-42.2441275192148,-957.86189128038,-1246.47002479343,-923.094134653115,-1182.75842562076,-508.936288939948,-1218.75540752708,-959.489487617352,-1087.81341631478,-1094.07870168449,-1046.29128809666,-1457.3348660425,-574.186506274848,-648.666345648634,-582.799354594904,-620.081298566339,-651.690711563385,-541.292400630752,-642.709830538184,-501.296625676197,-563.044964259507,-620.451267839588,-641.00577305356,-523.674821335986,-629.200520016033,-490.881268481552,-535.650427718677,-593.987486379102,-629.940956031659,-511.831206470035,-607.860073738576
-479.574007750762,-536.1503809191,-483.063782710867,-521.928096020822,-566.300838356914,-462.4933205611,-541.420853422045,-574.353131218244,-526.175045401666,-582.530584312659,-621.692926276858,-498.996069056989,-594.355455346695,-649.528632356375,-549.120913043988,-662.376723007943,-512.318487477139,-680.944731694859,-787.589044277538,-734.501262926187,-921.625511081418,-850.93581795697,-1078.46199766846,-1067.22190272325,-1258.14001960324,-1416.24262008401,-1068.84974892957,-1532.69303462346,-1027.17617755663,-1501.09934917179,-1341.25746122095,-1130.11573249397,-1038.51243468351,-400.232594570687,-1326.84294776087,-1244.44735312062,-770.564941589204,-1031.48010332915,-839.136405704111,-1342.73598019626,-892.915024903969,-1003.3204991425,-1066.45603228404,-889.993123831277,-1341.476832712,-532.941434026177,-581.527934544212,-528.143449844179,-553.900461537009,-579.869948107963,-500.035260442669,-570.355377294459,-466.008407519731,-515.461005215727,-553.954492157706,-562.530589225914,-488.831726707167,-564.206041016791,-464.990815218988,-501.670191976705,-541.290506640312,-566.265151978467,-476.261053704615,-555.595742427364
-407.345595876659,-452.396262042713,-426.202809247617,-435.460217070657,-455.192223588492,-422.220125181283,-483.527446677793,-476.205552311124,-475.138512411658,-517.788867660588,-525.32939582355,-462.29330619815,-540.727336707559,-580.145940345328,-530.940314060447,-621.146053549564,-515.39631498395,-652.372810693118,-728.896798546158,-732.133403260415,-876.104884337999,-906.173605146799,-1053.89320227848,-1022.72421578578,-1201.09369305376,-1433.27505724873,-1264.00568452396,-1542.43799229767,-1089.41167693164,-1619.55011851299,-1459.34280561663,-1077.88375883272,-836.74456840967,-705.626320049879,-1604.6050850007,-1205.93499040627,-692.115564728621,-855.740452464148,-1061.96367761343,-1336.16804120747,-826.779616947189,-882.631076096498,-959.850994797001,-798.888103476697,-1115.68061573322,-437.792939063708,-456.749317274294,-433.046550391514,-442.91104303584,-459.314714175691,-426.055271499242,-456.646967918972,-403.163175904802,-434.98293100291,-453.103611309855,-446.42095081362,-417.208156676001,-456.976538976455,-410.107866338651,-434.893427549686,-448.808047506262,-461.521733408009,-415.685879740595,-460.643492090621
-299.091562677851,-337.026285410495,-339.51458695114,-320.534727518865,-312.675015097372,-348.128386970804,-389.798531120262,-342.068017102481,-388.842713377755,-420.53536534225,-394.26637899259,-391.905599244849,-449.316462125858,-475.509163259639,-461.855000665199,-535.815537227763,-461.199897095874,-567.389148622281,-631.642873241507,-648.150031505713,-762.144236108483,-841.121160241888,-921.797761582988,-912.954541290709,-1012.62000068607,-1272.3355204392,-1281.6216123881,-1385.03524722591,-1112.29077012853,-1484.0873380675,-1401.18964635608,-996.948799381618,-661.834807502613,-894.032738870542,-1600.09249866868,-1061.55062409627,-590.67904411573,-705.206564551035,-1102.93806076234,-1181.37923246596,-685.129264872081,-717.466583159428,-768.240244893375,-689.32639811111,-845.001506553183,-307.957774203688,-305.046157506872,-310.388448654721,-302.990298397906,-305.109822873771,-319.012530555963,-314.864213643639,-308.535507714126,-322.930400588459,-320.863451353406,-301.536316947541,-313.190796730524,-312.242697518655,-318.892680687633,-328.556209883845,-322.541397338093,-321.744576935848,-319.453012105042,-329.469179563884
-167.728637500613,-206.252675146422,-233.694495486367,-194.723251032622,-161.381860137469,-249.063318702067,-270.948154083479,-196.514972542984,-283.672810891172,-303.707286801797,-250.672372351031,-295.225917380195,-338.184671475856,-352.137225411281,-363.575281826758,-421.235219332646,-374.900460155607,-456.665235403179,-510.790312718848,-529.338703146862,-623.827509730587,-716.695667352905,-769.493441345535,-766.231878437169,-841.257782511526,-1054.69912134615,-1217.03444435891,-1197.42384379497,-1052.79003496235,-1251.46386375365,-1226.16400069442,-923.475947239734,-518.61459161179,-972.713800435853,-1387.24126239371,-898.142627557323,-490.669945386969,-534.427140027229,-1034.43809090754,-996.603589076864,-574.526000495518,-540.403263444094,-590.685629869104,-562.843762163841,-589.456818197028,-198.475531062302,-179.866770085516,-201.927038460615,-181.602146370924,-168.897105545074,-210.659635055095,-186.910449647122,-207.438202707102,-209.459725516258,-193.588249712567,-166.561454283556,-205.471253666982,-174.185016035694,-214.455488849925,-216.383094205294,-200.854112097032,-188.329374551515,-209.892516873844,-203.423906921046
-45.1773629854152,-83.6961672399806,-129.521760234087,-74.8142042375534,-20.3811732505969,-146.663006852379,-151.370234039501,-65.6408096345792,-178.37924556082,-184.889866575954,-112.600003598049,-191.096455231106,-226.316129651078,-227.83215700005,-262.105117317992,-293.583071120947,-282.053000253693,-343.145431199018,-372.8922859185,-409.280830673849,-477.579338086962,-583.643899181046,-617.274082915415,-586.783596459912,-713.035207232244,-824.346847026591,-1106.99078156123,-962.704658691203,-869.357415883005,-980.148165990906,-958.042840758869,-841.698391992882,-380.734345985275,-940.088473094687,-1100.75733320438,-738.180664180929,-428.291893427573,-314.663067523059,-918.260781660227,-807.193101582087,-508.178618169552,-380.199122360202,-451.066098373069,-455.853902614215,-358.486998677886,-127.685994061121,-86.3067576196262,-117.248218277695,-90.1321631440778,-70.2531950674275,-121.398497555538,-90.4060615475245,-117.989880232361,-111.869092034007,-93.8492730845045,-59.9948661909462,-109.238754745938,-70.9356437977137,-115.512805255177,-120.531953217416,-101.867450018177,-81.2573943095205,-110.200659170571,-98.8018293537422
53.923799946666,23.2483737062154,-36.7329202872286,30.5219985419448,102.824116451366,-50.3824160076502,-43.0622222067094,48.1747647914948,-76.0641741592936,-66.6462277851956,17.9335016268602,-90.580691496841,-111.419267917953,-102.156248481148,-160.290178266287,-158.206833311454,-186.118302009563,-213.288788855036,-208.035778401266,-280.809826886039,-293.648267342715,-460.206649956336,-417.960392201787,-339.093830680264,-559.307341986339,-498.85643475327,-948.327530613984,-605.074243425175,-511.684129198652,-664.04999341864,-558.094313058861,-617.846019646603,-187.798782431482,-798.403960984009,-757.470054894965,-480.024088411393,-303.392375188729,-74.1630315242976,-759.107024723461,-547.801980175232,-332.603385165742,-204.770970891221,-269.194441286013,-333.283735726711,-115.824173897115,-76.7578518488116,-1.2692981079501,-42.1499545197588,-10.8798892836242,13.1155625558791,-45.6903794409187,-6.78827659844592,-39.8937366629393,-28.3962264090946,-9.79705345304358,29.6033061676495,-23.8347060988711,10.1309528401392,-28.9545518044083,-33.5627705569993,-13.9755305745848,12.8846585212244,-23.4200777712247,-3.76487586991288
142.719132351813,126.565742884404,55.1710354732251,128.88974212249,214.088954238738,47.3026666934763,66.2092218462772,163.464621143137,33.6809076958624,60.6198598246723,152.099632837971,16.2486581147731,21.8161055056,39.081432495452,-42.1521538409373,-8.87151683558056,-76.5579538777936,-51.7602611736965,-10.8495776353605,-132.119805350888,-62.8050297758735,-349.687856546365,-172.161578036784,-23.5415532314207,-374.197350242075,-84.5872976446588,-788.352157365446,-230.288354648026,-21.6643591651638,-375.677330235685,-97.382869176308,-169.151508828223,114.352978057535,-626.5699353542,-348.350403097396,-107.101484500514,0.593538898018673,185.708541731825,-579.615158066276,-250.130396659646,-4.3373509161862,56.2811180120164,-29.795853198576,-107.489732325993,172.025803284616,-32.4472291427891,85.7757726001943,26.6813450071024,70.0306864343887,105.011211341061,24.9340440968595,86.145019294924,29.280505645415,46.0219490263387,76.637283587174,122.224356444344,53.8462831572638,96.9794272618169,46.9648867536448,56.177243536651,77.8386352569202,109.205660563448,59.0613442330595,95.2327082677373
243.348349666641,243.251111044773,161.249735994788,243.127915093647,336.937074285899,153.406335793962,194.282518521663,299.040751545538,159.902001276581,203.520346548102,303.069373500316,137.889476513786,173.801261224284,204.363142920291,98.3018422936531,155.452505049431,44.9347777902803,122.268452079112,201.077205393701,20.8841821641807,174.197853424044,-253.891113843219,53.092719207437,290.121381168448,-226.89908773808,266.935541684916,-688.079187088559,-44.8929891424737,428.799003536402,-207.241837291036,243.939299094081,374.678861980424,506.199233834574,-518.953023491287,47.5570575348365,237.370032165795,417.1805878095,504.692416717216,-416.204560474014,-21.3785787367142,282.47737256378,418.733786840725,158.774992221572,224.879134145051,501.215576265164,25.7758110148929,191.814094115354,104.034230416369,170.984407714354,222.93292992018,101.300603086134,199.497555929908,99.2462095558562,127.603169801293,179.033549344253,238.000007776516,132.793406906922,209.070564100025,126.698142785959,154.60281446415,185.24737996649,218.328690333671,148.644755870465,211.403926937185
347.439791670787,363.076338113442,267.075873633547,365.568247931021,470.581503795781,245.185320506168,321.562743336888,437.457201044662,278.629737727835,338.583822174742,450.790878732179,244.839933718904,309.704347076865,365.361389657678,221.176116833848,301.611476689118,139.861813413258,261.035826389303,383.395178217676,138.966244007651,356.852228519737,-175.519748889652,202.317810062212,513.034605620734,-143.473476516727,448.048061047078,-619.617360174457,-66.0877543440832,649.977819812923,-119.944049559937,358.999420219035,761.940918300355,875.396678543486,-444.843054288338,292.728580519979,396.054102287113,742.785759160478,860.701954716289,-271.720980594127,97.5372838005746,324.073562565103,780.70068293875,183.477829450017,520.062689617305,811.592805181922,132.656584564893,328.39473004425,215.685239596088,299.870091829328,364.24545807294,196.339710112114,326.676346210926,181.64941554419,230.938773852346,298.921546621858,372.983511226736,220.872947490865,337.137899028404,210.872275243994,255.470918911249,303.799083486634,338.282101551992,240.65724414423,336.842402041717
415.248538525436,447.396805471163,333.703657204366,449.634362809944,568.415701712379,287.29972996016,401.023594518543,528.059110389342,344.786458036685,425.443305081897,550.187252810954,297.062769107574,387.07624380761,471.31179975455,276.388153151443,387.791315810059,175.680426364656,337.267963396411,495.935726375114,206.71960938963,456.91789892132,-98.7713314687253,286.640398637984,609.732313093887,-53.3665045162202,500.192253857728,-469.423223815868,-85.7097727748687,592.743767062439,12.4058452166176,304.926810928173,857.521752961123,1115.45822173011,-299.256893184898,321.14355240926,342.383892768153,859.080271769455,1159.6618706239,-150.970638334596,154.570870074168,161.857439809102,999.973553183846,65.9868612187494,663.790020009574,1006.50486301542,290.272355789466,459.550829174862,348.498641600544,426.056919522102,486.356760492551,303.83761551422,438.106432248833,268.313071046775,337.750428210138,408.991398736368,485.241877263414,307.918138379916,442.812488816113,274.709289924333,334.390779497904,400.837694710915,439.375470960633,306.977314543772,431.997264073655
432.02389079256,477.8293883395,351.651500399389,474.123667682637,601.361245249325,286.288924565191,422.542501285458,550.454870765262,357.162911644397,458.699837671484,590.25421642325,303.701165824953,408.901145530163,510.447069103841,280.692903842727,419.15695434492,181.559557255415,373.980071218776,546.144073457495,255.371863513344,503.965649993468,5.32903132841287,357.677326505421,628.009384135212,110.469325138715,524.131637702652,-191.042951192441,63.3557246535063,418.083046410946,228.493081957153,222.950768655112,748.036865457333,1222.13671308173,-103.501358272161,236.435060979993,198.563063785007,795.533291555289,1366.90181853219,-91.1990549758282,209.989459303416,21.174083536484,1043.50630830809,-49.1500398099989,726.366739843801,1055.15836685823,439.641304767578,530.514269365277,451.551379472433,505.086817426122,543.576067883844,394.09939863584,502.325195796531,337.045299071869,410.996603394258,474.229971970829,536.977543342664,371.069633472173,496.785293445714,305.415224524419,373.610171270352,448.899199864294,490.9560164943,333.977311698107,472.826106025381
428.825291231051,478.298308508021,353.763486866651,468.762005271397,594.884036227236,286.620451081095,421.841412269657,540.103383404438,362.109677323642,469.069138562513,598.673616712856,308.648206991695,417.630298491401,517.040020765092,295.016899545179,438.207117490501,206.68142064571,409.021641984572,573.85355823986,315.019190531678,545.269368156594,138.599069373276,442.791587767134,647.053650763052,314.645745243995,583.593782440253,120.44408679422,319.944634495125,378.261518535782,455.745216427355,239.895276348273,629.296883759638,1232.02433958771,19.682964434214,202.915333484857,134.234271053824,643.572995902819,1512.49849468354,-95.2270870496154,265.792011984911,45.298351094403,1002.0270627039,-63.2623188136934,819.902549177871,1038.90919967068,506.738495646426,528.404915083446,491.949456412464,519.810858947788,533.147955449679,436.876016693767,511.020219011177,373.105783602177,434.869903803631,486.891115580111,531.992620986629,397.279563681584,502.152591534573,316.999769350667,383.140376267517,457.57449980247,493.391997468223,343.390785069774,475.196650156836
414.242454781688,457.281127843333,347.310361980814,446.888065678599,561.293285672233,295.210191028212,409.464069351591,515.594603630386,367.57065738982,459.478966283821,575.119568900663,315.44656486502,419.175438200358,501.072835709848,321.879546593896,451.580923064937,242.717670726209,437.568009698581,577.903564677568,368.113093021513,578.04576550022,265.441247771149,520.653563998544,678.257024827037,484.162470934631,674.537459035788,368.780705044843,526.426428468912,549.793703952071,635.453426647744,428.014285739507,608.656445133716,1114.49822166529,59.4089270360152,270.150067400576,236.023623501259,509.454165795006,1522.75745299298,-91.0529253752415,296.622499216701,199.844744717441,928.982322151887,-3.82172721107847,910.667814954618,997.480249708014,470.347135605729,468.57326642947,464.14218714043,471.951791899638,471.556908798009,415.484132376208,464.756175019185,364.071473315444,406.847767948069,448.672622061834,480.000683425089,379.809320248346,459.864245355476,307.740789792615,366.025731312592,433.019310114848,450.327386744051,337.248351427401,442.994530051115
346.851507419728,377.739263171132,294.366157703175,372.654060293209,464.303420325054,267.872918442943,350.114945909136,438.901661984672,326.398864951816,392.970847833726,481.809072443491,283.000765065536,369.851985640939,430.023183249023,307.917903849527,416.403089369012,246.726701549471,421.496489705785,515.542259787136,379.938923172034,555.879052403827,351.374277173913,556.20350881123,656.671565017591,597.624052893704,739.32310653474,560.778798362601,655.666876186514,729.442671549247,776.798518431415,737.739169735203,606.157386798859,823.548793545972,121.418184136852,406.235017279983,432.979151107208,430.775682518146,1251.1667091087,-7.16761456656761,317.133250064434,373.742961867518,754.138934450832,81.6502906974141,872.694369765007,834.171113885194,365.064714674572,353.434463018451,368.212375309665,360.153488883111,357.650493193141,332.081594774877,355.766721037501,298.565849993467,317.827748170401,349.73473904727,365.350554020352,308.92892708259,351.399526081696,253.092303729952,298.804747101533,346.555209623889,344.515094988161,279.809817506529,348.298533838127
214.19413397379,226.947629048187,185.009048770262,229.320042228393,292.782737936287,184.329947895799,229.46072860403,287.631820633194,223.106485944429,260.623712553246,314.782464336795,199.241546131568,256.606294182063,294.357086821218,237.719648280902,313.86586406171,210.523772725965,347.62245677455,383.090179882331,342.841959450349,460.35511767188,380.453967241565,531.102453654569,545.666366224362,650.998531318386,727.73607398999,699.354353284674,767.185559467739,694.620029702025,874.366854598004,968.600667631432,479.26652447768,427.170920227884,241.897005833274,587.66245126206,549.957629643341,320.037299317349,733.630908443865,150.98385113281,341.147883462019,454.509040860167,423.186324876915,181.686385244664,649.887527000357,498.416809520715,226.051889222865,186.148414196894,218.509888243656,191.725977765098,186.778040363893,204.221761918465,186.451791801606,184.199341215769,174.197641357908,192.550443057864,185.434691707023,188.001907665408,178.45362244015,152.884611665515,173.228039941854,187.600739197883,173.502971209822,165.888777699534,188.708885463352
66.0922864319938,58.292084939807,62.5246775195482,63.2584521953551,103.39027213889,76.7884473368884,87.7435701152772,109.607763130135,98.9344322583263,108.062020337413,130.264507885958,99.5975435776628,123.946719147111,136.43082512628,145.007784817705,183.490138749615,152.79546384553,240.32427636955,232.268955173195,267.357433713946,327.783871968334,344.015032799383,444.937064054471,394.437975851947,604.629007714697,638.710187132659,705.515324544555,819.587229819488,486.419937230367,854.921206132082,945.917144706305,246.337677621818,100.145525714895,341.450591789065,745.750832266185,511.587176700618,130.553051719444,228.104114237646,312.167375052354,344.777866380563,405.297444638104,55.6502066566866,273.363443921205,322.866959342361,151.471007648755,66.7607764339276,3.75003308777303,50.5319683321466,6.06240773044326,-11.2160310003117,51.7169411525506,-5.64691827666729,45.2906680497687,12.9277917139197,13.5835414791523,-14.0146490756166,43.9568943069108,-13.0064828631442,35.2822429379118,22.0944468532537,5.88212065170994,-17.1386842583098,38.1431604799907,13.6090165636825
-50.1438893797916,-69.3667598515133,-34.3397063120941,-66.3488463281474,-39.0570837361539,-14.0940967472586,-24.489533835922,-26.4557810568782,-5.73958044596627,-13.5147754307635,-11.0516415145137,16.3543914559608,16.8479797835928,10.6609106356428,60.7865705264438,75.700118896797,88.7161478878012,135.818040076936,115.163088235866,175.684933153843,210.059414584216,262.838936561949,326.520240180112,276.151851462887,463.753843548523,501.929760491307,559.635423403611,713.812869187386,295.965270588876,680.160505792426,693.824609994432,75.0099461561026,-20.6679358254558,358.217824468879,751.655757697462,416.498591915035,-28.0868759368187,-38.1364860957068,395.483127412571,310.333551780036,314.651724078081,-132.872231669583,331.640336488013,47.0715925516325,12.3410883728213,-97.0063329027375,-135.042343626586,-100.276576008919,-138.204008453318,-170.651716990885,-99.4213535469383,-160.686294585384,-90.7757033439075,-124.351885761955,-134.627044939637,-169.20486327428,-86.7822484230102,-162.233107064469,-74.9433094433615,-107.054878919865,-133.681901557956,-162.832271123567,-67.851387538211,-123.360294926366
-120.777299313295,-141.935078832249,-96.0943988941848,-136.794244820591,-114.400102493626,-68.1073567351972,-85.7147915154343,-95.5441700096007,-68.8814886326109,-80.8773644599195,-88.3473674772841,-36.4247163522472,-45.5413089563636,-53.6359338853908,9.75831420205225,15.7844852683623,47.7440054298924,71.6283577634997,53.8824249280365,115.096312393404,138.683558124568,205.634050122068,234.522364323181,211.721331860886,340.002561459685,353.62126854013,408.668372858142,475.592918017443,161.325617405352,443.114679452567,338.754326382865,27.0201391066857,35.2332932633447,320.355427616607,549.675358947782,316.686868348017,-88.7262181130288,-77.154261755662,373.860403871638,219.21544724241,250.741901046518,-87.2803850482481,345.383847813231,-87.1452766563214,87.113843613796,-234.847088974138,-199.64653145003,-211.128008380867,-210.591210259653,-246.914655334799,-210.683575583683,-243.210758661116,-191.684694987322,-213.058524767547,-222.589582612117,-249.603430046187,-174.94503455735,-239.037928023461,-153.747027897009,-184.422966936826,-207.447411336567,-236.136093209407,-137.608925808269,-203.025582057957
-141.610503120015,-167.982156093564,-116.555229721963,-151.328296034723,-134.693895285713,-79.7213390685312,-96.3992864383589,-113.175597170497,-76.7753124212631,-92.6127130361383,-108.626519863342,-45.1507273764739,-54.7784715562119,-59.706298215064,14.8098634848498,10.1351259931519,62.6460428770512,70.6595041536116,44.835694050844,125.347901581816,120.17792639299,229.049462966876,212.936490266418,176.835557867626,342.390093929861,243.965269351832,398.570025350061,268.201136494954,-17.1823029064725,281.11588240801,-26.1027366731964,-23.6829169754774,101.673663364722,268.114593992367,230.709346245574,127.831674728609,-159.83428165787,-87.1855803291901,285.060700072728,46.5119986018775,144.244968899653,7.09097490936101,287.506877770123,-139.402214563443,192.826330401446,-313.91896681605,-213.194669274692,-266.369161765417,-227.920303642932,-257.620501372242,-253.957106788115,-265.619656707621,-230.439278081618,-243.536905361806,-256.136136219162,-269.257217918518,-206.31305861924,-258.555486315488,-176.957578512061,-207.451000530019,-229.47338896266,-255.037849229644,-161.048353268024,-230.942185633424
-126.777059649293,-163.176310959479,-102.453517002217,-132.863816060725,-130.679995796797,-61.4102302418654,-77.4232801919042,-110.632768439651,-50.7969988473435,-76.033006636665,-100.990359702549,-18.0986525823436,-30.2973328001307,-43.791615073374,56.6690745825636,37.4242060420253,112.423185224505,105.976993432026,56.1449142904583,178.141203149493,132.228462732612,298.215062801231,248.53926035611,150.090515196908,447.546583108862,232.123121352649,479.859159997074,232.964002422421,-214.154453284932,238.472264887773,-304.548720638828,-175.868226184299,33.0223617173194,198.097599447943,-58.9551603498355,-132.388916658984,-330.607227531021,-229.220801521411,169.373812420636,-160.118075448081,-53.507417697702,-42.2289907162037,157.205682833592,-219.50022135272,210.059832567527,-323.976216932411,-228.774883192079,-270.904923181097,-233.048701650534,-258.547617912278,-242.745858627208,-268.149414697991,-218.608197016617,-232.94384480884,-260.691491832529,-270.748846056492,-196.597117829202,-261.080937527518,-157.639905521176,-200.365083900396,-229.109131905209,-255.296137503755,-150.982033271994,-229.815496040776
-128.367757122715,-171.249745684165,-98.5643053497089,-136.831367518628,-155.568177133999,-53.621351580895,-79.5475643479119,-133.697912230675,-50.4358551358459,-89.8100992821949,-125.159806998875,-6.47255282580886,-31.2297929210728,-65.5620515472838,71.2878658802716,37.930000842829,132.633020019217,109.053149393555,29.6885203669,193.898756648908,123.232332570535,313.905799132243,278.991788068947,113.07307896373,524.860554618493,316.126618053725,492.36991541747,351.24523997748,-285.555970209445,246.486069019385,-397.482449939131,-363.998148879918,-218.194434993609,111.866805671636,-242.940678166176,-270.203713899433,-538.951220324533,-499.810107953345,41.3739057171139,-290.768324729609,-243.137833909379,-239.771500324036,29.543016179957,-328.807124462659,138.602416202992,-296.2208459055,-291.594308004829,-269.65707877716,-273.682088438629,-303.485645828241,-232.373449676104,-297.207489187862,-209.967034890693,-236.186761375856,-278.130574535769,-305.386593244371,-196.416967754628,-289.41211753643,-150.863755694499,-207.386767966429,-246.669232857278,-279.649582514015,-153.399188108282,-245.280810811347
-190.625374548998,-240.316221083488,-148.961001629656,-209.186317689484,-247.005607125253,-95.0877130893539,-144.258263451015,-218.152941036135,-112.42632373826,-171.747781860343,-223.751366121585,-56.1496794418367,-101.288349519293,-161.071838082723,22.556625653291,-34.6894941517813,93.633029632967,41.1753683333307,-68.8475015340165,132.48584110247,53.0499773152944,228.531159191104,243.816541245604,42.0939249063363,467.915614757947,401.749500198622,381.798424308026,468.417840379713,-198.606244860339,190.76529917898,-295.037472196469,-472.730589256719,-613.700716323805,43.1892297315357,-358.194917699177,-178.288665242234,-690.494002618566,-785.110370225661,-73.8080914285558,-304.742499063328,-322.750929522401,-450.86279935628,-36.5294584022168,-381.157622080592,-21.8162420842147,-283.939731885666,-411.644046768852,-315.326312530183,-373.695922347531,-411.043105032644,-274.061727939843,-385.978279547751,-248.101052409893,-297.593870273804,-347.963798504881,-398.124665682744,-246.005394768575,-367.420179779986,-194.279578820697,-261.122375524407,-313.431955664985,-358.945314081302,-203.231342809522,-316.356239843531
-293.77616248657,-358.141789070515,-244.300632727383,-327.368303484841,-379.052987070847,-180.027344654634,-254.261754292499,-345.489352038448,-214.006129462455,-295.297019497072,-366.416655489207,-153.478622088923,-220.296777576213,-301.120397816205,-68.5468348772994,-158.389501506249,16.3483710686722,-73.3126484549632,-207.463500096138,21.616122487632,-66.1449088881321,90.7302221022152,133.613908421276,-59.6478121031092,277.564746907522,402.333877498868,236.390059957839,446.605875595035,-39.1862691514171,12.2215708432277,-74.5112802671764,-464.891870339544,-1000.95368793822,22.4580963862961,-469.155453582212,13.3453678946041,-727.371551956554,-980.314126203021,-135.023228144699,-259.327278965309,-323.578633640474,-539.28027755923,-81.567539748886,-345.000503735268,-262.085175631309,-318.878019435645,-553.477860638205,-409.656449756485,-503.543651767477,-545.976481706225,-364.305727289463,-516.485241389241,-323.2699579004,-396.71928702824,-459.244766429041,-521.757214864107,-330.695568785886,-476.907552008765,-272.962964118101,-350.631957784468,-417.60547745195,-477.076328350164,-287.284168916242,-429.317570957987
