76.1212598152584,53.1398889948423,60.462029224691,58.8671075904665,19.50154180029,40.7429981106431,45.8177487649937,39.5105586660151,40.7429981106431,50.8924994193442,5.7997150335435,27.1136677818159,51.2549816089407,8.69957255031525,-47.9926419025725,-24.5762924546406,-17.761627290227,-75.3237989981462,-102.65495609372,-18.3415987935813,-119.256640377238,10.0045084328625,-45.0927843858007,-54.1548391257124,-2.10239669965952,-15.4417412768096,5.14724709226986,-5.65472215770491,-5.65472215770491,3.55232545804539,0,-3.91480764764186,6.30719009897856,6.08970078522068,2.17489313757881,0.144992875838587,-0.289985751677175,7.53962954360655,5.65472215770491,6.01720434730138,5.07475065435056,5.00225421643127,10.7294728120555,6.08970078522068,2.3198860134174,-70.0315590300378,-48.1376347784111,-49.8050528505548,-91.8529868437452,9.64202624326607,-26.9686749059773,-45.6002594512358,17.9791166039849,-24.7937817683985,-62.926908113947,-33.4208578807944,13.4118410150693,-57.5621717079192,84.2408608622193,45.2377772616393,20.8064776828373,-33.9283329462295,109.397124820214,-4.34978627515762
352.276579423798,256.134865098904,283.26612746983,267.796148966786,93.8393068410591,193.252100137113,213.561861451168,183.779381191725,192.382142882081,237.713933974945,25.2721259511969,127.711281394348,243.783689970521,27.1424678957802,-216.849525295507,-115.5989969135,-80.8711837182965,-345.882774273783,-454.617020634657,-73.3286410864263,-532.376683698952,53.7783543825274,-194.390194981844,-235.79451635808,-8.30840630628317,-75.5180996653235,22.6111590819594,-29.0064207761064,-32.4862497962325,13.8833493054096,-6.37968653689785,-26.4052882758028,17.8205680027587,26.2856195379351,5.39006054399863,-6.85164165543918,-13.6278737846954,16.1288355085748,24.5116416251102,23.0417680770797,13.4225997117219,7.27889073409473,43.3714741807791,15.9911253533954,-9.43618928256285,-358.686853387465,-254.800682274191,-283.80900642263,-466.433823955973,-15.2183097269957,-168.056277368501,-242.543404917504,72.2611393072816,-139.104874500732,-326.570368501488,-188.014762017813,59.2890933803245,-287.920464937983,389.136483089028,210.229938395144,98.5087726382603,-172.80608521201,512.562182209547,-20.1321615795862
626.895436694908,479.650745300346,517.991710093517,448.801093611555,151.030493588987,362.148452313226,374.056274764652,307.27248465807,347.363548610085,410.067987723974,4.26985001214788,224.642997741992,439.443407392481,-28.3666271463647,-386.868866668387,-239.19728601085,-145.896222052961,-634.296015656808,-768.368197390762,-99.2094154498095,-900.054096374668,119.445032894234,-306.369322430323,-377.567891815055,-12.5246662099449,-153.791921680022,35.0497206789034,-66.1269873984663,-87.2059723033989,12.9298000839361,-38.1735788125675,-85.8975431634446,-22.3086219792318,39.479535571186,-11.1399166640672,-45.4754086766208,-78.8254297356779,-49.841275508196,35.8823010012046,21.2177565622083,-16.9292910268031,-52.0681746296578,52.4371782001232,-18.9371342940444,-96.7020487653917,-789.099883049651,-569.133470960616,-701.155716674204,-981.380542087928,-209.314591056025,-454.924836922464,-537.109526138394,76.0254399466083,-338.679987606685,-696.492911720085,-438.8581100729,87.6323967932317,-584.342506860495,697.003396964041,384.368241718302,179.170247295419,-363.655366683721,947.941304933621,-39.567026997211
480.980736145004,391.654718163508,431.712685581282,260.301616360114,3.53298406816366,325.331377897487,246.154689869095,132.114044990341,256.698246377588,228.791193083706,-180.604326218938,142.52560434558,304.154099236927,-272.444477288051,-365.30375736358,-320.907540371721,-134.823226464607,-630.163976557161,-585.461471019918,-39.2625251978977,-652.640781370119,135.61216333667,-183.176203567943,-226.646395435456,-12.6877372995488,-173.234584665329,13.3590351363707,-92.446360012802,-148.248939102899,-22.4658921729646,-98.9571556472036,-174.781044801242,-169.691755731452,13.1360712469655,-63.3790089680754,-123.849778710793,-206.391532719016,-239.77022677953,5.31827501659146,-33.7411480407832,-114.772896977037,-202.250285793336,-18.2932676643102,-126.964904601841,-267.705839254373,-1014.3466211068,-678.059127471075,-990.46457962287,-1103.70503164677,-482.089661547257,-702.666830233909,-632.516215479833,-91.8060395499289,-476.158954357695,-780.4716593678,-533.348611751319,2.77945357867598,-607.887925576029,564.948120785451,329.931880218598,117.910281791878,-395.779767697338,842.215639075453,-51.9765900321629
32.6135479063867,23.5881217812452,96.7141814232041,-152.449629504914,-338.219964771125,126.986983125802,-94.5803152346988,-271.191398994121,-31.3158940239295,-241.999035127823,-498.512414744249,-75.4537140638777,-119.835971993919,-596.572735811254,-287.648532539303,-352.927512517713,-81.4510841225465,-529.579657825134,-170.563829758635,-9.26042593695786,-103.960020475554,62.7591238368299,4.50653102320186,43.4920382203181,-23.1398771733523,-125.86166291759,-27.1088907578668,-91.5647467104908,-174.506301049373,-66.7689407351508,-142.726399298675,-235.202649782945,-326.170259205972,-29.5817645700942,-110.658744041499,-183.671678159523,-302.135234970804,-404.49215320603,-44.2829681166091,-94.9635094618943,-197.179046830985,-316.694959207139,-98.9838059946448,-206.597182333976,-370.783738553138,-906.766799364432,-389.33839974414,-895.583793907882,-724.969831557017,-446.077265258567,-691.683022104954,-417.43659678459,-331.019052404449,-456.473747078082,-516.613171982631,-328.153580377425,-177.49520958008,-353.112189179544,121.214651798279,79.0525497430994,-118.423384854698,-207.906608175812,313.857921440804,-76.2571401914451
-226.219930661622,-241.765466445393,-100.435387662588,-319.865073389648,-592.326532000343,22.10258508612,-267.544110672241,-487.663159297986,-195.964694864395,-541.280038228459,-672.94964193738,-179.021718177691,-415.220764728497,-680.984609210407,-339.67927937973,-303.489389793218,-59.3544458916583,-641.851083124333,1.10920529282843,-103.240918586171,75.7944319292686,-58.2622130806204,-8.16841168295951,115.275140726623,-51.7199497391191,-68.614722226043,-48.5479128413792,-66.2341698542057,-137.39558234882,-71.1458060118653,-120.152623084024,-203.252331317079,-317.021546665332,-39.2339928355669,-96.5979371794664,-153.530320832423,-253.165893510828,-349.204124540258,-50.4687364169978,-82.0439060967791,-156.108007793673,-250.229208490526,-70.0692944501625,-142.025448773677,-267.705176715978,-609.689603029544,98.4358426562428,-559.895601321459,-316.365962855423,-78.9898971972634,-482.874112717468,-175.426677321781,-431.257934593033,-396.545458167134,-336.767995172188,-72.4638848304122,-349.935546171243,-206.621934698084,-154.842919523841,-157.490576923317,-394.088424467842,-20.6775592043032,-48.5084260117793,-148.717268270414
-249.458319924301,-313.968139519568,-88.1005082742085,-220.212636584414,-616.683289336103,50.1958657026386,-183.626774886726,-387.490964705929,-145.263296717667,-491.113335066199,-537.125985736323,-94.4795808767152,-433.994782851503,-391.488758294363,-345.666964134057,-131.453618119901,-46.0827858374803,-703.116257845334,107.957299175788,-211.806072012666,26.9431457056734,-178.612254356342,-129.784512377061,61.2880669750503,-90.4589275691285,-33.1773631523395,-53.2708291037292,-36.4442251960367,-61.9461320070008,-41.3243202930704,-53.6241611542831,-97.6128554007811,-142.340668158669,-20.633757499475,-37.7464995025183,-55.9019783992753,-91.9230247559822,-121.290000431644,-9.33993425651068,-8.14002273352866,-23.8569768815238,-59.5732001758679,42.5434133214911,14.2883664065044,-44.6489744662657,-207.044350505694,436.69592075513,-248.424257444847,-142.363210798693,140.189780154135,-295.088886129824,-161.93294663018,-389.807760243859,-417.673435417395,-447.408068180194,-80.0360344231784,-467.206386066344,-318.888954617642,-244.128047388801,-331.164351091173,-564.909696788775,-47.873423564385,-194.026694324596,-281.4034747358
-278.130825686815,-363.477413126945,-57.1055844455645,-138.549883476533,-518.103030485019,66.3771507061351,-61.9538914754775,-211.960775991548,-63.3401796508406,-294.058947010526,-236.52428586286,7.75250151629066,-366.996265270785,64.633702224168,-151.700040404056,10.2179149157587,-7.01893888509083,-421.426836000199,341.560974073788,-241.965276781694,119.861151423262,-264.743635489447,-204.145569675373,51.6956561268098,-130.033726767324,-30.6975026292753,-58.0870905962517,-30.0004052463142,-13.0821081806426,-20.46067472417,-7.80317875034814,-7.65064444820963,32.493906223809,-9.1654892000643,4.30232974662763,20.0566351097037,45.3767632768803,78.6440091784939,23.8548835588225,44.2000136251431,75.4460203431436,89.7221699941756,113.389024669791,121.054107948757,118.437031823095,195.100523542876,488.740274256922,-16.8810803824676,-57.1998683413563,16.4096557949152,-174.051070247779,-282.789117894311,-301.232239766384,-411.60124646974,-550.873408168591,-291.618335650275,-473.607635062516,-428.089740835448,-329.157619985351,-419.794098621485,-552.503270729967,-199.569281833576,-351.88759884084,-385.445192853494
-300.844591461235,-370.299744842517,-66.2249457697282,-118.957836912628,-352.174162774493,16.6232756995924,-36.5291282900865,-124.208200348585,-97.3386330372419,-133.602740294156,36.2653635171243,-28.8829978829929,-360.321735326028,408.994711278731,72.7813181958959,-127.885153136165,22.5392479267186,-19.817584792992,373.719539985154,-248.151614102818,196.312845727948,-283.921849491107,-273.152043444117,22.4424599950339,-159.054976077706,-66.0898299565446,-55.1083346679536,-49.3143774741044,-19.7498466325277,-19.3870361339722,-5.74512627610499,17.2875914661828,102.884961928068,-11.5169553261237,10.2258751633174,36.7797728732812,94.2179851513816,162.870550551365,20.0647439484312,42.220051491593,92.1731485181765,139.38592741977,97.7433365006449,132.522870833516,173.451419552593,415.747993370165,438.222684791045,190.678817896481,95.3762132698092,-88.2171813313796,-18.9315144787292,-250.616599583844,-147.769676807966,-207.879641032417,-346.552324137158,-329.978208514644,-291.660104047262,-255.347397614192,-325.724507769271,-315.903918992866,-327.751377992604,-162.124923483819,-434.936764253279,-288.404725519963
-241.068577907719,-268.815837365837,-81.961469564099,-106.681410235375,-130.628898324572,-62.4608745675446,-101.419851971697,-122.12971396017,-241.975968713466,-76.7490233193781,203.450904199652,-181.070466460437,-421.617020833354,507.46906245704,201.031398140798,-500.620136815337,4.35938494076266,262.823136619495,15.1066093256423,-263.471165471297,69.1778318798618,-247.768434878359,-333.11261047336,-100.268224375327,-161.429975184675,-114.868405049754,-36.1584800436663,-59.0647067766178,-46.2344356501347,-15.2745947779095,-16.8490154836295,11.5244484787267,104.185631592859,-10.209981039174,7.94195923117493,31.0934712501472,100.694192159617,181.140395546302,3.77438315692692,25.4384663795406,80.107542415203,146.586223048068,57.9038022687636,112.699867758575,191.484236397813,468.473109778158,528.211649649246,389.556680593361,344.501781255291,146.590814210602,206.747317859865,82.8913078927257,78.403267722963,146.828695723498,111.560515965152,36.1715643532538,8.99199182251995,187.853846245846,-180.935869640519,-61.9682766886673,31.542062267028,182.350603779731,-341.580928745864,23.851915624106
-215.357671023101,-179.040535521114,-132.987827657472,-182.264170850561,56.7376919165081,-141.828071540881,-210.828038111474,-178.992211049547,-368.618390718433,-128.198957720811,248.854758162005,-287.522544858549,-465.307590632083,369.944388941525,365.721429308969,-687.902635712134,-28.9820264168295,556.91768546443,-367.097650815567,-216.958252097415,-66.5122444315444,-195.995004891073,-260.999517885142,-240.958606698238,-115.796904928453,-129.731835517479,-2.85352150825849,-19.7377522142585,-42.2366662668829,11.8725004801299,1.70905096967984,31.2926904289878,113.02906485831,10.1367001508544,27.7136082351698,47.4434179709177,127.049529942398,196.405829308819,12.5566810180988,36.9321951224049,97.7240680014127,169.706132651384,57.9974528589567,126.481566857478,228.876752849625,534.425501440287,743.27814497449,573.609988627504,642.047466348873,563.861985272258,465.336813606626,541.635381140102,290.737105192395,472.482255398932,559.046412419758,570.096292522527,254.456764112465,634.186561341701,-61.9166456536285,141.986659094625,341.744128065121,577.352960581022,-233.15592593158,335.831873710168
-321.343963689017,-193.749678131628,-260.384432186787,-372.546007251331,185.293071547662,-224.817234696478,-311.882982199427,-223.898926551069,-361.099715793574,-220.377061111624,233.684624939095,-260.636786995416,-402.072142041524,111.473099589526,652.917424785058,-378.3976397819,-2.41653211398393,981.179508993263,-362.535387236419,-52.6525549039918,-2.51899787647864,-127.077188981722,-41.7558947764891,-303.306662783838,-14.5484540546216,-79.9973366170775,45.4366254855096,68.366952621229,4.43408750189297,62.2851407272632,61.4788173650688,84.5682812481603,152.052221926406,47.5485286105619,72.4226253647484,91.2089880357463,178.074216196197,225.535340119445,52.5860410512157,74.3971184437848,139.337184605028,208.511751658568,91.538022097662,167.908843232789,273.910588987014,618.634011856773,852.934849184931,676.52891844546,834.79503710141,762.86140441199,675.468178133976,772.711431635133,403.134927732176,657.431698406374,772.554571975523,807.695146685084,357.125222382776,811.278786370509,-75.7814881155753,190.099585830605,459.88146258573,715.242527693749,-250.669633191593,466.405640129421
-511.953878394941,-281.361350478408,-476.482778444171,-568.702196988478,261.22931058881,-358.798155699899,-414.627536291042,-205.396408148818,-292.342005444985,-288.42046354969,235.99111495157,-191.107889827233,-285.442409569276,-103.184797539863,892.992742544272,246.312618749028,101.074715384869,1347.38213805888,34.4457409323609,176.541096483508,233.450488699094,-32.1896189066147,203.093896580587,-248.033031491928,103.484235380876,13.047339470076,96.2283240998112,158.037569571892,65.1628942024335,113.002612004587,123.744074578999,132.175547174679,181.046393719652,81.2177542587039,112.690703127991,131.382250982611,207.497583676268,241.345058456746,89.168189068294,104.045345637865,159.309795094642,219.812074276517,108.249651687442,182.433052168268,279.24373008543,531.919672000033,667.340943848373,549.777578510259,738.374357186213,532.125022430367,678.308752466882,591.127975435847,353.732568460315,630.771466114202,665.479775871505,557.295162133019,299.383969242409,638.437459317923,-183.973456849351,91.8075873112057,351.442408509944,523.724829295244,-369.300006169633,383.548808150978
-681.657426435155,-389.395435258918,-708.896712469406,-654.200317489076,189.269552423372,-529.294234813232,-514.905368834804,-177.971160359562,-267.975233079375,-294.371836063676,237.349494447843,-141.308522173177,-177.766040521184,-139.989450499077,901.730531214876,785.498705268121,211.106228942283,1418.8584287667,576.766836959576,365.616606640055,523.135440307369,54.0340614848791,386.185897841301,-97.5833990286133,185.107901757568,92.3673765282959,123.969781731106,201.184392566955,105.136997133942,133.642100979933,141.883211884271,141.175590523482,149.267838240762,88.400426402603,118.082041339006,133.622298725172,174.297175215199,199.027901410807,88.3605628056341,98.4860285292582,130.176676392217,168.509615614285,79.7979188599798,133.350212374553,210.216213311897,249.211215370537,190.224928454046,193.961865406557,375.901554728498,16.1214529403489,408.989474732384,162.334971880036,150.676928852759,377.255915647848,349.926234954296,67.8824458329177,100.74094734938,269.91379194069,-327.567457140391,-109.196750704432,88.3908203994241,148.551523054474,-519.068890284756,149.085879485842
-681.970965012397,-444.39981888003,-747.570679124435,-562.608383529046,-12.2202152152488,-563.759196122089,-471.594226260983,-169.972202059343,-188.942488188548,-184.524522932593,211.281587577121,-24.2945840176301,2.31503389715703,11.5128786665332,731.261619651636,1032.68716564548,260.353106013076,1192.89296547035,969.406540415862,454.727710008738,710.349913259982,104.439377464863,485.286087268998,37.4518015193919,220.240933561166,129.795391360881,118.27318342975,193.303396608906,116.764246909169,116.768339614926,118.504469923994,115.708918100227,61.8652712165039,63.8953830803583,92.8343367464479,97.5831434533834,95.4289428399945,97.4241339308927,55.914763018023,59.572833665505,69.5531542648289,73.1164607020409,23.3235686694797,43.0646122451187,89.5493717621104,52.1553067761605,-362.403601723598,-78.7694444118399,49.4567992639403,-411.838444256303,113.770994346464,-143.96139425517,-25.2961110859582,85.5574614581896,130.763301718533,-250.401497289635,-81.7340725147909,2.2410205663171,-402.573455448711,-267.219803232383,-121.679597239489,-156.37752714147,-587.574392646722,-55.753639136977
-424.733903283782,-376.58968874406,-474.626132583392,-310.719954721222,-95.6899028427754,-350.35339228633,-210.818314196641,-97.9949649087855,40.0265724982329,21.9601140086376,210.54632313422,196.447166745139,254.964456721664,197.430180704091,569.20743910486,1014.84211053774,260.717933857112,861.291927186652,975.042698045803,449.020936259458,651.840802871578,142.33018167235,484.52645823709,47.2144581478601,235.626478261422,151.611731753642,92.0181877447955,167.683233714365,130.984659864707,88.7166637569725,101.175234587814,98.9044878676512,7.24124982664317,31.2925911948507,71.6607760651333,69.172210024936,50.3651061965617,25.3225929741554,25.9866851500515,27.2560085351036,34.540507722337,14.4357391447017,-11.3876140800215,-10.7022432042404,14.3752991832954,185.499766904096,-695.962030041448,33.6823354794464,35.5550694760495,-483.927278223098,118.862650457396,-100.256253327524,31.933858198181,25.2076025894471,222.378321274446,-222.813746220466,-46.1061780859464,15.547623938768,-290.224351277609,-209.228942084667,-85.0129392224614,-219.088598722326,-457.143315524975,-50.9300335912336
-29.268332696731,-170.291699817312,-73.6650543379375,6.83880481720738,83.4535123770607,-57.5526110628295,92.4745071183596,91.4739162417528,275.576902342057,206.377773501712,242.396441829066,396.536928384108,411.551592789446,257.753443132415,512.694420616735,874.884110781319,261.665783774059,628.1746281616,666.435473128694,403.316593304708,442.007348354217,195.940462737038,406.30206171284,1.35739022917169,260.312207979487,187.354130143811,62.5569589426315,156.615737430259,186.532137234371,77.8012851336671,124.489869343417,141.728466458462,69.5779416610508,18.9326286445973,79.3509789754641,95.7095776078508,101.891491291317,79.3091958445955,23.9260329803565,44.8642103823072,70.5903581219218,62.9496715477494,15.5061732436671,32.8470058558374,67.1166257687316,515.18601372386,-680.593769532568,411.341602394299,270.97058975108,-283.528729511404,396.729319826946,174.420067522083,266.479765349254,223.80122042768,489.212820120695,-6.57472337803923,187.552823626313,204.572624224501,-38.658327105605,35.7813267720445,153.380119266984,-101.266355779068,-173.638394076946,130.082888930576
270.550853111671,98.6485651942281,179.641921784994,262.243281268859,327.214752790571,61.2027153876257,218.310899671937,278.132360084047,326.236833995119,275.198243239694,194.714955153702,445.508355793518,391.352168980305,198.619230556237,506.367916617305,757.475278127053,259.659216086749,552.991892227075,443.256137929067,377.062290326763,369.555947417512,235.876226795781,312.851317179964,109.978321554989,291.820571197387,219.191918503829,29.6706622945648,150.573444337634,266.800840758301,71.9145233706568,160.635650432068,224.170074708746,193.55083540871,16.4171661602551,95.9860533617514,151.296222777365,196.794621509213,206.519470562395,36.3802128199698,88.2152641227463,136.844879365198,165.670829415277,71.088609263799,120.65779783647,182.809546154797,715.240779655287,-456.025063978502,665.50022142005,470.61418642759,-69.7584454883565,617.838587209825,406.7582642439,417.251982378045,450.484506921507,656.015687404273,185.374823442742,384.242077970708,368.569046677169,153.070768319408,252.556887256068,383.045237795847,37.3105552528968,64.1734097687034,308.145646030994
334.519543395364,252.71890511462,203.875391060569,330.461387332756,365.313104400982,-12.1882970384463,136.645893792842,281.529220157453,204.773503161374,217.658949966643,23.6513594649889,370.972616581897,292.890914198859,130.234879524957,460.718681488982,692.189570114893,219.668414976643,518.321312756361,528.211240013976,352.336824371964,500.340688374649,210.283524702128,222.424017624044,409.088695848934,296.002326417204,192.38442065288,-10.7336914928674,108.459727406831,293.803005300275,41.8419536833718,146.968477276308,247.556040235395,224.754064539477,-3.0007444815304,79.6708309523467,150.912472966152,207.32788089243,235.667714894497,25.9528098049638,80.3431026043167,133.866708755682,179.083235063587,67.4348153600308,125.184762121977,196.065670941996,663.533445149325,-279.038768933305,606.669667916619,459.779164322245,30.2520373847718,568.677333209235,461.918331710516,337.553320010968,476.069417591603,622.130692689051,281.938622879243,358.378687702791,416.940374176828,153.528332810659,262.226786577057,441.253339565709,109.827065568461,107.238838544212,347.580974181617
208.621558721106,204.618588917758,119.621883490985,215.434355793851,224.956713859331,-69.7195653679368,11.6959635406889,133.57964057332,93.095408340648,118.937586983702,-100.215082006509,335.004828798622,255.868846756304,146.248298343065,386.62242818413,636.171753186488,179.935325802877,411.439289815977,689.626432509769,278.275883499638,595.456254724622,138.772489114049,127.920858983849,661.406733484313,242.277230758368,89.8729374219568,-47.8960727631713,17.6101347581432,222.066340685754,-11.7086159017302,64.5483565231316,158.834194652408,111.85208913895,-38.8797531734359,16.5374524588736,61.4153091966691,91.3952293255673,107.644804983283,-22.4746748959404,-5.70801257128523,27.4390601809691,55.6437587231709,-30.7379830073822,3.24680420870524,52.0226416754709,468.713816808783,-287.380225709854,343.592663185461,264.94759556811,17.5196280620868,305.245096067091,338.339530246688,89.4207932360611,247.971425033361,413.98865202028,236.998020844294,110.985654711543,308.956512019014,-8.01863902267985,48.7883088971612,283.497792533931,62.8565586526297,-26.0936577048241,208.079717019141
50.0763922619734,91.1981495358739,58.7705668367123,84.0326500389404,131.830757368666,14.0824516560682,6.34486537288994,45.5634206248211,97.1421776489745,108.542664106961,-11.9252276292727,405.783986616017,329.084809135752,265.968471750381,350.863747807599,601.17003780037,201.103437750588,300.766174539222,678.230177541627,190.738536619987,541.316272209422,67.3016145474223,76.687032316156,711.808667469955,93.1546171002382,11.4014779197985,-86.8409862439952,-91.816090024993,109.329466119225,-76.4718211800528,-39.5625327800476,28.4153133919541,-24.9850803999221,-82.6630558217722,-68.4954658692747,-53.7873345606226,-53.5406568071298,-44.07865818943,-88.664987054197,-113.364444583762,-106.630496204981,-90.320863538423,-156.997788178877,-150.517839951352,-120.195389150439,283.948939127615,-382.458560620201,82.7326275176136,27.1335090164005,-63.1053259470735,8.22833351895407,97.7876776468362,-181.783688476591,-81.029749189118,109.665670635608,27.7054266119417,-191.446167731624,74.1184337135826,-196.716639329289,-225.908299218022,28.7588342409223,-85.05966637147,-185.949528719393,-15.1250021984755
-32.4529038857758,76.882703432185,22.2642901463673,66.5440880933602,191.713665411743,122.185301410811,86.5337495705729,116.021562657484,132.803090506054,211.28260832505,229.998176602393,430.533626683069,438.002211106254,415.009717738258,327.795580149363,599.065044369421,227.250470098189,280.627500699393,559.093084840656,133.763740915803,461.838683097293,-24.3853570915483,86.2434762761176,681.659211427505,-154.855075679369,68.7079695694536,-142.594570523953,-181.352663858165,44.1826510193047,-141.161299960124,-104.022297787923,-38.7949353262719,-54.0344827458242,-124.507780976923,-130.913271942834,-114.025336723685,-110.872033933838,-79.9579402079838,-137.46155395792,-169.388516307101,-168.245409511658,-134.388769530781,-216.205245377712,-216.619038418623,-175.344496948317,230.66562280092,-344.412187543342,-2.71225589859778,-77.4415331983463,-82.7835426305654,-190.098507291334,-95.5393478557171,-343.392840265252,-292.78654829745,-112.185237718521,-174.100681222753,-329.488385817255,-93.9410864862641,-270.452962992585,-339.114822525242,-95.328582549051,-155.602026652127,-225.886038294073,-125.751363847563
-39.0278172075068,173.655548755596,-46.8059595683459,145.750786089731,345.709141263264,97.2774391585453,127.440998121792,275.836963535132,97.9213077760052,340.388811109019,468.119728215506,243.670845563549,489.742968615985,499.397525105796,215.928021499059,548.968716164714,166.71104669522,254.12595804053,436.640188651383,53.9604820051314,382.046461467,-133.177809635299,56.3044664763395,673.977444266714,-372.044208832198,170.393799244022,-186.361731997598,-226.812402893844,35.4236467666815,-174.615909058017,-109.939549233662,-20.6280233274621,26.3204000798898,-138.57031600495,-139.93167013877,-100.867757522821,-64.5039937546646,-5.45141935132218,-143.636584811325,-151.885677940342,-133.432494119226,-73.0597413525299,-181.800965834089,-170.099580009596,-108.362676192787,328.526420516873,-116.26835853595,126.197657793538,6.05522055384343,35.2068293328297,-307.277841256682,-112.661319619538,-372.445587411959,-341.09656517387,-134.769184309384,-165.755517468511,-262.552151467832,-69.6645337397857,-216.767177980206,-264.056696335901,-49.5288659352762,-39.0957848243116,-153.6619903462,-74.9885754127801
-7.83983242522694,285.121454668993,-138.951370930288,238.717711389577,464.516798456273,-53.1653223013184,112.25828093291,406.67366460246,1.43552281388587,409.953715318646,575.47889630984,-107.186073840689,460.566689205284,476.837174629182,-1.34088193022034,396.129501882544,50.9538539449492,111.64297936405,291.517839994345,-63.6727118380636,239.024999694512,-174.506144249432,-48.3036408632056,606.43975177816,-430.337420995611,146.203331972005,-182.480600562655,-231.117979718526,31.7414839352073,-161.908744744995,-87.2833733960619,26.197012523536,131.534081563335,-118.751424302294,-109.970180790379,-54.7272502360253,16.758885386537,91.4444007445602,-114.964988508809,-99.3500116956599,-61.3543204497252,17.0897642093987,-110.091060737749,-81.8334580124426,-10.0365190397524,455.836762827499,111.694525561517,338.575756316906,133.865859161461,137.11469878897,-379.205726679741,-24.3345957857824,-363.468887711741,-308.667623073812,-46.9092458457235,-21.4632977639704,-156.409058654807,-7.00576726917292,-144.764063146693,-181.088736265811,-58.4205908760658,103.216238447262,-81.1324104807968,-35.3429039269858
50.5200306520133,318.274102374296,-200.272136488474,280.13838323205,435.09316966764,-209.01825364839,83.9460487756451,410.345797173333,-97.1127460205461,374.307288199552,480.963184306847,-398.631685232618,365.091642097737,352.876941806635,-220.294729440528,218.852071702175,-38.4732378395835,-45.7021741057974,174.626870514951,-126.9432533747,139.782568756214,-129.970973555839,-62.1081346712116,446.003897159793,-411.013258841206,68.5256719745001,-162.698559926887,-215.387398692809,5.63925450000628,-142.299242180084,-72.9902537769663,40.6115395352038,187.847379422211,-101.280173029858,-87.1071691534578,-28.8955959244686,60.4408565520406,140.185750914295,-90.6147676010824,-68.8610326732123,-23.3030981345213,64.4704016317411,-73.8555392383373,-37.2476312493041,42.9105321985851,466.591482349153,160.40945045105,474.309339272187,166.528440130973,37.2232392742737,-311.825605307818,25.2416207178807,-345.65737957744,-198.760238023374,39.5936646264256,28.8591055105491,-94.9841093026306,-75.006049723035,-99.9703425742025,-164.14239501199,-244.288616315104,83.3422960473669,-29.9513802918581,-112.76275274812
145.290467477564,280.258377979525,-196.930284258671,269.142948312645,299.552895107707,-273.067182236795,61.7128024485375,304.853431248631,-140.349632123541,259.589284669198,269.777354236751,-449.205356258651,234.341024802376,197.822666753494,-351.071108543863,98.2274625491325,-97.7379358630789,-95.7683799901603,160.993511622883,-94.7131476622933,196.442845287067,-84.5957402213145,140.054124667899,309.452502294453,-422.758235171151,135.716980208283,-172.071118176019,-172.363836870126,-19.8552924689622,-144.139765033964,-64.1507431356853,18.8931424056636,177.792970692938,-110.063815203824,-89.5122345865152,-36.535377443071,48.5058438454942,118.325922272563,-94.0335469593257,-78.0139383238456,-34.8295238464144,48.0932084162014,-87.4936626881382,-54.5224356399788,31.3038016461739,329.680328891746,71.2687290600894,496.896125674972,152.261299544271,-181.275931837957,-59.183216474585,7.73041078895375,-217.937760031873,12.6625111366285,140.660236956921,-52.8234547956667,15.8352726506199,-160.494997577305,-28.0072488164428,-93.0213859371637,-420.776007421608,-56.9985898201717,59.8343807263849,-199.753656366769
268.884881625098,271.014789250027,-119.021572104017,265.999129625897,226.410887844738,-233.407729494205,73.9247620705571,224.53295169595,-106.675282704782,165.976305095736,142.655120764838,-318.36038986537,126.281802100269,125.021358783715,-400.971892255736,19.2395310134586,-147.471720164779,-85.3624670062251,169.092425711466,-9.26924000719078,301.565112631884,-75.5580124091987,442.665085098707,272.60935502429,-366.220729448508,333.618642231482,-188.86022464104,-62.26075786046,15.4160794475864,-130.277410824754,-19.4233728093132,23.7536260254213,147.749762987897,-115.198891321453,-78.8034209944788,-28.9733656957483,29.5882513151318,65.1002582940716,-95.5786154172254,-83.1192400649426,-47.2744268758591,16.5070119695955,-96.5620689125566,-72.3102680568053,-2.56496240818959,157.477863257988,5.99899629685993,486.978149708594,213.960826807874,-265.833944094149,240.089460635648,8.71988568307931,45.7713745394111,264.92471638519,302.212590271554,-89.8896191587099,221.8000587367,-45.9591664059636,91.2255475254661,97.9557458194755,-359.104819648159,-143.678195392833,187.054055147306,-163.450400218575
387.483748960043,328.185458672972,14.9450727806953,299.352631994089,260.4011650035,-149.691700591425,130.166288417735,226.144440976287,-47.4928152918185,140.489501434626,154.277272732414,-228.069889369523,79.9957438192014,146.778179634621,-422.548465493729,-50.6844532993874,-164.747797586577,-102.455818416024,95.8786746636821,95.1786507230583,316.824424801266,-66.747297332697,636.321065336639,283.03350980256,-154.059938815858,473.871776527558,-171.257099552414,96.459112065681,122.138441910638,-71.971561701182,64.6374551916702,82.6344344068969,127.815484202677,-86.9190388116548,-28.591337413389,22.8977968493264,38.3888415025654,23.9694331853114,-62.6999159945898,-47.8509863771728,-24.9116403753266,12.4213277569416,-64.0204110053647,-49.2042037781879,-16.2463820218127,55.4988176019416,20.0396896137598,487.601076048111,332.594077557713,-166.830037193172,416.460335880945,63.5517629391203,273.067837956492,448.027717789768,463.067913885337,-11.7249725862882,394.809730578761,209.500037258637,198.023299444846,287.098347025557,-112.272853229357,-96.5670750554059,287.86264536848,-30.0921254660368
453.856203246901,349.906209097641,148.04383840355,307.824209743009,263.607353249776,-83.7818155675138,172.572884601374,214.53863281469,-31.9486834153879,115.095442968836,155.63198447224,-270.464445065441,60.7107628960835,135.633070135319,-458.418282743642,-141.245612505544,-140.090347407333,-189.659830732226,-49.8071818002027,162.206042318828,221.800632274379,-25.7244799116994,600.889164347819,239.139331339216,82.7304819943928,436.805815582885,-104.182904448635,200.837206933636,181.332438086487,-3.08272993522237,115.369738673321,108.226125630304,61.7040049585946,-41.7332199124223,20.2653668153687,57.8560696009828,23.3478374602828,-38.5714570486244,-19.4418231467209,-11.0738201573701,-9.24400305254018,-10.2238004532323,-34.9267984855537,-35.4264818739283,-40.7804338225902,-42.3992859798926,11.7717839937651,437.569936867884,364.351833512038,-109.357989791032,404.718548652611,68.9483699447275,290.411225623183,465.353863952024,488.861418601698,27.5911522448391,388.28954785515,324.716506257843,214.208825169428,314.204619369756,59.2819481520869,-15.7521445860447,304.024654423816,50.9944343627633
442.042583955835,266.389457207845,232.29183046886,248.490647164304,163.868319872754,-39.9427025583544,161.914533222792,134.781934417399,-56.5220617415672,49.2514514407086,53.4360540065038,-333.585365486988,10.0434124546241,17.5896808395287,-536.756782497388,-301.097171731323,-117.362670435133,-392.605299468002,-255.944506511955,113.388874127213,3.34917302084603,69.5620156390599,364.293461591036,55.4547488714484,219.321789521563,259.002834164983,14.8785587080546,196.440158325548,89.9107810692424,44.1782767023779,83.7893664131944,25.8852339514798,-87.9104841320844,0.761654407731723,29.3920234711713,20.9440857605185,-61.8118094625401,-162.641822276464,-2.67151451233581,-20.0224369708137,-48.5952691209202,-97.7165572484743,-56.7336065829626,-79.1335178016529,-117.805808513161,-214.601033770975,-91.3054128378299,299.995966954267,272.524581177836,-222.964502573294,267.445952856376,-18.9792620286108,148.092137762732,338.700685112504,374.496570672848,-37.9430445486754,237.710144495325,237.609392184984,120.214159447556,186.505496240439,54.1142953334011,-17.4268806396986,222.394431417242,14.1231547449641
390.686942270824,176.926929338866,277.026264355407,195.429685708559,65.0869704839325,15.261411274858,149.708729259944,69.7504014611296,-62.532548750396,6.47094241418791,-70.1608970636687,-315.646180608828,-66.3312331152857,-130.139897438067,-670.007134900476,-529.515665759809,-145.363860639063,-725.171716342478,-559.963566844619,-51.711930117986,-381.547722482022,187.338553394845,62.7779730122665,-295.667454954769,286.366754703697,61.5837329941888,146.453271903009,141.299585274603,-70.4679348718685,76.8090492612384,19.1551554121451,-92.6877273700949,-232.697742233899,42.1465135559181,22.329592996723,-39.7871382368897,-156.223882924661,-281.47120537776,-1.70477122486919,-44.7805357938173,-106.400403961174,-187.500071310499,-91.4695668542562,-130.238544137884,-196.844064451636,-368.228085929586,-222.373142512446,100.813083467816,166.82991819896,-331.570593112114,151.117054361639,-56.803582152038,35.5041374494531,235.066921310479,278.04330250094,-32.3975878845872,124.638881026927,166.152972861827,-2.30063121289549,73.132174797175,17.386631542331,-44.2755682204437,108.994866507641,-36.4786695748069
357.981003808944,178.731271252922,310.560964360537,216.294864392179,40.6686302240783,90.1936848674524,182.394527728585,74.4718550316988,-22.1810093800756,25.5107183934945,-134.122016813861,-247.166525027416,-116.468232478887,-223.634518182167,-825.476313299181,-745.794705024454,-230.778194489798,-1075.41904870512,-919.060352656217,-254.397209119455,-854.544770006028,206.43526703724,-192.363018149605,-700.161553154155,295.236822635146,-80.6331218630836,206.836316937527,90.4173649968155,-164.786563896252,96.7451640470178,-15.4297632407312,-134.228717817894,-262.187233099554,74.7006277188827,29.1507462356609,-52.8920135017729,-170.049738447029,-289.368169809101,13.4968018238079,-30.1073670839738,-108.562051312694,-188.021556222875,-75.3955837881854,-113.253206836199,-189.504963430285,-437.142953742093,-306.446207048467,-155.713612703786,90.9045126720855,-237.655910883156,129.880064071405,30.6932143724549,45.6052618294162,270.548441313698,275.783783168342,148.849885810831,160.302245222558,210.670431862191,-39.6221982615349,89.9600716158801,57.7493260371218,12.0385060861681,61.2560782168624,-21.0588213301169
320.925686307216,197.021361828789,323.041054163565,242.856844598903,19.6823037922599,157.958496042809,223.377881176338,86.6827029502944,42.8103629559182,57.6022541151783,-165.116618019203,-180.650860530797,-116.953044346011,-259.755353651506,-883.123297184415,-837.105396656425,-311.858460959,-1191.84307422802,-1087.22416072222,-382.252624572786,-1076.34536529819,74.8698981953388,-326.577209055326,-848.779617940585,189.850930373993,-158.260011545241,161.824899293535,39.6660976643155,-173.625197612416,86.6575638509299,-20.9498615436274,-92.7429214551826,-186.517825852587,83.0673965922752,41.3711159413671,-21.0374974040504,-103.021028849177,-191.633722054985,41.7435130168103,18.3601155704762,-47.9582676684651,-106.694680102583,-13.6710322559011,-38.5097203410895,-99.2026556634607,-466.95063738191,-311.485167677618,-422.799796998102,9.89564710004866,13.5573631919738,112.741030062792,119.952325069864,120.809604149531,363.216242232403,279.930276292119,354.607248255856,283.420721503585,247.739260686173,13.8266215341299,171.697864485082,114.334178657685,106.463751582455,73.6773983082629,-15.5310733775747
209.491627834851,128.425603633497,283.369728013177,184.844131597607,-41.1166683119646,197.649009225519,226.207270372096,54.8075519183622,101.712185079653,54.8966027234213,-194.612296845852,-107.789981035373,-94.6239499517601,-253.831967299836,-708.260591526208,-730.228864589247,-281.878551821593,-881.992551492484,-808.778442339616,-326.742551889684,-716.595302236952,-56.754368884132,-244.94331407803,-510.414225188747,22.948599143279,-133.043014268799,82.830566957339,9.2792154942724,-118.131126817455,59.0456708095229,-8.9294780859037,-24.3435874539425,-94.6388401540441,76.1004844818377,52.7170472538522,20.478037167356,-18.2833633571536,-90.5124984599083,61.8549256586475,58.0927162335437,19.5331799918371,-23.861190190612,40.4120906812362,28.3301775204878,-10.6125887249479,-377.793337135147,-125.633583193654,-506.933004490883,45.2334865035115,270.897936213462,35.6418696767555,173.595208133255,185.006163931632,371.254643332801,253.188272207435,456.284575994279,360.891748141872,225.543151292377,40.7487780821355,180.576894727978,114.13666860631,151.770576918146,17.3996166016983,-83.6141863246856
27.8050703755717,1.48915619976215,186.985969245756,68.374592423108,-71.0477016861668,203.116519787394,192.187522282593,1.92018603525112,127.041894359858,9.41476748802713,-198.761572707753,-29.2824087952741,-100.716348720535,-214.870413504056,-339.594305532322,-479.343906560011,-121.059444209894,-288.206275669549,-222.712798657006,-118.411774823871,20.2217234032761,-31.4966014672174,2.85239458881773,68.0775575296597,-48.0522166367847,13.0166462757971,63.4829548076706,43.7884025809737,3.28315436304235,59.6225984473495,36.0647430138269,51.1958440273791,-31.8280457833966,77.7118168713074,76.7271068446057,66.2378176159246,49.0892588959774,-39.1960876083116,67.0576348722636,77.1738735586255,60.1119702877724,20.7198569019581,60.5189184736535,63.7624294066216,38.2879146229952,-45.3613127170464,318.128028510256,-250.753699870873,372.498675357593,487.473916233775,48.3231996904614,316.335537942417,234.257428489589,291.765779866756,260.208542564482,547.655739604294,333.470401684138,214.460177599242,-46.5137558431546,74.0774164287486,75.8930375909163,182.514180882879,-188.773365637806,-163.027402151278
-149.202574766843,-113.885869713212,62.9705699035301,-31.0901168116815,-45.7374630063932,161.203256887511,132.992155541691,-55.6961946036054,98.9668523170515,-69.3152090057884,-174.088251278431,11.3621783035218,-159.670997254966,-170.196245674604,-2.21160321077185,-233.132406090126,38.9773134855749,206.75469123082,199.895623883303,49.7294468326361,509.393900298711,89.5109242792382,146.966164912534,376.771787586808,10.418997813086,150.212774402725,101.210666034097,107.17373185525,127.648133509118,88.25318786893,93.7081644567246,121.990975778858,14.4270727553182,83.4124323387716,100.463710251058,108.325856499942,98.7462551882385,1.82814709163422,60.7435006868049,83.4101983820467,81.4758251739932,52.1990863723347,56.8580361725249,87.3474300454205,82.3069166401926,376.511397243407,766.265244931772,169.282903147371,773.763866924871,669.591650904221,271.105593364436,495.298880123453,293.780824830936,242.911766789705,255.635036899838,699.445490744617,269.175806335354,172.200696135535,-201.845408984843,-53.9718713151295,44.1684116195042,221.778339714336,-451.398894099513,-228.122902422105
-249.081007057142,-189.941016244001,-34.727398913447,-76.0248695143032,-24.901359852079,81.2453592924067,71.9698499060414,-102.72835512148,47.2998800158245,-126.789121242144,-144.095145569974,9.82833915335112,-213.708617526142,-134.789762004896,132.157728619283,-80.8514143143655,80.6954252499461,388.117014230051,211.137287098243,61.6080876842943,442.456866372487,175.324689383703,22.6393639330657,252.82410276829,66.1334473663026,118.32930732998,124.102753532237,107.765700576982,145.316552118437,91.1379548120969,102.043904345098,142.816279563113,57.6407902132847,68.5386190989274,91.4637554075804,113.499378254225,123.885156973063,68.8714276639413,44.2594123912048,70.5279161067875,88.0708635503456,89.8589771392086,43.696981597294,102.339862154067,132.60812361571,577.778317531895,863.700534212242,352.997097437303,761.678597034264,744.650316191458,502.348085684388,489.987399358546,367.570333163231,286.159832079608,105.861954164762,782.128290530759,279.034683898532,34.9902607554584,-308.897300861255,-86.4435143431418,58.9328973317355,184.796619282344,-602.966382745403,-338.607553992202
-227.548114195656,-182.525739047481,-46.4125111482979,-44.992509405522,7.29323287561125,26.3498850158368,68.287130826746,-63.4491928617146,46.7700343225838,-70.2561873576355,-77.5074000244286,18.7270212680548,-164.388246551319,-80.1868965907673,91.7375258142418,-33.1946827679448,37.9454801257506,336.501048381946,-12.8469569341266,1.31775939041535,81.7571627159766,234.396752872334,-210.275768849087,-50.4007531510454,48.0167071793024,-57.1153031648823,111.700124641232,35.5715533344884,42.6878040569931,55.6520018630104,46.2529462839493,90.4139173983733,87.0857887727984,37.9621138119037,53.9650828280788,72.3668908512891,111.932785945986,131.029172936475,22.9891667286401,39.2914649155739,70.0251661302568,108.894269633963,25.3480758703935,90.0734194176688,147.159669669137,466.948468822294,627.68621796077,141.918301050061,300.425689285873,637.878944466685,483.25656895836,348.821245499196,448.15163083354,359.012881514187,-110.347500039008,712.369352866653,375.939496876315,-27.763746737061,-294.12328379025,-12.828378552302,193.675691804511,70.1888724494934,-577.79080846225,-437.970949989245
-120.186628734401,-75.7782352196889,9.86480846841865,34.4633708299364,96.7289134853843,26.901496632467,116.357371643601,67.4874063274181,96.2807444933443,80.3599075625224,33.7001502977068,35.3746173783981,-33.5925363803685,-25.5144863339372,-23.9341401214561,-118.575129000906,-14.1671860698881,193.05409585225,-233.052630900466,-26.5072373668414,-203.819321416504,310.978565690109,-317.004229909617,-273.030621124642,29.7846027008853,-220.456971922305,100.327581872992,-37.5978592429008,-91.9994396663837,20.4536832194861,-28.5219983849448,-1.55772628671666,78.3249132184513,15.2676179160556,12.9909424536332,10.9952586749795,62.3077530015075,132.92472035832,-1.17702143767102,2.43118705858275,21.3976664904408,74.9745012190385,-7.30023847309984,40.2110581696299,95.091829743447,204.889991061193,359.66200790271,-173.417068260274,-103.084645497427,413.783172240161,304.771232088564,342.394931228166,511.936354592186,410.841322759767,-121.334625849883,607.293684729131,462.682956705291,147.269457629815,-181.747822641684,94.8234502594882,436.603284484181,22.0116810226456,-453.614454146678,-373.039517563064
-52.6265480823072,27.0098860236082,19.7082722091113,52.6819600041803,142.442738753627,14.9240546453812,92.5224722328303,124.208996308105,79.9983418038358,141.546989025624,60.5866752671582,-15.5248917046373,18.9911130940732,-91.6211507675077,-186.557662227076,-334.904417097846,-64.9823750769729,8.53984381245932,-405.11130035229,-19.5034476140943,-313.700609420272,365.671574802346,-263.23143061691,-350.813890527967,67.1621330979496,-283.826799453717,107.711469042798,-67.3308201919472,-178.992877976686,3.62092522353267,-81.1045046794463,-79.2807761137327,27.8304178072638,4.7584278308819,-22.3449633230243,-44.145634671875,-6.62250873172556,67.5691940440742,-28.0612780513798,-35.5474383319241,-43.2876253592637,-3.38479705796215,-57.396735325371,-32.5778166615299,-1.61007696129042,-28.412178781069,207.617668778277,-208.238911583248,-114.874523169217,230.885038154577,223.279089314007,506.69404273304,501.942323632772,430.017977720644,138.595836531666,573.368921242789,411.156262713125,387.552774058729,-72.2897032979846,142.29815718242,535.466661854907,104.253898268018,-356.045443491714,-146.804488215453
-86.511796738187,27.9374631111276,-60.4683433201842,-34.5900315648534,29.1038434052285,-44.7594318783459,-41.6975659607968,14.1826771493896,-36.0747351515787,26.9735382488275,-80.7249716871753,-124.344923259077,-57.1960323674658,-312.095207376771,-390.026560089252,-543.953111552033,-105.109282918134,-212.941953491702,-563.856449664169,1.82785362347262,-352.89114362182,380.98190662274,-157.178131681503,-339.118307980588,136.372659418758,-257.172696056464,135.924564650907,-50.4285283797962,-181.521503106128,8.11838734329806,-86.3896494411906,-100.341857085696,-26.8398748024678,11.3040105287398,-34.0230803079348,-65.621265710021,-56.8457444059223,-9.55966842780791,-35.7005531874144,-57.5610783321524,-82.2163943884705,-66.1564117793289,-91.1165753896956,-85.3712525656431,-80.8815573420358,-185.41949521161,123.764087568862,16.072071358761,87.795954134663,199.385598796279,214.314694859321,665.665043115602,351.654036882034,265.05241033304,395.168708306491,579.207332340994,73.5726975082706,426.772928975576,-65.4700368628947,-29.6471690349386,222.86496407209,222.241972544428,-346.814791298663,95.4977182751304
-148.741773221158,-42.8399562989444,-132.697588633053,-128.053152364872,-157.250580358214,-71.1918070648213,-137.452551851207,-114.286062988305,-111.316143914135,-113.934281586649,-259.359487544491,-174.091975411723,-124.67777852403,-530.55472050756,-587.294248938023,-596.612411504866,-115.299448901088,-484.606864933736,-715.528094550139,17.2712910394822,-466.921961435199,388.838671455542,-98.96345549031,-337.847374147547,202.936595911495,-193.810465649497,180.309045683977,-1.38271002828943,-117.046784109322,39.9767949151373,-44.4439217059971,-69.3082413243957,-51.6604657051868,42.4716220348263,-6.8806792362806,-43.5191397314542,-65.8974404224842,-47.7548249601368,-7.59336668956092,-40.4701307340116,-69.9820083390641,-72.6405822274676,-74.289128247646,-85.1730555777455,-101.416822914368,-330.803951151263,78.4308130549872,133.097100910844,201.975777294575,264.178178581155,37.1269200378809,727.332372619511,44.3621251192648,-273.784446213701,367.407657529666,556.438585759857,-585.718544245883,254.435780284609,-189.066862788991,-530.617813771196,-379.402017258032,274.846385227545,-399.227460941785,263.039026061745
-201.14878063254,-144.541040337241,-147.117956406445,-172.243004992674,-284.644817302602,-32.7496232129413,-121.743793227347,-148.266698410675,-74.1496143909579,-179.230612157909,-354.080290521056,-144.476931661269,-132.880738790911,-643.220155416561,-759.936727943597,-558.796731759001,-145.743265468446,-838.466973536971,-885.743981452467,-42.7407921657583,-750.170376183293,343.521727744702,-150.136304491496,-431.940194439555,215.709241148381,-178.634419848592,187.548195046664,19.3492321249412,-76.6901495190931,59.8476265706981,-16.4899978380629,-54.4841763743934,-64.0522647147993,63.2873678529078,14.8508465094293,-28.0020622388189,-66.929197446597,-61.3588323998684,18.656337066778,-13.3231333243969,-48.2563527889243,-64.2187356388154,-40.1735812177913,-66.5061144746577,-97.899417231422,-518.28555877847,39.8829301526544,-44.9234877806209,115.57560703115,211.695335251295,-356.017975190475,649.929946945634,-324.552965723662,-1010.42860080036,80.5657838949887,440.645762562669,-1242.99580134614,28.2274181248439,-375.971809432866,-1127.52875577762,-843.427312096819,195.18977504983,-455.421400090468,307.237342400011
-282.466146143067,-275.700166612187,-164.98075333381,-223.854480889782,-388.534849368899,-15.1562262655948,-120.801465726715,-196.878365886381,-47.5605954298618,-259.160283385037,-436.762048913331,-147.602956745845,-201.243378919353,-714.814151136087,-937.213861402921,-627.745374418309,-254.600077651138,-1243.99253021636,-1080.19858163816,-207.382538412238,-1120.22557958964,182.370671053596,-298.157921686611,-584.134247365047,131.821341753482,-248.178540092092,109.977465177638,-41.3352317985229,-124.446224786467,14.3166932449219,-61.5648724610751,-103.116772312688,-96.8960299019397,29.9492152191131,-23.0195511889525,-68.3540854095035,-103.998858010339,-88.7721414042179,-3.99374107564138,-30.9443843618224,-73.7022395723845,-98.0044496718304,-50.1423950658674,-89.7854753722681,-128.634502200941,-695.748266400983,-79.3641336806297,-347.648959583053,-124.927405492117,-57.7951786181478,-750.914051838164,415.513353307318,-577.012270675317,-1444.10919127526,-209.746358265748,211.762513302566,-1433.28047115312,-137.042953404827,-496.297615736332,-1352.34522048358,-922.292686997237,-44.7244157241194,-453.536603929462,191.701837899288
-302.574156006228,-332.512040878857,-145.408714385203,-246.098105051579,-511.413270927488,-5.62544867144177,-168.344558671607,-324.308939886859,-87.8081884108889,-363.309380132984,-545.59468134072,-196.504144301857,-332.332329893491,-740.061058065244,-1080.34315343238,-821.111973115981,-363.133062005771,-1539.85361456388,-1182.32734886364,-355.043769609803,-1290.75353313909,7.86075880327031,-411.944160066576,-619.821954544352,24.7578299453196,-303.189914061229,16.3856052000936,-119.42363905893,-184.526858361599,-53.0538331384805,-127.315282206482,-157.822847946179,-133.708522683766,-23.0229353383339,-79.6328575546948,-118.677221759044,-148.578516082147,-121.764081964313,-46.9149961253515,-72.3246100960131,-118.9462837618,-143.364060480466,-84.5119771893891,-130.797427765325,-174.658410406158,-714.14592020086,-236.824276659946,-494.507007079692,-342.540379654666,-296.742760916078,-920.835704759877,201.755944358044,-599.289534635924,-1304.35285729394,-298.51617255948,35.2453781729303,-1102.48250156419,-169.411414299081,-431.134766329025,-1013.41506629101,-684.693835672654,-283.559199659988,-290.47641233337,36.9779553909684
-72.8112738777605,-161.741684277512,77.2457763426011,-98.1574989655301,-515.628353151353,164.940076385756,-89.2143169308755,-366.102465034277,-45.0654481658456,-326.670157156446,-527.039570488266,-146.589777203767,-343.06209405196,-577.924666296202,-1074.31025051201,-948.089038595935,-328.433829412372,-1552.80264797028,-1052.97311856347,-339.071250031362,-1067.00263847535,-10.1901926231176,-355.51106911909,-411.850411704064,35.9927313678574,-212.598474613535,30.7470019319439,-88.5023293221217,-128.375782794662,-31.6326702885007,-96.0568845060995,-118.650059492007,-113.304956649291,-5.84426985564077,-54.0125570055984,-83.155183888417,-116.448157968706,-108.568254122866,-25.5473067441629,-42.4271424248789,-87.004753874119,-110.673647649133,-46.1645896399973,-90.5668933395206,-148.431320419875,-459.668619291849,-202.199632529008,-306.601271948072,-300.454141335495,-170.716590070052,-779.22273011716,255.360649841424,-449.369308930252,-784.367792924548,-166.633833256689,143.627844225648,-580.466009831176,-6.42041720334666,-154.636016804195,-332.785416880448,-246.605974098288,-238.132929159326,127.168298564866,73.9060521911071
366.743067038595,202.232349975546,487.682088043735,209.436737531143,-260.825888659891,533.353807188506,180.432659724118,-166.21041807716,171.115730323217,-94.1522696648868,-277.150102413376,59.6382568218405,-167.157583731773,-222.613181136095,-893.033958732956,-878.46214812575,-172.9105993739,-1271.04951714437,-719.79133890865,-188.815539283988,-602.142260860815,110.196659647787,-151.961210120771,-40.577126360965,178.663967419862,16.2995517479621,161.739836055819,74.4910138843914,61.0178242213894,105.742657402527,64.800837232877,39.542188676824,9.74373460490954,111.711687690624,84.3954376171773,66.591043051999,30.6812154185974,-2.84048036871035,95.047575143479,105.150785652548,67.7576558351478,36.954900499392,112.625904180553,74.2075702820896,-0.563374511550671,-63.8040959140054,146.816906923817,157.215199894161,29.1765682680165,301.479670744329,-396.605756926834,536.190959865329,-284.554544346419,-220.931703933577,57.7451929326385,478.761934259441,-100.974035555771,308.061899171321,242.401623475198,366.542528280998,294.73498573076,125.991302609814,718.678989564671,347.568868744139
715.926091782131,548.794412426893,806.389154063955,488.90691886195,157.964788914913,872.743066676577,441.506137377228,193.922988270657,411.92705327687,170.037893657787,67.4625788650274,269.566298709677,35.6336658863422,115.828452882929,-666.927567844269,-661.584473775972,-81.2193631393028,-848.824915581625,-341.645970127957,-74.2543070488961,-178.177033730014,186.313380426039,42.4552336255806,302.25744296837,307.934077009678,244.969687664048,291.75072035845,258.555145614064,273.919541956128,264.632971594854,258.951889495614,237.591027977479,202.506160514695,256.235689870404,255.022422868159,254.367722142974,228.282063876021,174.692342984105,250.029504509549,293.146900822758,269.431513113076,235.230510553848,314.758145424208,285.525775020585,207.293229605234,139.204357666363,612.90396411706,579.947193342065,354.822942512191,760.490536637133,34.1701551521233,727.206139216644,-175.790292003887,182.88932780822,184.694404864609,680.116864495069,261.40978257616,564.07560181999,631.62437692184,841.102647721914,725.859072945329,505.536229742077,1213.96954718703,648.092686664829
773.289229741565,714.574881912727,839.477164931348,598.328155010792,474.143523746742,977.260983361179,511.85230526702,481.196734910362,502.492366231468,305.688153484158,294.60038030807,327.806943132294,129.845485411474,274.476180646122,-520.862398804964,-406.593141708455,-137.17986042106,-480.717671165388,-43.1160491125439,-95.2226053646137,86.8204849042419,115.417064327508,98.255650050915,480.828539124333,299.795798410822,328.383366731626,319.214199289981,329.168686813919,365.833715151688,330.413501784485,347.442869096043,338.233568928684,327.568940034065,324.011309912361,335.505610674765,349.156343034567,335.123388934705,293.940846789966,331.389586952993,382.340942673878,371.834196774261,344.784566570872,415.888663665215,396.319361029819,322.421005214802,-1.81162042066629,827.716123706078,607.523760788527,329.864969715386,853.352565479057,266.391988068434,542.333072933031,-94.5023769893023,317.065681432497,70.3292323817686,392.455010622783,369.713716577933,496.218561403257,924.956941402096,943.018593816223,817.471061323658,592.22007335015,1389.42393461916,753.764407921651
609.189351574074,668.144845075888,687.031439926519,522.993264814382,495.724848436498,892.557905349701,426.374350902211,523.1152903378,454.736695622638,299.235215631419,328.509632356571,268.952698764038,152.794858494526,285.769976906796,-402.693733676321,-185.734401036112,-229.619649378867,-266.637835121505,113.652712125048,-181.070773050521,171.936653870546,-42.9890488918007,9.16000307540517,433.650018566061,160.724349437519,208.942526239249,237.882075370624,232.649791484543,250.030636816144,260.863900982411,257.256610840465,237.197406877346,235.990878788922,272.099860935557,259.234672022046,260.602775311708,235.847957256775,205.088571293221,280.416802015764,295.470199402221,277.538208107875,242.479556774301,326.076807745192,299.994290232528,216.406409142624,-298.841750544735,540.705184240494,102.794934583976,-146.558316270649,434.693676004185,128.561246581991,-129.596758153949,-67.8009264942508,146.215031230484,-313.900527051571,-533.777353654543,161.46366524427,-23.1558703734243,1061.20966749552,712.756768575521,570.082094419883,337.316207485111,1261.95536334364,615.08871207721
375.578000865332,442.059444478175,512.182323970235,312.762910398431,244.513676637199,757.35107758939,302.610240152055,331.598439082462,362.037853401847,208.864378200222,231.431983926623,195.984364057575,163.087223603735,231.123796558372,-182.450999806571,-59.6793715121436,-263.591770117134,-178.125722163613,81.0079398341885,-224.749326487195,53.4612154813727,-201.640714852368,-138.715292376015,161.588690928069,-39.1145528941639,-37.1717444278153,97.6492017517953,31.6442529534161,-21.2034856316875,102.247179289043,42.2340237485241,-23.7003954775516,-47.9207992896525,142.477311339312,75.3735151130914,33.5710720023156,-25.8285466381844,-70.92098352937,134.372652194294,89.1340431576021,37.6415626663219,-32.3319929374171,99.7907847033752,45.2367824452082,-63.2061236176106,-528.459590050035,-114.604975817395,-733.309234370162,-846.11553667598,-326.046970920192,-290.796808227069,-1197.05703192517,-109.987483451629,-178.855162322972,-891.512634382298,-1836.66062672365,-125.517903425151,-829.229792184105,1000.67751110377,379.80910729843,183.096524113767,-71.695230082312,993.577218504769,311.15284609609
169.457282457508,130.958683191318,347.91716295526,77.2044421197034,-95.1183739709271,596.481078336513,190.549673295776,81.0026544018962,229.503502457959,92.23062082619,104.044522141263,83.6715225352858,107.143535985979,126.154105662856,115.512378550354,-82.0120799942814,-275.557432540525,-153.656712349935,-130.231476794942,-236.488837798597,-201.525296810276,-334.248283477389,-261.692913679116,-225.053373177901,-239.661186948144,-247.965761119804,-48.8060424162344,-147.023314454397,-275.254796487976,-55.0392485293682,-158.787678272553,-264.728372957658,-308.657423124503,14.1043117295866,-94.6104763342137,-173.670586134056,-259.245546020033,-322.860157812242,-9.33876351807068,-94.9066982345622,-177.487713316265,-272.232958549899,-100.216793712082,-178.585461218795,-302.089242708002,-629.231400098481,-594.408108172817,-1409.12321691057,-1334.58168492348,-889.288126198588,-658.072796617093,-2257.7656804816,-67.8410265590681,-394.155980013089,-1459.81557818939,-2730.56630068741,-171.752130026592,-1486.37632204676,814.493543335218,175.551314483264,-158.325610053748,-367.584681172431,728.903006895804,-27.6380796169049
93.5449250470589,-60.6859223796728,197.916136851187,-17.7655675192646,-304.580250877831,378.269730397287,96.2217087688995,-23.7616947873269,31.0087277163628,23.0766868055863,38.2912010186798,-117.146119810275,-63.6911253448051,20.1634850211708,367.839677288673,-186.918894498698,-269.021056388131,-130.790394523013,-364.757280032438,-244.842873641028,-404.874896135525,-408.868531792175,-309.571080218748,-518.332224122737,-356.256933300921,-306.595861571801,-143.99190830469,-201.293179388118,-356.325756390941,-129.380820795329,-228.12764819802,-327.650530081819,-358.501938895153,-51.3096012750188,-155.11849700361,-227.54702261658,-305.143127066152,-363.872215322061,-66.1220001207404,-145.279721526465,-225.082013034194,-305.976998871156,-142.844345404831,-215.291786497715,-324.046126451096,-558.772098823828,-450.880235783854,-1446.91352503116,-1260.75730981632,-769.25911634945,-663.245127568133,-2670.44159724911,215.917142211162,-302.10534984329,-1648.16223479609,-2493.32844048051,109.413376714486,-1552.21414870826,707.453801759947,227.894489180172,-274.335415758087,-355.596493537502,610.470411288236,-200.603067156775
200.598089533849,11.8133307329756,101.811855700177,97.1514394562178,-291.693018743585,137.253066071584,32.7293862771824,70.1064006482733,-149.349806937553,56.0670971173955,64.5181873567317,-260.192242905382,-237.976827184419,13.911403459242,577.863038868568,-195.9689897086,-147.356133994073,-20.5015916369273,-414.361034319195,-175.343027648336,-407.474486698047,-368.170899920942,-253.774465929092,-570.843246137848,-293.498885892703,-228.818021901206,-141.532823824795,-117.094754154738,-248.479372510194,-93.0662030322955,-148.609751873551,-208.995350193327,-214.936368771089,-37.4537038937437,-96.5566445415473,-128.17284667732,-171.433246517655,-208.419437676338,-23.7878754542265,-63.1985422162184,-109.321538722873,-157.577219542027,-36.0950383792224,-82.1486134934236,-152.395453011415,-268.164816728152,92.2723720939787,-816.618439206578,-675.866731410115,-160.788754348649,-249.371880510224,-2104.88773641043,668.119808681497,136.196784912213,-1187.47681374416,-1337.4877985478,570.013627088092,-960.164508079936,778.582460959074,528.87285818035,-25.8559424549003,-48.0792129309758,704.837003313505,-63.7816224021167
337.280337869362,166.938492858527,61.1391747957539,237.682620051683,-214.516100258045,-38.8879684577188,-0.392715378810573,164.462104903671,-170.63120736159,115.131706327895,62.9983946881483,-140.397994411545,-249.518584780777,54.6549832390871,804.999532394705,-75.0853511514565,92.533439319455,179.369265673121,-291.195098941273,-7.14364121810045,-264.35345017641,-245.109264619797,-140.156406565155,-465.515559260013,-100.455750009738,-147.497170611572,-87.5271160278909,0.941324870604061,-99.1617881951029,-22.0022224513591,-34.6434410975574,-64.3567882447576,-69.2593128696659,-7.11990841090583,-18.0114709617273,-14.6711710472635,-25.0768803253383,-49.6633340469227,27.7575355361302,26.2421962133859,16.1120261065526,-12.122359973712,72.1368515166066,48.9980138563409,13.357099688398,117.692026792791,378.064317208581,-43.8791719423674,-80.0404976749567,251.106720070267,335.386931755521,-1052.095173583,1030.23000600969,686.548930719698,-385.864222124559,-250.06440336609,945.046074547747,-190.672402294983,829.820685763354,849.621315723354,373.64569211028,277.710022859593,818.579546852679,210.570671410899
289.841649444542,82.349230627781,55.7615009434347,159.768419327004,-293.308772816801,-70.5054615746866,-17.4823529952915,34.1881215681777,-16.6778154730864,70.0643369594682,-100.623690119302,205.015193568154,-94.6289779525314,-14.6355605527667,965.69981364386,31.9010440558719,305.2989277037,343.926820018623,-217.017467307542,141.429467119475,-146.439860132508,-149.821557863401,-56.8926216407813,-398.656981353737,45.3090828857626,-157.440994925099,-77.8865502654936,33.8751789228959,-62.8284201250853,-20.9644792528503,-18.462304336469,-44.9122420464333,-78.6186107882126,-41.6882796230115,-27.9145367273382,-17.0853155982863,-20.5696692111003,-53.7718762598049,-4.90075125283643,6.36230045145881,11.0044600478465,-21.2281633028872,50.2141805471411,37.2107706354782,7.99275950916138,354.513249877973,148.424264472545,308.579730585521,67.1053196680684,158.18262427445,728.35334241861,-361.913987272402,1081.19256929687,967.559211944186,91.6877251130252,108.537816097094,999.941990547414,164.907718749144,635.916613206367,897.760366486482,492.989959990829,298.680189942157,690.379150144701,276.759241507818
77.8279784580922,-224.306481336213,87.2719903749628,-95.5515644557788,-474.521533445759,31.4902092412835,-19.810055308555,-251.557254521154,167.636334103187,-51.5841069464085,-328.527445623176,545.185987178237,80.2707109367452,-148.358716788634,907.224651421374,99.6820652611361,385.568291492206,394.977936441332,-266.443315275599,191.487395127231,-113.741517313231,-121.419715129464,-15.95694646666,-405.280974615556,77.3033352031311,-191.911536394806,-107.200928872818,0.854810526520421,-113.401062198222,-71.2706020255075,-77.4578447803219,-121.544269365003,-196.340179075893,-109.345066082279,-93.0608812653161,-96.6377716274986,-123.059092623555,-176.539292097996,-80.7927214051922,-78.5941270899648,-84.6806360271844,-136.57274568354,-54.3136644584968,-67.2289145577758,-114.74469002296,343.46674661371,-224.99302469516,206.404947364464,-135.493992015185,-116.109341395632,768.129838291747,-279.534445789738,795.886411933711,873.962964456937,51.6639268598869,-85.4019750471017,717.708834538217,53.246660690202,267.420494103189,667.336075444279,293.09145838097,-5.10908237839978,348.97821452958,66.6819217412007
-118.450158083316,-435.596361525215,117.010691774465,-301.564027190355,-537.017051271145,113.584454414114,-27.0722504170137,-460.407738862587,225.884902947484,-138.714576520511,-430.429812471892,700.090714097061,157.430740479971,-193.087564108865,612.329954361809,216.225845934318,337.602805981243,355.483312058611,-308.283161343219,156.638629988923,-118.823540826072,-142.164214227445,-17.1821064693579,-387.094441320601,68.0777872512876,-179.459078186722,-109.255206983159,-19.7873644814289,-140.531099268511,-88.5559663995412,-109.858812018514,-178.235540491978,-290.77409941928,-120.73967081157,-115.673223371646,-143.908571119862,-204.794763546174,-274.367328192068,-104.155859372394,-119.607723932817,-149.83796691343,-221.669293590021,-117.274442447732,-139.609493959432,-209.260106852165,178.665781306124,-367.628125962928,-18.740334227507,-292.606150962599,-218.067331194936,556.382161996412,-408.520169544193,347.556435729956,635.489323818748,-146.832763366801,-352.638777246159,328.470384734689,-141.73760511008,-44.9734657100877,422.312794888657,125.930444685588,-363.907957794964,23.6368906431131,-194.427562727817
-218.009547111543,-418.077398488419,99.0120228023991,-381.100950027894,-440.448117386771,48.0887800183942,-59.9024153393284,-524.594769015568,153.622087684551,-183.264489120543,-394.280326660513,638.211397229971,144.117431795385,-170.058955574729,272.964574067155,338.650742391067,208.774410841079,263.846606891736,-258.149575962822,58.3069193322601,-129.266022332329,-202.253999663173,-119.444908944252,-310.622989365524,60.7718634523481,-185.438787913731,-82.5862378688662,-33.0882726569537,-134.322990760704,-66.6805784685552,-105.707439978619,-188.680440034342,-325.509793508954,-75.2815581542071,-91.2097816515599,-142.568428417832,-226.335609590538,-299.990871311583,-71.6790443476906,-104.487087055618,-156.593941612967,-239.672119358582,-114.959395599091,-153.669954599263,-233.5706713437,2.04889811524746,-319.730553872005,-153.568919361211,-289.61897169815,-153.089100852716,288.666820861807,-418.270993959809,1.10665131595714,458.229428710552,-240.658538238167,-452.120440378997,122.391112817654,-205.09671760285,-177.408864736166,342.023682855142,161.292852869657,-550.485534569816,-157.426026653132,-351.713283113908
-243.136938073783,-314.316432962405,79.685318896319,-364.993607813696,-289.428700423137,-101.487070938042,-45.3251070796857,-475.61390535084,102.984951159278,-175.637905751691,-291.719337106548,474.817203034919,146.421686016556,-150.30412455467,159.85399457856,386.65564653754,76.8134840922255,177.90811172705,-114.663248455075,-47.6703527076951,-116.550869467999,-240.874100850539,-294.906677795315,-208.985131328377,43.9648747948453,-254.94354766987,-48.4261345254782,-68.2084522151211,-135.517854175288,-39.8759420486755,-101.96275180629,-180.978750041525,-315.948486922972,-25.917765614408,-63.7973617725114,-125.03766093045,-208.395013186843,-272.468405996783,-31.3328196765105,-72.5824715975793,-135.80289038829,-218.598247009865,-86.0927078844406,-136.740056249388,-209.50360016703,-87.8015473421581,-259.582421854381,-193.337871313152,-275.844687709895,-55.3930150746,108.278599919478,-294.342800536716,-103.859126527147,351.487192951204,-242.232373551821,-378.403379786745,179.883738686766,-196.066395751444,-158.85950923952,365.545957386336,264.31838526635,-551.291417827519,-217.831399933855,-425.806829795778
-211.133947497636,-234.652225847827,92.5305591479219,-212.302748224598,-116.867518541517,-244.119844007158,110.737651058738,-267.692917905623,184.439226994703,-25.3823402488374,-121.835218368789,375.743781905411,247.987179011894,-78.3607938681944,370.655054031084,420.425642186569,27.7427110438365,174.11392274424,127.854318612565,-67.6058706849112,-44.8745784709875,-177.876927346399,-382.801705868241,-103.796270250863,16.8658191454129,-294.417470171513,6.89018936931494,-95.3971200050693,-129.237818337516,-7.52262046465374,-86.7151738284453,-147.367811190383,-249.02133432276,16.9981002854703,-33.9941668776253,-91.9589372126803,-153.531476081022,-191.265876828202,5.34858386594042,-31.0512192127085,-92.0240204126808,-161.808560375566,-42.5050126107359,-92.6332848625024,-145.838834251261,-92.0202153514883,-231.246485034624,-203.092210718121,-333.156879299054,18.5470954978173,-16.8752736271822,-121.409407736491,-134.472385837925,230.453609037371,-185.12611252809,-212.117157113631,269.348430291363,-161.566475662208,-113.845276707459,347.619889810298,321.451394752679,-483.362386840063,-231.296695930988,-462.79486901392
-172.351261262756,-185.220443940041,46.1161372164007,30.5332525664449,71.4792702466998,-402.429994571912,312.780723746848,57.0294378538428,301.529436915083,220.437511518348,86.9359760910444,375.37725340399,379.989118171171,68.3798246122539,743.76173058022,512.946321937705,93.1803485486507,282.42815780137,450.413197745644,17.1576103261651,98.5945510859978,-56.595631702957,-285.256866719388,3.44731298879325,-10.5577045114392,-216.617986226242,68.9430184741557,-76.5800192432363,-81.0487832228114,32.5701423480882,-40.3128607721285,-74.1392471076995,-122.067439134895,58.9269273518479,10.2371074553069,-37.8242546779513,-67.2770737956658,-64.8441544661377,42.3565521933636,18.7791182147377,-28.2224721137404,-72.423867667449,8.50607629021599,-31.3885597989223,-60.3286368075441,-95.3387497242203,-227.508623014626,-234.183532801516,-407.767339450109,50.9977920593246,-255.05764709524,43.9337731499537,-399.198404336807,23.0694373316802,-71.9386960748668,-37.8498636059065,101.097784500319,-70.4750254140854,-164.512822998996,216.592019460775,357.1838980146,-435.554866123194,-254.983026149271,-466.752500592167
-216.386559676984,-171.353578541071,-113.862734672686,132.635957165839,208.92245126078,-533.382895769338,340.411995636755,271.152666246704,304.212274947488,343.872777979944,212.138870008009,381.601950675448,408.082020633606,179.796032269026,1045.23484253903,640.38142367146,238.230960839043,481.445019484742,800.052937561447,126.757744008755,325.024207812158,-11.4539743219826,-80.1995889887747,130.455496980792,-50.468723036321,-81.1579452858982,65.4887229157489,-38.5966258001616,-17.2470586804587,44.5260751596724,2.85010346297707,-3.46111242793312,9.29057358919174,68.1725600283759,37.9449277452112,8.98632738155507,10.4093465571822,53.034280386313,57.9859483691748,46.3379534504057,20.8985264510687,10.7851964086319,33.8864566620616,9.98477359984357,8.95979114804793,-167.149046101129,-230.495394765269,-286.769035118344,-401.015070002405,82.6159779897229,-647.044902333416,210.108024074711,-949.878947837577,-318.743364008002,85.5464281014127,143.457716640003,-360.817696885923,110.821566779647,-312.338107742441,-12.7803931730666,423.203570821014,-341.276668734181,-298.294660197475,-387.816441682258
-326.023418050799,-132.838468269084,-282.172059942184,26.3012327440518,292.609786553321,-482.015711458166,172.493532234288,289.13474868412,231.361274314303,290.776002201895,226.914361065606,370.030379771196,353.490719489732,226.093279045382,1156.57009710679,767.916060024324,403.896171644826,712.062980935784,1100.26044317956,210.40040412809,614.111678081364,-59.9266976264812,107.814761412638,301.438746510499,-112.49409066393,7.74299424705776,-20.1607465420109,-29.5070008650408,11.1130650704887,9.39252970712338,7.95443977398907,19.6836255549529,87.3669892586745,29.9423168805284,23.312150634313,22.1649037191523,50.2955188737205,124.683391209755,40.9664042178083,37.1032268241914,38.5117712873276,62.8584126790638,28.1536026888086,23.9636175140327,54.0066725564301,-363.010329665441,-109.530515108621,-335.414616538597,-233.10890175726,208.335482212713,-1021.11004251353,427.942147070887,-1424.13293589399,-782.759054296655,262.393047077688,366.525253835942,-871.154102950888,354.232727814175,-415.185421100197,-256.242501422659,503.964580297002,-67.0652967202361,-309.350501179052,-150.254095042501
-352.170171489381,16.2953249749532,-339.517023410147,-46.9526582868111,414.425617075333,-242.447812296441,21.7287413662746,294.6367112335,217.388134302666,242.643305750135,278.675346705686,402.893864491033,347.210972959332,333.091686581128,1078.76093630211,866.458277276812,534.376170401444,861.086854635251,1213.82822622321,293.282946823753,836.581412461625,-68.4288846456553,237.983284815235,488.281911610062,-147.820628151036,60.430000958054,-88.4785981195203,-24.9667727335013,29.9989058998346,-19.6845363923856,14.1785767697766,35.7429231803397,135.730750246799,-2.97481100893709,9.77151837069534,32.2605365039803,87.0136729541664,188.502833625634,24.9308172481905,34.0754380546715,64.5567238749844,117.468569516623,44.5765624671734,60.2722307734825,119.727481099431,-691.883485755678,242.027662767325,-358.720310325016,47.0076047551967,382.135955402382,-1198.77700309275,623.868279943433,-1402.40125610631,-1186.05229136173,318.998202243486,525.762448913396,-1101.12934294261,454.706329519335,-311.514472328861,-410.595476401833,456.843210277621,296.617631026065,-211.145579209797,176.863565820549
-197.626456959934,211.049416239739,-240.755125255802,73.670556852995,570.118241219283,25.3187358686387,44.8407084311673,392.657343754754,289.810794525943,303.843494959681,445.280669787218,495.660857927381,423.917682353561,541.451260910765,908.470321061689,909.861158211021,596.939715042252,866.124620115944,1081.88046201138,380.190539432395,860.583663670109,31.0696194749996,315.017758281741,595.224480654893,-96.3278856026549,138.977284850604,-69.8609115034384,22.9559475210999,99.9781642425834,4.04499830655364,66.5811925620268,96.7296580920418,204.609224704381,4.13170440021466,35.1203745302737,75.0659907720253,154.449232566903,274.830452031448,30.7302641758407,64.2249446432984,122.431031282209,194.424041943488,101.740676483941,135.096911478296,216.721162635018,-961.361599786871,590.473821913247,-335.855258123242,220.060508658176,366.900097887342,-1135.33375479116,593.058772713315,-957.893354931683,-1305.07791289532,69.033014226974,452.282863856202,-968.32685937961,173.99994192357,-24.6075084824929,-490.18774769194,127.957625563966,469.701880819965,-11.4180538840036,377.863566242323
41.4917200162896,305.311104510171,-9.76001412233907,244.995563546679,622.928700183758,232.508907369713,187.824450931403,466.675954841757,384.620504513123,389.651848177346,604.028268039902,589.120012569421,511.600160263129,729.463648266569,810.671865762359,922.805700957105,613.03813547558,817.139229588561,909.077992149082,419.400836468981,727.797117699738,134.866046902604,326.28649870161,546.177386899174,8.04759021651323,203.95080905991,-34.9224595858795,71.9437330598735,180.681888534478,29.6943227968229,113.583780476862,152.505574873524,258.896020685292,-1.80883013701148,47.5377989898786,108.640764254439,198.597579924415,316.826293832295,21.0153100737691,72.9903267994335,153.432837780244,233.783715397428,124.948489655923,172.817144882159,263.973666869496,-916.618534690324,519.810577342486,-269.786618324903,136.559382566728,31.3758731072115,-913.027810500933,315.500258580873,-572.697658517406,-1191.10697558163,-354.770291968347,212.732746047995,-752.388276473963,-303.379510378883,205.18884212691,-614.144581685817,-386.321499418729,424.348907078487,139.164859781508,411.16743707136
132.714774999853,211.574082441672,168.263255892978,235.097095219029,438.092732375103,326.463696780588,245.114535637824,365.358121082795,377.124937173548,350.170838000547,581.938865885801,558.04854383172,474.076748981876,761.381022579008,811.771042005384,849.949799253732,589.21124854383,761.779810645267,880.127230581302,347.596990077396,541.735657348027,109.496270936394,248.76411520045,342.913808923244,45.4120947491017,142.384905287146,-90.7709393732943,26.6487436392661,144.792467938692,-32.5832983943518,57.2446402039844,103.275869084371,201.747658474997,-80.747205898076,-24.1376563172324,50.9072567103893,131.25972831674,226.686930616632,-50.0772611939739,-5.39793134692592,81.7412227062562,160.955787647279,45.0704171701123,98.7437066337233,184.514079141608,-596.591176920527,7.61987715027637,-200.239033087274,-88.9984359762548,-450.184172055019,-689.629575125343,50.9649926317779,-463.098958994288,-1066.48548133685,-506.354919675043,64.3151957184009,-677.836717465593,-426.673926635799,199.007504082705,-777.971460254772,-778.585445100607,404.099461574741,92.8148377451333,452.441676805738
-57.2727688094912,-98.7501671946694,56.9941469081925,-39.3444823429626,-32.7251507478807,192.979100225912,38.4070858978782,22.3813708259971,131.389453603673,76.8698264506017,297.891211672247,278.865979999998,170.692873673902,555.076307714813,704.496173819553,517.960457437994,432.59615379156,574.608360027847,806.944414129553,141.742552114959,295.244841836591,-58.2355451425274,88.8498172150844,49.8214934097309,-52.6030695337563,-52.855092383113,-233.225085921543,-119.468761233276,-43.4949357999871,-178.496534803103,-103.24594540518,-61.4312315996229,17.7549278200942,-202.117307285919,-158.785121306853,-97.9685720045598,-36.3139167488784,29.1810489840562,-164.778584167853,-146.541750739673,-72.2145219418933,-3.92797457827136,-97.4694463084079,-52.9139473055286,21.3525421639192,-266.199851330579,-485.422321291352,-155.639706474006,-285.814434428887,-765.183381688385,-557.682307854752,-20.6674678637354,-422.319633226803,-962.145046351445,-223.667628701162,88.0163917056638,-609.188819596534,-52.4301812143735,61.7796843618497,-814.390549764552,-890.736036217301,421.695477907565,-101.099932536467,528.555642149045
-374.840760418186,-498.566358468289,-285.777838238567,-424.687463067247,-612.135940459137,-136.641748692494,-344.100123680487,-434.032434977031,-279.093973860185,-329.166558204993,-121.66130197651,-153.1412691318,-296.345649886848,186.092472678846,411.169853693907,7.7210997662038,123.000820403133,270.453625697577,493.212809692714,-102.080823235104,15.3663228812903,-251.956362714188,-68.5133758408303,-201.092147288272,-197.680918395374,-212.868591237884,-339.122776001813,-242.411506521113,-226.245846704458,-284.777746140319,-232.852829678552,-208.615673813756,-148.765138900803,-269.287890088757,-244.224629195624,-212.119638861631,-162.18859114955,-120.912978699626,-233.969699866812,-234.789784787011,-178.206782393849,-125.210439715665,-181.571890835076,-152.33421956488,-79.3502123933357,-20.2418784116773,-584.424784538998,-101.95056785176,-415.311909316388,-747.323527300272,-445.579060519269,-7.86819310472406,-321.651127264051,-777.508977453842,119.67539112413,114.555083470506,-397.826257316651,266.26363527309,8.52580405689928,-654.697439114314,-852.736925264613,234.349270461379,-238.176199274031,477.92137561091
-535.524421184983,-681.285839639648,-530.204430452575,-635.744778376799,-887.776466007339,-404.268764279043,-578.3433195548,-674.837439919806,-547.191438777804,-537.432511867299,-341.166460980811,-422.66928142755,-551.220812603939,-49.3062214263091,226.299276369631,-234.271139277003,-108.362873732638,180.513936083309,207.905417905056,-193.088800719023,-101.911317389073,-334.532038847245,-95.8608293327446,-250.477159977216,-235.454236493412,-172.185128098223,-305.781076162471,-219.516281861801,-208.772693007204,-247.405552320825,-201.154913456907,-181.319016595096,-124.609666826641,-221.560571242392,-191.750308084095,-166.786834621271,-114.435251600717,-80.2626103393955,-184.103318283651,-177.874527946372,-124.14668780609,-77.7513513881323,-123.555957629652,-95.950244890139,-11.0967119232136,248.142909839414,-434.514279443304,10.6937609394927,-446.596905333188,-538.786381558678,-280.750304428002,-88.2141906355529,-319.971774753969,-558.019104285226,156.632262135582,3.32140888969444,-212.531024346721,70.2559838954856,59.3920122368632,-448.712846049987,-809.830838087208,-136.78498176945,-199.930741436122,300.849669556727
-477.226167311168,-513.755686370503,-520.076269667347,-572.487179346121,-645.558095348232,-441.337788096047,-502.597783547565,-532.769078940846,-502.413697116188,-375.574128917022,-170.077155606744,-375.300709608082,-401.133266959828,40.9045969387218,379.065128239721,22.8185613519608,-46.3003475006584,516.840220905891,301.338848288467,-54.0249506637534,82.284667777923,-271.619047670352,38.0902902421474,-65.3984009395018,-132.858509311616,27.8022284417568,-166.069966044772,-74.4564637094524,1.02713490680584,-103.685790874149,-33.7427159854565,11.5249594370675,75.1258756581746,-93.931640050309,-38.2886233441926,6.01396647044401,71.0276010282667,113.335273430416,-47.7587804436633,-17.8935721528714,52.3529903540892,100.82698137506,35.5946371030864,76.5500699696412,169.281376925563,477.969013604685,-466.666139288865,108.637555540888,-369.58505356275,-451.113852875368,-164.155870256051,-303.854013031549,-520.464234961149,-438.593665649198,-18.8111711038692,-202.196745451949,-273.707472671153,-355.088774127125,36.5363622508374,-350.024737174213,-696.687106864851,-357.385850123248,-88.7944270721864,178.188950220083
-390.492125746776,-249.143808932401,-440.269262458711,-444.073487002067,-176.059672631318,-367.582939572726,-329.349939554402,-263.194574657153,-325.665509969344,-94.2051033046183,161.630024756074,-204.976200865836,-92.8483928187946,256.729916992869,637.16801023559,435.142803727588,174.022087787536,987.73782555358,606.782212818554,164.059044499217,401.948850002384,-141.652887224317,217.068606666055,176.047092646896,-0.736349068257404,193.601168740311,-36.8190113462183,59.9721784681215,196.757114728904,25.3870659653501,119.664350258676,188.602957769196,243.077305693755,18.7107383647583,89.6635981678364,147.242992045768,220.608322319802,259.661653403169,67.0471024361957,111.507584127706,195.626436991965,238.534657225251,164.619541702252,210.697958324173,292.129907436556,401.510102631984,-767.840128900819,43.8734934698975,-306.029259069619,-570.195256547066,-168.235213835822,-554.279630670359,-678.26917525048,-379.115029591931,-107.377652774581,-358.214972291859,-428.404832334438,-452.874114947503,-123.863362448499,-300.451590062984,-393.815248095787,-274.632862274299,-60.0851267376242,157.678568870773
-363.126119901627,-132.717749241881,-450.371965322205,-430.538407963612,122.695784029476,-352.875854138296,-314.82400276416,-187.050119480553,-254.375170167138,-16.5029678782838,315.109336586498,-141.804770956245,67.6667438618166,297.573674069361,655.952327883355,589.006841617619,265.732986348424,1131.91602317624,692.243265453714,265.776052921066,541.539961296617,-44.2334539465317,308.584368005473,252.586517834185,56.2036765758044,206.342785508783,7.56213025506793,101.071185870017,216.187750906182,68.061067225647,149.916331370446,204.670791178246,226.895874101598,55.2649733190852,114.263817936186,154.17277136168,215.030182531281,221.848411810747,93.908902523113,134.999837850384,201.730350454619,221.443708754652,181.055442702282,210.606027376848,261.288211342369,68.6008962663246,-888.193004580823,-83.0018677655753,-264.408466477811,-609.171412178614,-89.8515620760648,-626.629144532534,-440.071324277185,-135.381103871343,4.49304154650692,-304.591495997911,-245.074909597486,-122.892445808503,-197.697803783281,-97.6806016674482,72.5646597497097,-60.1539669374318,-56.3990062444069,128.354253870943
-266.346198797403,-83.2924019033245,-444.022505151714,-441.89746440866,198.96438901679,-385.63615584968,-421.326538975676,-263.440258682717,-281.497559532945,-130.375827425764,246.883212113057,-175.379739540102,76.8988395843495,144.524610111659,430.602598186314,550.942799208114,183.645774034046,894.970888568431,521.529593842004,241.412799819402,439.662991346103,-14.1671106450926,309.738734161915,165.333850578831,45.0432041985858,129.407315832212,-13.068316298813,80.1231218192565,107.955133645826,45.2758978774209,86.9222830959194,100.478353146693,92.8230639624429,39.2793651342169,73.9051813170766,77.5054646457092,105.010912121087,73.0085679613492,66.8666141001492,93.7183383254034,119.095871509673,104.322935499128,132.185177357317,134.95517724572,141.071584638579,-38.9202814215392,-538.18573971608,16.5843131300984,-101.840773665409,-351.436487009351,263.226379719057,-435.74748529151,140.331334227543,386.505500550981,184.220216604886,-55.3686884270079,373.52154252431,240.137589208615,-0.588488543031339,320.561887121333,510.895820158067,49.5416263175089,91.3601952977776,1.32654416382362
-80.5732251748933,22.4753680046011,-350.329025830122,-365.451226029436,208.726415332402,-417.510761804918,-499.971957058622,-249.699307711472,-299.477314988354,-229.885235685729,127.881161231082,-188.548615511454,73.658906036495,-19.9682360157862,181.937856078058,644.430648626242,108.149097151435,621.934482316098,472.137108641243,230.871562263707,389.136300920452,-0.665909333735667,321.160349497467,147.205477483892,45.5785955103811,106.408228604781,-27.6683007649265,69.160193491877,41.378819097761,24.6036288693629,42.8704289559476,24.7592584304563,1.08125154686907,31.4024204292908,50.8663232481471,31.388082674319,23.9603010237999,-27.6444821490367,59.382104782823,65.4341832898714,61.9615264050011,17.977017352095,107.854525120635,90.0349244301447,48.7763232503698,256.830188371729,-142.774234612402,275.370921108666,45.7842417301172,-90.8626901922505,664.724373472978,-304.933410035437,584.944236909913,852.831045657672,144.557180750944,-33.3129679042693,928.435101197056,130.385752342337,256.845415658616,707.951472433505,602.249759798251,-120.412864121213,308.472023806504,-270.730012748595
43.1520844558615,150.991121660356,-316.343394069971,-211.029798493369,250.822999451439,-503.340933394257,-522.002319361828,-42.8571030891556,-308.333087448852,-199.409088505975,93.8928903533444,-155.314660298073,100.678435107326,-45.7262216264202,35.8247236023045,908.523714959796,135.508200658872,544.256829664456,758.664216702434,295.396780801286,621.239508970646,56.1420260598919,382.244113046404,358.307470381446,95.5163629114148,198.29260097557,4.28594450254174,98.4650247954131,103.948954838953,49.3508809436048,80.0990668895462,59.8386546608998,16.696789105671,56.8292182596729,77.1985089179799,63.9692219554503,36.8918721327071,-19.8705783096914,91.7671113133198,83.3919838260472,77.0155513257481,24.1461199797101,129.169737026654,104.530219028246,32.4189961688094,534.095969893835,-197.054085157481,320.043338849806,-108.015735112024,-236.525356603137,741.011272269512,-589.332748784117,589.339774044137,866.578218560424,-276.19991029075,-647.47343660574,947.900810700902,-582.937720780856,267.487926036302,761.541669413737,193.50888775543,-539.894205465459,357.155855722107,-618.46002843159
107.818567594425,292.203144002029,-374.669349201955,39.718987678994,356.724640782043,-621.060197888003,-445.344392952194,273.619665303002,-324.556107100753,-29.1845190647623,171.504136970868,-118.631588438955,144.669454315216,103.239619127078,-56.7235081963368,1054.9821246157,134.220774080313,517.327955519831,1117.05361399385,303.373302194947,921.320477404323,109.629907889079,379.696816446192,644.58341644773,122.172965162135,307.789290810615,36.9908185557168,119.298334613983,207.541960998638,81.429985473176,136.033939088141,137.167668829924,76.8021412148468,77.932922626329,107.407231014945,115.199347953978,85.3441479890711,33.2013794647919,112.052411555073,111.940230275738,112.150134989576,69.5106677601583,146.9412150379,125.42118183593,49.7339471584975,479.958509936833,-523.555631910197,105.329246186372,-439.777501329399,-642.104599414228,507.210420350842,-1062.95161962064,349.986598228217,497.300423010652,-803.920779452858,-1515.56496865957,576.62848162552,-1357.39987762573,93.9518682135737,496.532466991631,-377.716590232593,-852.827842554964,232.038776320394,-786.068823117491
230.186173615385,428.797816234329,-337.200323336503,328.015064312588,459.079453849559,-611.719627035014,-237.042534070118,471.127048999641,-322.134748742538,157.988492037656,242.542413108589,-129.631996991579,164.456950256022,282.228537259877,-189.651306087832,857.781876398216,-59.6788005763525,308.085979243232,1111.81360607932,99.8875666847922,873.33278114114,41.3387748317545,180.184379462252,697.58185616341,22.6207347006424,271.846702032519,-17.2207501773753,41.2102501727171,193.969983731326,34.4999515690947,95.0868669189226,123.134638143445,80.1778215307658,29.7610091422737,62.7597737314256,81.8354652162042,62.8557018851391,35.8888607321479,59.1339627249208,75.0054562451919,81.8348095275159,55.2878805027007,100.776551979512,83.850399199511,22.4327270937854,297.370426908833,-667.806429765586,-63.0008129770813,-578.2376876448,-820.403866597856,284.052485981408,-1167.51898666893,217.513431111013,145.722237341477,-956.109239118778,-1734.55604182736,259.525308130919,-1457.28990715927,-7.03425500774629,187.04101971684,-609.14721322705,-750.180207512852,109.214314229207,-626.775660129386
331.537747758837,418.727179039706,-176.119053366943,407.274545988167,400.756811256033,-459.760190581542,-86.5470056070945,332.461013623013,-352.448840502319,122.831428184421,121.944059403908,-241.00532910596,45.962156063783,229.669046771698,-337.272171207899,385.637300583268,-374.582358827228,-35.6713063231658,641.063454243721,-240.559342327747,422.387538452477,-155.98202048772,-161.50523151324,434.455487827729,-186.261610567726,66.5184658329286,-167.303050989398,-142.899455868057,35.5659985864969,-107.276565303667,-58.0563664262005,-7.97274918347526,3.89494686693828,-95.8550753818071,-71.0284671324295,-51.0036279402266,-45.7412278017561,-32.6243029553077,-61.2859678753228,-48.3495432722876,-29.3165646220707,-37.0660902194439,-12.6034034524318,-20.5861926946204,-60.4338689070894,280.49796018312,-524.883239701074,-29.0581221670864,-431.370886177135,-627.05239997939,254.104428552426,-763.802289974848,305.533218079032,57.7679802471483,-603.242064969724,-1064.64780784127,174.702534149647,-836.594361466887,-0.787829453826445,17.5825847525372,-427.546376893103,-373.619468722813,17.5134926117204,-334.655214312677
250.141934639908,214.238045199493,-115.593435957329,178.610346073338,165.413844790498,-373.952569191314,-193.656352912774,-42.2902886810983,-493.595080027933,-178.416699230532,-171.522614951141,-446.309233416831,-247.651630492966,-100.9909060766,-366.052240296692,-106.755064915227,-562.939444313003,-248.182509876242,50.2212462016497,-472.550995760393,-57.5218482929893,-354.111639547875,-439.109242024083,94.369396221268,-381.308073040314,-150.595652581966,-326.665336512844,-326.220212060896,-137.21841964232,-264.642886524389,-218.0275939834,-148.942724344124,-75.3380397281555,-233.637935182129,-218.72908686068,-185.568758474644,-144.032877572203,-96.0485992599137,-185.580240433536,-184.261158589385,-143.688069788768,-120.697423264168,-128.896569066,-111.044742218194,-118.525650111322,441.575753219548,-242.707232145675,88.3524091062216,-174.595612384966,-314.590901939888,326.43457177246,-236.225437491807,465.665407978197,164.873601121184,-96.851190183325,-219.665428135966,193.694016549412,-163.912068649283,-61.3270398046296,-53.0835099819729,-174.99085897559,-74.9823781736969,-144.126488147207,-182.129578209328
14.4647212618044,-31.8833923526689,-274.512018320597,-139.907540436713,-74.8962040495216,-479.764924316631,-444.916659531923,-325.622105086499,-677.522011458268,-474.987552848097,-393.59307111977,-639.849440452792,-540.509430496792,-415.972393721606,-241.424264725452,-425.501195107539,-509.050844033176,-220.069113745636,-276.992189631662,-488.192102642417,-264.908529692897,-472.193750521987,-537.697475801277,-64.3096393011065,-495.621837203802,-234.420785627961,-427.665810199048,-419.41254039523,-212.005735495255,-364.288550475054,-295.269945085473,-203.275629595129,-86.2439072634461,-323.993508262437,-308.262019117885,-239.575194153213,-156.686349297035,-83.9523514410071,-266.274070137839,-256.111282319369,-187.230581500392,-121.843784249339,-186.535787219829,-128.43300041417,-92.3994759695169,586.97747761763,73.4657289168563,142.302122725752,41.2302487220446,-90.5744011511376,315.174641237595,67.7624954567287,479.5076003932,242.41470332447,155.091346833112,204.063192868394,153.053762561192,83.6082036115669,-303.735985431982,-149.347045301126,-136.526397556826,15.2431677382763,-390.729971038412,-232.535709525005
-231.457261607134,-213.11777794566,-518.60657652464,-344.446295283282,-224.774047728681,-652.639949452718,-597.921542676683,-401.447990983137,-759.923081041333,-553.050907134533,-415.426896483619,-717.391852074522,-649.582929981066,-465.327502337104,-112.290067633518,-580.415137066126,-325.710581511638,-122.019834408079,-324.52152884565,-389.827262296233,-273.029322688042,-528.317023269248,-489.04002985295,-29.4891351480971,-563.109862185912,-177.69614707483,-467.892288846335,-417.608256597171,-185.142287944943,-390.429374009374,-285.445734496724,-165.999583967613,-35.7649746741228,-351.560124051867,-322.563783825914,-216.538494667275,-103.596698146461,-14.8002752933111,-291.652294926978,-252.519161227954,-155.723904107953,-57.2590605187156,-172.053785943483,-85.7350143965415,-11.2772095440469,554.264429473051,368.369757268813,144.500513490019,188.852955927361,80.9769015259234,173.153598257859,215.205696975859,290.011866083522,165.552161716379,127.098558876382,439.923968296471,28.3260170057085,104.225067510684,-647.905995281369,-300.813791381514,-277.677416626445,-0.122216352843617,-629.258156630821,-387.797891354667
-393.514288363135,-352.802954932079,-659.125571936915,-435.620886212441,-332.059900051467,-710.162294479726,-591.935835768632,-406.861334325829,-709.868722150599,-492.972780851139,-346.738779182671,-681.426241670213,-608.227340284853,-348.996651808123,-140.414034228608,-663.295723826769,-170.388236929474,-124.974381052548,-319.098200291004,-292.84167120786,-261.458680588596,-520.233655714256,-329.52119584168,44.8171655477231,-606.876827628046,-48.727045581498,-449.342382012158,-346.975379466795,-104.454679622914,-354.64029131682,-220.766608613412,-91.2707200110771,21.6926016650922,-323.367891217423,-273.426555923585,-158.976085417673,-45.8734723111843,39.5243878871768,-263.05148310876,-203.399144786415,-92.0225539872255,9.00048394136045,-114.687591204832,-33.2072827873728,56.3374735174665,384.957017150024,569.876950490024,243.078928386955,321.31125867034,285.970739373108,63.0947079028132,483.254569157131,55.2558979756091,43.2858053470344,129.584096901544,885.810560612003,-92.8578059501066,262.791512098321,-898.23469849669,-421.833553330017,-391.496938065591,-12.5372370433821,-765.903003920266,-521.620656830371
-419.538560154549,-426.201425806584,-611.245225429253,-444.126138800104,-378.22045870121,-603.299389257742,-495.321249693651,-405.640174689349,-586.574493849658,-435.244331999456,-287.541702851962,-592.217218675992,-534.901229378707,-282.868807870214,-338.959568791292,-669.800949194308,-102.056961943131,-199.059702689228,-368.084704476967,-230.81436376022,-246.866484596632,-415.245317603279,-105.433709827304,50.0786623114062,-578.716692237517,73.5491614600257,-360.323714213069,-240.116382359313,-31.7861259990155,-275.765412928525,-140.78299759866,-41.5233387876174,41.0641248017571,-259.893933972937,-194.135086044183,-106.20896095804,-21.1210203930911,35.8797291725342,-203.483885631377,-148.335972379887,-46.6887764105042,31.5531512567674,-67.916918670877,-9.99035329391101,66.7209125082794,271.009575796019,605.399241459437,512.167857437305,474.503313642472,438.34674779514,146.604419939644,930.337759591638,-60.0249206753779,38.5315413081172,357.602354014953,1341.12717672799,-149.718746051288,542.035710425148,-933.858312641567,-437.289016717155,-366.5980753605,-11.6021108516428,-762.274766169572,-539.049728214887
-299.478231286572,-351.514203948424,-401.179905055203,-345.659668326326,-264.941560455885,-390.805189040424,-340.56202085839,-324.235238358751,-412.175669790263,-374.13400546631,-212.166341196695,-484.813451870943,-444.258982864572,-299.522826689723,-601.783002897753,-595.388885700538,-103.602654818108,-264.771125268143,-435.028692137939,-203.995538068089,-216.780569032242,-241.46867763447,49.153675698677,-27.106701938439,-446.053652035769,112.119679677435,-226.431967043991,-148.22146854826,-22.1318341140474,-184.991089230615,-89.1453993300995,-40.5466190694685,25.5269715921278,-191.17368145972,-133.032673698916,-80.0880972511912,-24.3289585955257,0.805308187777255,-153.488857191119,-112.68708130694,-38.09286858267,15.2804982366233,-62.6670157031637,-16.3897510374645,33.4673206880194,284.075715690777,442.213801655262,765.976650094605,560.794969055996,358.973646736903,332.285772943457,1277.13457408414,-74.9274777476307,110.299867426831,631.313736011625,1344.23884775948,-177.337522627529,678.090196697113,-812.522245110346,-377.357813908261,-261.734741065809,-34.4501636868904,-650.412061139985,-430.681690323112
-130.6872746997,-178.249915381882,-142.529724678184,-184.761707848351,-43.254311476422,-162.279927584031,-159.757742143941,-173.432533484027,-212.128829190711,-286.39597164894,-131.788619358394,-404.889839957105,-337.40056866686,-333.656735956998,-830.83133788604,-558.375554622385,-162.547523391002,-348.10284175293,-511.888631697638,-209.664228312191,-247.706808367564,-80.9706931107941,37.7539476582226,-167.066699307878,-276.417550414769,34.1513180302539,-113.38793432395,-110.02175965043,-80.5403495668183,-116.813337102296,-82.3501214972667,-63.9667989000838,14.6357686812498,-138.276111698655,-109.664500111656,-78.5053115456046,-31.4328090942714,-13.4375863251571,-127.5131138225,-92.682361079435,-44.4234063003866,-3.14920191209496,-77.4185707759457,-28.1695492022548,4.14072426643665,258.327433498661,145.22445264733,710.067858972029,441.301416769796,55.3659678684425,356.744840547807,1224.70452128039,-124.584660534398,76.0593345383619,650.987453355092,878.777130920579,-245.214215472455,547.631366134887,-687.116997531843,-340.969412136219,-199.859761880584,-102.184719587774,-531.347517908653,-299.059163840058
-55.0798266335475,-82.472520658109,18.5074645427751,-93.8379617978756,72.0872235882633,-23.1174607292157,-57.4590365713986,-99.876635443172,-105.013386716032,-258.772852233552,-152.564527488319,-437.476448793266,-320.842466875265,-393.443082796351,-1005.96027314306,-639.176187599078,-290.14879929271,-488.916854740946,-595.574778437025,-242.19979131567,-352.360461715787,18.967195235138,-64.2625484283468,-325.362185570262,-153.066190286632,-104.776369278377,-50.4826851244285,-103.939616817755,-156.767434875647,-76.9592351844557,-94.2352793320505,-82.347638483292,21.4837222510728,-98.1791735829015,-96.168470771964,-84.5950067445487,-34.8677057519772,-5.05804705047481,-103.761846065753,-76.6965589246355,-47.8908539625192,-8.67177837657687,-80.9151137858093,-35.7501177108016,-4.79282617296359,24.8257500492432,-106.366620982958,314.315378104772,157.548959346028,-232.528725647938,126.694401049502,811.607371339822,-260.141470548599,-108.213272051666,380.777028609551,350.277074614334,-366.859641827915,251.882117461932,-641.857295437251,-391.15311494635,-251.523477579985,-210.417162077914,-502.550546760427,-269.488852113946
-86.9007185359485,-121.326845453212,29.1947799089531,-126.139880617122,-9.76868870895683,-19.3499353945256,-100.724526253905,-173.860622398318,-174.571108492275,-358.381902442657,-298.179976761738,-579.500024588199,-468.546221515422,-498.599330935874,-1106.08011500648,-744.371464083812,-434.885005870233,-619.219904241718,-610.532772833029,-269.574239248877,-414.26795454218,86.070552796483,-114.217794194211,-421.580081170827,-59.6456610829082,-192.995781615554,1.74999145407496,-69.8233885589538,-183.100196924211,-36.5024862185676,-85.5353143431962,-83.8319095111332,17.1502388706186,-50.5443694602545,-59.9367217948006,-75.8018166128685,-38.7880371001227,-9.60619459642951,-61.2366531428592,-60.8770326800036,-47.9414761501493,-15.0098614324405,-72.3829503483304,-43.1760596223402,-12.8810268377568,-364.126446549379,-148.479151280439,-131.741506007489,-50.7892120238065,-301.571607614851,-149.401791495533,382.056136484283,-373.133502512932,-281.234334126691,74.2412016998933,75.439209820678,-468.418351445113,-10.3857590793527,-621.929373753423,-477.988373758733,-355.886444098808,-309.946561249469,-539.009362461726,-327.093901741181
-101.654215481145,-156.746050535673,-7.54659236528827,-175.297453047752,-132.988211435769,-44.787368765516,-193.077839459549,-266.286634762682,-294.450948145165,-480.061954657447,-420.184940428143,-649.296084619247,-648.524972405605,-562.765581310701,-1019.35688962267,-738.134378802253,-459.993282303049,-620.388144162534,-501.186439322221,-220.595774353609,-352.9266164374,176.624702007322,-55.588640165485,-395.694110621177,71.2819491292007,-152.230348786361,78.4468702941037,21.09037980327,-122.280516548566,27.0097758082747,-36.1440553835471,-55.8640651951094,-4.82541029303776,13.4320536144155,-1.10106625260723,-34.1180082309406,-30.7126252064889,-22.6497631176565,-2.60235117231682,-32.2217714024319,-33.3616906932028,-17.2869354302602,-53.0341475199604,-37.9418044214157,-19.4863218307515,-691.402117801219,18.3816002147607,-363.609161586809,-32.4350403169229,-149.617055022213,-220.901810649914,232.432505834052,-310.814727571682,-295.939827164988,-21.8238296939374,81.9461808351689,-441.255939600562,-62.5068903067804,-519.54142610439,-473.229447613459,-343.113824326914,-290.772396097904,-501.90948892903,-302.795957403943
-26.255679484232,-84.9030678769075,33.8609297895707,-119.3776112602,-131.473877813542,45.9702701961779,-175.768481536311,-211.745015978151,-255.182370633344,-443.514658544047,-365.884569532708,-485.380529569146,-639.057037765204,-463.056340578715,-683.000402220623,-602.873119019995,-314.046804138429,-476.279744790917,-326.245885926243,-68.1843712669561,-232.878215286874,297.728248508017,61.1029487841173,-271.846070946451,247.389191926182,-14.8509145420117,154.374895904883,136.206888007989,-1.29650434017687,100.502940634754,41.9803278993386,8.27420572562985,-4.10262478885351,71.9910183884409,59.2059362208283,31.54746117001,5.91673708456811,-4.12007579696984,49.7724495610309,20.3956747553078,7.44028185955716,8.87584258255509,-10.0707482107327,-1.86483307689399,1.17995003259972,-758.22850336088,230.627610150009,-369.713886843155,101.715554452011,108.305172645913,-88.6426562276844,341.218096216651,-60.0903074622273,-193.702380014178,83.3192673488161,249.646902176673,-267.20245860017,111.582415630141,-325.485950651246,-333.307082054363,-132.526704729593,-90.1120816866319,-334.185523751559,-99.4191575209207
50.9249724231445,1.60545866534982,131.320485398126,8.94630686150038,-48.9149157736271,232.254954620981,-41.9387892220148,-31.5810829400348,-57.7184470851808,-236.590106032395,-172.266851912506,-200.014182368147,-421.042548989063,-226.034034263017,-275.258828118168,-439.300668107098,-126.867850720328,-309.034634981103,-198.630118007623,87.646458972813,-174.569856655143,393.337825754601,122.453424625491,-146.974903356708,396.028018713273,82.7570016187633,192.521935674034,205.945518001892,98.579429509881,147.730796788717,101.398410414466,74.6235308118587,29.1264715412538,94.5059865982516,95.8314102169742,79.3589351808098,47.4489449057221,39.108868098172,69.4416340322153,67.8578215615833,50.5766361552349,49.4320956769964,38.0293531259254,42.9349094910846,39.7202070346896,-549.522547724787,297.371538365641,-289.535052928298,157.636116894168,326.611133354045,27.485809704018,454.299987545768,176.453309121096,-130.549995130975,173.774410387642,417.250755871219,-103.584133604501,312.661090800034,-175.545021004406,-202.928267654851,110.628729655972,173.881656164309,-177.233278244809,144.606258177918
5.98522550426666,-36.4213682040188,155.857464104863,51.748036294512,-48.8079157254173,364.125074532412,37.3121919319233,76.5318737127863,71.4977540724487,-65.7586526946686,-39.9907620379548,-55.3524884783766,-227.420204720839,-55.2843637555118,-80.8447334987627,-360.432238371187,-33.1397647220569,-243.382088141442,-188.723279916796,114.537559831112,-221.47833757463,416.033252637353,41.7758681954388,-115.811136680653,432.494679694946,32.4337383438532,200.087620325364,181.030505626779,99.9555219330781,140.160445890432,89.1890676485407,79.2344756265051,32.7103500510378,76.8962152196912,86.8374904565816,67.0223353652812,39.5275619729334,42.8145687056439,48.3050921262656,61.2878477876736,48.4382114162327,47.4043068331207,37.3876154349075,38.7102934877493,37.1242319636578,-265.83247777916,184.691214640615,-253.88192184238,97.3458725466438,388.951135834286,-33.8059941846027,402.354079193045,160.905369584442,-196.957418560608,95.0278111799904,447.546395988594,-151.466430372044,323.751614784891,-199.983301537519,-256.082705576199,145.322091513448,299.754857204109,-189.629993967189,227.230954359063
-142.081752568225,-169.99938128551,68.340043657114,-66.4591687648475,-180.038276911702,389.344230620669,-60.4706904303657,-15.1930565322659,-2.68320458985865,-98.0686248002971,-101.9711603118,-113.49102875194,-236.757456245659,-95.7183284905506,-182.767491092924,-390.052414146536,-23.2003938447495,-287.610643447772,-303.581550573601,11.6639467919688,-325.97686119545,380.713722534909,-131.95184039185,-190.765881111849,347.005523683187,-113.07025878618,199.916158527954,83.7513474546661,3.22099449597986,88.1160037017482,11.3569460249826,2.68781323839301,-31.9632813839063,42.5958645001198,37.0309589971002,-0.162136163414938,-27.737769863839,-18.3885847076827,4.39694239964364,0.707643502650861,-9.4947484708191,-16.1794278982628,-25.0689449711446,-30.3435271818822,-31.0814781369467,-145.427209056425,43.6606102000893,-325.556344354694,6.73681921345833,297.394329468162,-209.904529619128,243.399873149877,-64.484637833794,-338.326344795568,-96.4019891525704,320.849143725384,-381.794718287141,140.988038903983,-338.409814456006,-447.025277547398,-44.7688779770788,240.992461343688,-318.373609711951,143.68748280032
-251.511090873228,-245.902846637906,-25.8741029205082,-224.1183649603,-321.983858810813,398.261493128192,-234.034340346342,-201.149214100747,-145.882131873461,-244.384791427954,-262.297492769579,-196.047069548585,-350.916288479892,-244.054787774876,-425.673719253635,-456.935592750867,-50.2190193915762,-370.141831830492,-497.58989602369,-109.061452177911,-427.217919104858,319.532092809064,-252.630411888682,-290.367343935669,211.823748585942,-203.133348981609,184.374758474954,-11.8702298996072,-99.8822673240572,34.7720329555104,-60.896649265075,-86.1683433644185,-100.602169118002,14.2757701956387,-15.3683649434362,-65.138951892211,-91.5013947065684,-78.6334173430404,-33.0155334180102,-56.8840972418764,-72.6589660741743,-78.9950034769195,-89.1756657432063,-100.889851439625,-100.62867436518,-231.399302816409,5.61844119235601,-451.473808148813,-66.4646616372164,168.199626165149,-313.908023692869,102.342474449339,-157.326265633012,-395.726694252871,-257.16041866548,133.269943266031,-493.71282201544,-77.8763196857099,-388.602492123117,-536.943259246859,-259.20842600758,120.973366319608,-374.483272100385,45.2014731152732
-241.757434497926,-208.951260260579,-34.8527798783926,-263.918669221338,-362.649533841402,434.639603441129,-296.411553851833,-298.47476436406,-177.872823923018,-308.606027964,-332.857173611727,-176.327874095173,-378.648276439094,-301.144605522728,-628.674716387821,-475.221557697193,-132.506651896879,-418.770668335013,-665.938505186328,-173.398997929237,-476.822117596014,225.214283259137,-248.806875765734,-308.851110476634,95.545162151112,-174.765807956881,134.773852582312,-54.2087431177538,-113.82791766987,6.82206923479216,-73.1747723974329,-98.218995968156,-87.79927901161,-1.99095648456125,-36.7775245209986,-78.4695315745288,-87.3421950346269,-64.1864766620108,-47.0339102718985,-66.1022625969358,-87.5957281395169,-74.3344095995839,-96.7163989859327,-108.986239760351,-101.052958273969,-286.339409124261,65.032577107602,-448.875162595462,-96.986832159787,123.526638643824,-211.993295080238,22.4398540672216,117.266946160201,-220.324722039129,-320.875436426531,-8.69525710104449,-252.8727322324,-222.642149968254,-253.092377300754,-387.785648152059,-359.115422639004,26.5265086903086,-288.60731945593,-1.75421270672156
-173.771697516192,-165.914632604538,11.6651168040189,-193.884227799553,-338.795182349254,418.305986210761,-210.224876455537,-279.674864324672,-109.572018246383,-251.082398066344,-272.355043026065,-122.898927474206,-293.521959316707,-230.055071914217,-700.324679109328,-409.28376097443,-257.53246463325,-374.238174105205,-680.269844086613,-182.081808222831,-410.931692809099,94.2065627020432,-171.510657537423,-197.22471544626,9.89198959323733,-93.9404330177605,61.1904640260254,-50.9640517342791,-37.6023284900717,-7.76057110145401,-43.3704903918868,-31.9285156730354,-8.68238779876331,-12.4845674741873,-32.7161104081827,-48.9545881772162,-30.966956676432,2.10650345506782,-45.9548103173907,-42.624670098843,-60.8848882426504,-24.5804867173938,-65.841184587949,-75.4110787738481,-55.6495751546139,-30.3478914866491,155.429192217876,-188.961312474004,-30.4321054853378,177.894751971445,70.866774576386,-19.1477448246786,555.412431916352,152.138084139065,-308.356716431114,-83.8986766840764,184.547507652889,-295.133193388683,-58.8357418812665,-134.361862661067,-384.162188208321,-77.9129803746764,-175.723047964703,-73.347470384943
-136.171432155177,-212.036585933888,40.6745653818496,-133.143586351958,-344.655146192038,293.753087573975,-88.5193404769085,-242.017068572716,-59.8134152907838,-175.477138732247,-192.529335344526,-135.253829029852,-197.003504893362,-150.293242898669,-619.652170334685,-291.738110039915,-332.488178390417,-228.991293411914,-514.259248637189,-148.13953278422,-218.778765235744,-18.4490623893728,-89.1498922522261,-12.4190153487248,-51.9428937867255,-36.3231805957347,-4.09042928893504,-40.2754502439612,41.8208691883333,-26.8043457124274,-23.8471451012979,22.9671068457333,36.101486494014,-26.4314833304786,-34.8452130871308,-27.7549158664392,-5.01025506196254,23.4346991992759,-48.8828843610327,-35.9269599155193,-48.237012224118,-15.292612110651,-60.0594785464878,-73.0565621252495,-50.5354015951164,462.627535425758,181.954067875548,205.194502955632,92.6609707402109,214.770350674266,353.644139156441,-60.3029437942564,741.972459910467,468.617261377288,-251.652668652934,-154.084688605345,433.252799048291,-307.09288016667,6.93477562538325,6.55484786988215,-377.98708608279,-228.170917243987,-153.902551364845,-215.242133542151
-143.737053059224,-299.541535470859,20.2927809063789,-141.752512320672,-382.534744072498,113.468416975921,-41.8811866331306,-239.174438860592,-86.7071421463124,-155.923067061228,-184.37928189272,-210.156211850836,-164.076027799368,-161.459227868827,-463.209594678249,-218.417699591666,-327.444759400176,-96.8131681573783,-331.175793822393,-99.7100695641585,-39.8953687609688,-57.0878268554076,-38.158733933826,101.195488392508,-76.1809672356621,-22.4712738658691,-34.2821126873435,-45.2500239320984,45.1668463549229,-47.0676065318122,-38.7924700052159,-5.3484493962742,-16.5199559618738,-42.2823092486888,-58.7036167824409,-52.1824521660249,-58.1200050718128,-51.2295893773244,-62.5660325347656,-66.5108026037725,-88.9617992041819,-86.7978577631002,-104.058793751079,-131.49067080881,-125.022963116718,820.946062868511,78.7041054855126,488.536783732338,133.369234154687,146.158266982676,479.116255973856,-100.432446638098,566.138614840023,538.094791042361,-135.250939602993,-240.632841158448,359.973145704224,-206.908996698151,-80.2024232691832,31.3083583140062,-256.309592534636,-362.485644679336,-197.9634413197,-333.184641074554
-186.316161014287,-336.328607710616,-67.6632346870709,-201.911020731083,-389.049415079131,-68.2333808897175,-109.370904722805,-263.310708783645,-184.349186020101,-206.735397506984,-242.601389625241,-313.174313112513,-223.261218631805,-275.962547691043,-387.39241901872,-275.986124689922,-337.592029291937,-125.377800963968,-340.36534854786,-92.5765258469033,-34.2561595366723,-42.89204481488,-36.8232187394967,42.9432179582277,-52.2065112822408,-47.0977254707111,-22.1844999152503,-56.455804452599,-25.2347566589724,-54.4687944550723,-69.4646265229335,-90.6592328355824,-127.460314746254,-45.5726371871831,-84.5396751756076,-105.496500098317,-148.864097010435,-168.80416552947,-74.659407540448,-105.44746527199,-158.93506674656,-188.189479899602,-163.061863350613,-209.34112410111,-230.283442625352,847.745315402247,-52.4173965574644,527.488264037476,86.9250254454543,53.5304800696454,477.202779153764,-89.6467947309789,302.377543439529,467.375880388355,67.5583231462154,-270.520932070256,199.072638930393,26.557801009445,-202.713520719482,100.542475035851,32.3369375556583,-394.643876757505,-232.376809848333,-321.581089750347
-265.919642728283,-313.943688061257,-217.363268760374,-273.295667656119,-329.626397234203,-240.821157170188,-248.2406768157,-295.758870446386,-315.480673707017,-312.796588696794,-304.411373644258,-424.423355453741,-354.931733454864,-429.33489524615,-445.261405893118,-413.234234193141,-406.444835849273,-293.60415038151,-523.603003971215,-132.284025917703,-145.775591762763,-37.4923065525002,-57.7435667873692,-109.167170713173,-1.52250339864395,-80.253799357374,19.5522158879092,-46.0804171283525,-94.9738910860994,-35.1134831283916,-78.7872742242174,-143.758703138681,-204.609127730013,-24.3687237145349,-79.5120225884294,-130.855546579434,-196.799172276972,-231.014378967905,-63.1186720728279,-109.557782500847,-191.734712629147,-234.027089641307,-187.370871946935,-242.793676094292,-282.02804098795,678.235244883586,-34.2935943171991,336.064528469555,112.992868629186,38.3601860317597,450.980563456129,-23.9823667306545,167.629346617852,476.313346939644,301.332737346431,-223.692702377115,154.861163549816,273.241280704472,-293.604396887914,234.082356820753,329.863057279657,-320.032503065029,-271.722724326139,-218.500110986591
-309.479890159968,-244.998789358101,-312.2310151293,-268.721474125522,-176.25784745975,-331.019514661713,-309.84194544965,-256.970118430248,-366.627747722588,-359.694462156882,-262.041372529466,-460.358720296964,-423.846004872793,-461.641666274643,-507.66498189987,-456.979818327132,-412.355087907749,-437.761859572467,-640.97099711427,-137.950823278656,-177.888565894274,-56.0046380171457,-30.1413117467585,-167.76909892777,47.4278088740199,-61.0124952566675,74.8095431762336,3.2903986948806,-86.5788972808358,20.2996316991663,-38.1008018130848,-102.955755054727,-177.628668072976,21.8774742608078,-27.0117484242869,-85.9596237391612,-152.058321122166,-179.069732991725,-16.6454680246938,-59.7770222488136,-142.824001927956,-178.290573109548,-149.150735299146,-194.536301316653,-227.500129574812,531.06355852601,111.1581329956,102.199437772687,292.423888207312,28.2127672154852,422.944857348316,22.9244894775182,91.3344904804781,594.788370184814,463.117823998158,-202.898120030356,154.626344203965,390.976395036822,-366.25087195207,279.682608975649,438.159617612957,-179.566276534625,-337.282023416365,-123.451205176155
-171.969363612594,-76.5091476146446,-187.039870510903,-73.3574371580199,109.397734892752,-212.427537828257,-130.912712272426,-21.4059601691996,-196.503432080469,-167.233922435517,-20.7018890696936,-302.141484079636,-247.839652632136,-214.257557524605,-466.28538240115,-329.378587732701,-250.758027344555,-514.140388170477,-563.104134653161,-54.0734755210875,-105.436761200999,-57.3187323448906,68.8905834904638,-67.2560931512495,94.1449877932767,35.9491694732343,134.423268873707,81.0926389179972,10.8749483244696,100.405748426586,50.7693812620366,16.4099669371409,-45.62108359706,81.4807324495819,59.788455784424,18.5010532054418,-24.2081356385273,-31.742137463002,48.944197841533,24.4458436323492,-29.9620899030202,-42.4645582552182,-59.6131256293271,-79.1602011695646,-82.8673469974104,508.476733613904,189.107344477669,127.882072136938,541.449342792753,-95.5439617534089,400.760529228529,41.3001710830735,16.9140326459727,684.016175830351,545.742574521917,-240.468315446205,89.8587392167344,417.411951632032,-369.35685595264,198.015576156429,397.7345743735,25.1969754555547,-326.444421908734,-23.2673828919174
173.223623645646,212.273754384534,158.6987980997,303.658909367133,476.7151535278,104.182230480937,262.048037121924,387.978347144845,176.006334771448,265.764603605068,351.086975750038,27.5830955855724,170.865536937665,244.1768159213,-378.53352214454,-146.833080781102,-25.7453174482796,-632.641335268102,-414.985185482275,59.2260470414449,-97.621828443161,-12.0980607268002,166.201325546443,60.9253456511321,148.439705351,152.013055573787,183.288548761519,158.948314145196,133.471986831409,172.155516753832,147.756096519205,144.521288006562,115.669866178027,132.638373936707,140.401976233661,128.596461276911,119.135053140429,126.786808418485,101.330757716683,98.437269508985,82.3264253193856,99.4747951925953,31.1475732649519,38.7112923073835,69.672801137354,577.346598760512,151.743871440015,469.617408750072,759.170559761202,-236.27950305343,444.065414405861,146.263486150767,104.888694540915,671.205770729073,645.316088924431,-190.705325496326,61.4835053893629,509.371450962265,-182.251056682975,163.136362762115,416.09115251899,292.375824767722,-117.648147633204,172.997706306135
550.13545621267,499.570031355114,517.923706262585,661.056978572175,755.28870309095,419.554122195193,626.061843012046,727.562457239153,528.54140765562,670.371821261528,621.376188313146,332.436972113705,579.62348944483,608.632606409709,-313.704163899343,-45.574490838041,85.3315239896206,-782.423427208496,-340.220022252752,114.526765660759,-218.286650325647,54.942292206629,186.747832459658,86.5064697030934,193.173945722047,212.809912378589,200.446028654408,208.184026901546,205.406510685369,205.714000276914,202.096553565978,213.914207731946,205.760603863914,156.884704172358,173.342773435868,185.315774283927,190.830700512883,201.460265247826,119.193104612363,127.120917240855,131.260235639054,165.681056179344,69.0950862231834,89.0450107359697,137.195180675565,645.540399751464,158.607682107316,814.926127267631,902.642643446301,-138.223008511537,568.290486494627,395.887236726046,435.704441245346,631.621291333367,803.090308890044,47.4193779323568,228.031722301586,691.146643640279,195.072279496971,315.080378786327,564.829726951906,532.757288161993,247.030929409087,452.060445124771
759.048429216963,631.809887385952,695.072073424103,794.95623805182,815.686957878146,554.624905548879,755.79170067933,797.628880292394,665.597407031987,801.002599573393,645.802081706458,455.881691802966,742.400199719055,668.725692171238,-213.286942832698,-18.9814509416247,78.9048653876035,-774.297912744891,-300.479222538962,112.159161939385,-316.116544790381,102.96743722469,152.182750369476,53.5151857247939,194.938943603922,212.205082732879,181.024699829079,210.395299329131,205.536199051805,191.22705856524,194.001765633535,202.810607809474,178.370920688113,149.842760003273,151.989610312843,165.160667018654,155.016222453119,156.035914491483,102.680250420064,106.57534633371,99.0508539820309,124.702098971608,37.558200826966,49.2600559622563,89.7565882326616,650.88964837167,258.948713807991,887.063148207314,922.265610394812,226.109102205362,668.76754592122,654.232389517588,753.536373682086,638.382245028011,922.003018198703,342.923528448713,531.257527764009,804.414772464385,564.998712239707,560.082911025876,710.580184323137,621.735821718278,583.86414659043,665.092380644745
758.329272268848,606.430176611167,683.804979781011,725.432680495079,717.736306074756,522.629937264273,698.455072262306,692.021602200713,623.056542701206,725.387676636107,533.542675966703,438.749402847599,703.529746057823,544.908837183857,-34.1258327833003,26.8752382969344,61.3100482669688,-539.461560512167,-176.256281710267,84.4597407948941,-259.787961422978,110.001016318827,119.381832324244,75.095943784196,140.103280277944,187.952269559658,134.114635613824,163.648575905854,163.559398219378,136.659742528043,141.10185809752,136.357812426112,73.5014901480623,114.338640527582,100.183538515503,94.6448304175068,57.72823352006,36.3988407986046,61.812974664995,52.7861783859849,18.4978831158515,18.4684731323788,-38.67406257424,-46.3556817688177,-25.2633511579958,562.549612642731,268.423620567973,681.191954160104,754.179792517883,517.620837432259,601.779563900921,727.470871941179,739.79983280557,630.384440851943,876.335988181612,486.862378413621,731.271205901171,722.998704024264,709.647289466724,697.963680577604,726.062687944532,536.067475088038,740.916726927175,687.694667060275
