84.5308466138965,86.4157539997981,83.660889358865,81.7034855350441,84.6033430518158,79.8185781491424,82.428449914237,98.957637759836,74.8888203706304,79.0936137699495,84.0958679863808,70.82901984715,72.568934357213,75.4687918739848,60.6070221005296,66.6967228857502,64.2318439964942,55.6772643220176,67.7841694545397,53.6473640602774,49.0800884713619,56.9822002045649,39.5830551039344,56.5472215770491,64.66682262401,44.657805758285,73.5838844880831,61.1144971659646,61.6219722313997,64.5943261860908,87.358207692749,73.0039129847288,84.9658252414123,75.1788061223076,74.5988346189533,84.9658252414123,86.5607468756368,69.3065946508448,73.1489058605674,84.0958679863808,92.6504476608574,80.4710460904161,96.0577802430642,82.8634285417528,74.4538417431147,90.7655402749558,91.4905046541487,90.4030580853593,91.6354975299873,90.1130723336822,90.0405758957628,88.0831720719419,89.5331008303278,90.5480509611979,88.8081364511348,95.0428301121941,90.33056164744,80.6885354041739,91.2730153403908,85.6182931826859,90.1130723336822,96.7102481843379,88.8806328890541,89.6055972682471
407.1866395868,415.043035564186,404.65363389202,394.495840146729,406.87816558961,383.014622273378,396.340857953341,475.061462956099,359.550537637768,379.937165022137,403.672747163912,340.141883893243,348.252745675412,361.940007000841,290.116312581138,318.649321694571,309.055924295385,267.159703010963,325.839131117566,260.935205158826,239.771061746989,280.383748482641,198.912648471345,276.434877432237,318.587021065575,219.802381288754,358.578390174451,293.90170251019,284.130258548335,312.443312087947,413.280263176215,349.084269895287,408.090660244593,357.954159459412,358.392051175191,402.000959459373,415.513534138596,333.135500381243,349.409775593858,401.280364712575,439.479267663113,383.863178194633,459.054315617254,390.865192074237,354.804205770252,435.102700705853,436.51273988495,432.947752357919,437.99818859023,430.049351385279,432.532718520048,421.504967519725,430.052264473543,435.013172566553,425.307389150158,453.803421772566,433.473715668867,386.925060288624,438.525608445309,411.911570120539,431.499280143665,462.8752254932,427.028815414709,429.526301162595
806.889462159606,818.302042428594,807.483262191505,784.238228010447,804.743212450437,755.770943413113,784.209915292633,936.072275693837,710.494170589387,750.531330584857,796.196315938325,673.442392193744,687.355005722732,712.819441711601,574.576836625473,627.692538417945,615.310718013429,534.317893175429,649.539905404318,534.696095744961,498.369682170216,584.489844176396,435.741627432888,569.340351839276,665.647316595309,455.693641405091,726.576797185523,584.135770180193,518.493370503367,629.565979299503,785.405377885434,678.360717972666,812.883448813321,694.461983436671,709.684773095118,774.708413456621,822.504288315801,663.23033503703,685.064819240153,785.641976600675,847.496188656184,749.5945927113,897.715126108389,744.780679341849,692.575694998215,853.900253585759,851.15550926217,848.972718369233,856.403855594745,840.269948406555,852.808512876153,826.522997934879,847.701555804877,856.900519816559,834.767571576454,886.705207692856,853.238396479443,761.495539005044,864.566578498912,813.706198902849,846.642352222793,907.382441624071,842.470641615387,843.508374132585
877.30374408853,881.946285135474,888.487672858039,855.846929611273,873.69453247415,819.921824787981,853.369855595156,1006.97572471145,774.902302645714,813.500801118811,860.316753108419,737.293268178979,747.251602841125,768.371224659987,638.777513009904,688.715736652942,684.443498047144,612.93463624359,731.75350347671,639.721624434686,621.110426770419,711.658035675031,589.984879952098,685.595677985774,815.487167740969,548.302081045166,817.280159155961,647.292210618993,482.799443724609,709.908527322754,762.035793728962,692.596602028439,916.936543843782,721.219315437823,777.364029473945,806.977692486526,907.334395475521,749.494042420239,738.253208811161,846.607545145619,877.700789165159,803.045668571192,957.251467955763,751.091525620352,745.456596085688,910.698731521528,901.819919734492,907.088270700896,910.726670189604,896.379380080725,919.036440147631,884.944021513763,913.198214833927,920.058750244165,894.520749557034,943.078256972285,918.126507335933,821.762830064755,930.998060842481,879.187790746828,906.150673059422,969.082102018544,909.400450649454,902.358979267127
668.17746969967,665.544808815109,687.473626964372,653.424077166779,667.450151320767,631.47359675257,655.88955672642,753.610120040824,605.875662934791,619.369220108139,651.684913670422,575.913493181468,579.310513524598,580.897160009133,525.010578825524,554.974406481042,551.435954627389,540.002452274341,619.437234444708,593.798610448756,624.587110081877,650.359995440404,636.662918491409,648.436657144796,759.897897724123,512.123112275638,625.162272577553,527.458867737308,317.998796581289,550.388216234091,421.122723496374,450.695558686096,777.016684111413,494.170520501573,607.731869565954,589.315824012949,738.064466239633,662.251001992356,569.934054285306,660.13906444147,628.519731928031,624.3839487593,723.169813484495,513.265189709249,595.487246970827,675.449034376298,672.549694783253,681.117550035294,679.114310138641,677.678376859201,693.844507974139,667.790900663396,689.173363404723,689.497201354624,674.790864517955,702.840114478053,695.610621336931,631.381740961142,701.267131458239,667.1059406705,680.908863502949,724.788307898742,689.188870588151,675.59446794374
548.409299462183,550.488995343121,565.814433246822,536.680749186669,553.333072515389,534.335309764422,545.376808784153,611.569112574425,519.420534107068,511.394791684567,535.90407619915,485.511713598951,491.753886647979,479.229517356249,463.618600832216,494.036920437496,465.986114986546,506.686182773262,571.14531240013,570.98007616684,646.575701955396,570.174721852055,648.280527363104,658.556975783705,695.869885155091,532.647787492563,447.986708811099,490.318807892979,361.631885926875,391.681673535944,218.2590341622,353.630970023504,685.4822719204,347.116837934944,512.915774661662,492.521036042966,654.15280599972,689.722818835782,493.254083840087,584.428610146619,519.900714771051,560.371147074407,618.712327765282,422.771607294041,566.604085326433,559.258247863789,572.434457848588,574.235853288372,570.808530173192,578.523263054131,576.668367978072,563.39293094108,572.164190115298,572.498508514781,567.601381811886,585.752713360868,583.813299722226,544.407597408024,580.741084611859,560.042460523004,570.089551640938,604.391220334143,575.018945041309,565.169022618738
529.770748316261,537.923955189395,539.558375187494,520.293152158349,535.080780683446,522.31410484393,522.746071049376,588.455053671515,502.612308494066,495.426041263247,516.897971774025,464.261683705014,475.895908372723,464.362897473322,430.779423482463,484.87741226587,419.029730822739,478.390109143209,559.964704865804,544.143301033025,650.976088033272,474.37841387191,612.552343707662,695.466999436456,618.648608886917,621.560384275044,361.266151326087,531.348917255594,535.539608366946,318.909266652137,234.768708939132,448.327722912054,570.324713397118,294.021658509011,501.663905237291,479.871841928777,576.830400696211,778.152098570403,498.481675485729,593.927281673635,514.363062752625,575.559461811369,614.450997324554,449.94027667797,616.075688114735,563.906428214287,581.923688128803,575.868461116256,574.776284322287,580.640354276869,570.711282641051,563.86594751763,565.283599898753,570.459084423859,565.213516800315,582.921487199876,576.085840817702,547.175269580057,573.261296628693,561.042581612518,568.091311212909,602.907382284722,569.242682979375,566.817982325976
431.14000048914,433.181742002201,431.457570802075,423.175854883551,428.391655575586,417.196378282657,411.515252820201,468.088011512928,396.000085362565,399.01271403419,411.104687790628,364.875654653894,374.78100960637,371.798255339996,318.733660212089,394.939975657261,304.20761824806,368.920648595548,461.227356446054,427.525466250816,576.523712012344,322.301879929953,519.516530910824,644.279988810749,463.579164701441,666.339762460259,273.068701348475,500.677011206667,581.57536183158,316.871628004064,279.535748858461,461.949491252363,320.57400703541,205.780751665207,432.546082704113,355.325021821792,302.484854673789,723.176602528939,432.099660543244,500.897153113692,367.978941240595,493.281228529299,474.511103204987,385.508998558028,554.979413980966,472.602627597494,482.030393558718,472.381485462257,474.526827601637,476.148626162041,469.139691857202,467.463905653593,464.979500552511,468.602073033832,464.562612287984,478.021801163348,467.020830641166,446.398977912067,472.1356907852,469.076318402297,467.227925486361,496.779412461402,468.321214872797,466.909525927141
286.557034653425,280.148059261015,278.512692257319,275.003931644451,274.864787670278,267.373894684262,255.881090223745,294.194691165056,257.055032235496,256.491824032139,258.06533681594,232.862210829476,236.645190484005,240.337085734127,199.476208065367,278.795898955414,194.473171319009,255.546681938277,338.863681632876,292.52211399827,485.438466071432,201.991756147417,439.849504325057,532.062455031159,323.742357480346,656.289737579906,209.700793082682,442.086574690548,520.560128257494,398.433854234632,301.760161827759,318.097386888441,120.585648253083,170.727173854343,350.989433359623,192.295187574669,-6.99461882799937,532.935567447312,345.059705538968,361.384362048402,138.457077148972,379.090104177208,253.72716390395,286.325610811514,427.493839254542,316.663869108205,322.740831176136,311.992457971714,313.483020065863,315.580697282102,308.998755411545,317.07465485683,308.176984419366,305.782555255889,310.177922561341,315.041249881025,306.400660720453,287.810420241495,314.991733312403,316.881697259487,309.002391534301,328.683153993495,310.235548310225,307.146216189963
197.518144831186,191.377754076858,189.061536707923,182.162517279354,183.068188751867,190.053322411433,164.762134637102,188.35847964862,191.223952662186,171.957479775917,168.203958130978,171.944963382943,166.758230112901,165.749995466055,163.408370278435,226.191468005174,178.380505119346,214.74980733317,273.632374510529,230.947063042828,423.110460003618,178.894429538474,422.961875849242,426.810134495023,275.064850971636,643.849456500269,247.539914695614,468.815064843225,486.24953499387,509.141948516827,330.933010361577,166.157773469135,72.1641630675954,292.015496987755,358.471788182245,114.591581862298,-119.316110616301,297.652630765964,334.562336943222,283.830485145345,-7.84671061852502,298.958118914852,94.0808147641595,258.586811749372,320.061182605846,214.283473132324,224.555346666048,218.585525291045,212.608550109943,217.926612324419,209.39335389559,225.462513000269,209.641792882175,206.956759934559,215.019392589436,211.904374080041,212.699932104063,193.453496553311,215.828837037987,217.953069980822,210.085405741557,223.664416574904,212.518795519568,212.418622607327
131.901774283812,125.329705760355,131.835810806461,119.117311288562,117.331779697842,152.433832391214,108.960272558155,114.88129052835,159.500566465924,121.687335163442,110.129883799515,155.428379662743,135.69865139816,113.479345911822,164.355723207816,204.365101343431,198.297465291407,202.372608659821,218.821566695747,213.175425892082,353.976379642452,186.210675345428,435.964928811873,316.262967512671,244.532700557926,604.124763978095,331.18388702489,509.091177486865,442.970492976046,501.51996962219,322.666408475903,74.8468881501846,15.804369634345,448.781049704,395.19579502201,70.2083392357173,-97.8513245843354,28.3287258976488,345.856749012971,210.986482698591,-71.7719544842033,161.583028947425,-19.4720718062766,227.963808161031,178.337630307987,132.668384411367,143.367147986515,145.801933791693,133.994968276786,141.664685536746,136.187686663665,149.80781156268,134.247353972075,136.297106153931,137.961965858744,128.292598151237,141.157733555243,127.558721509479,139.89304771038,143.920331869365,132.929671653358,143.469796212179,141.455865927347,143.197375884349
48.2736766591509,31.8091377463563,54.6542896881319,38.7631399595397,28.3234814911252,90.9605584375543,40.1253496819183,26.1586443052524,107.327794075701,59.1653897131897,31.4470510077116,123.349609718506,91.3082483177584,38.7774189893683,142.000673394935,165.835103058197,180.555206365272,173.678692225926,127.560133338389,184.115563567307,264.506990091691,151.409243429551,432.625556161466,175.584922049849,180.997182520119,484.372438388007,351.1236243148,440.841933554876,317.043123457507,324.452407495301,232.101384606215,13.06851449723,-132.897945649438,485.843646744163,328.671435512272,2.40997001610875,-95.5821533284888,-238.864893368181,292.787783490764,64.8933269525853,-96.826649737897,-34.8891895236849,-113.451465836799,136.207718950302,-17.7513336646823,19.2532011406649,26.9071077616748,31.5108469249454,22.5908910170785,31.9107216445473,32.0289481164167,34.9483244794365,30.4251233798981,32.541334295166,28.1797850544945,11.5917623535139,36.008655459255,27.0127014405862,37.048280828314,45.9982865214595,23.2393425171855,30.1901745706917,40.6168388082026,35.3806073979592
-23.8240815065883,-48.7674719980048,-18.9619485134056,-33.3072764853654,-51.8795283489736,21.6504914624304,-22.7657242617507,-47.0677859593521,52.2243415251056,1.17699881496353,-41.3238527616502,81.1976950889599,51.6869794129002,-29.6956186511746,110.424676118867,126.580758866261,135.890231115512,145.469846300667,24.2951854008179,146.998257720267,176.797890166194,99.646351351309,398.410973832649,20.1424059420798,147.431751042124,308.925617603059,307.728915161311,311.471150323444,156.610124541568,140.455755388556,95.1985800573636,-26.3220276345521,-273.315822310813,405.29573435441,158.11692109371,-49.4872081172337,-113.621888379393,-410.149596575624,186.960726226036,-112.492322890033,-72.8748475212282,-167.366924015727,-154.938299094778,51.6650826965868,-173.950843808665,-83.9458040440937,-80.116856821081,-77.0103079000351,-83.6668279188516,-70.6379444483499,-69.6116224047198,-73.9492387625131,-64.2530388589349,-69.333879954038,-72.7182023417147,-95.5296367395562,-61.2827198503663,-69.9764968793662,-61.1429664497388,-45.937109375516,-80.6365028640803,-77.4802322931067,-58.0813663667469,-71.9268991036399
-90.1094414489721,-108.547463387796,-85.2994675287834,-93.2509627934281,-115.219385760202,-46.2367085892136,-83.282939705693,-111.060598085778,-7.68216980602607,-54.8348912256168,-101.309128856263,31.9912866827714,13.8521644711685,-86.1910417284051,73.5457917904058,84.6308520119703,65.7316634541577,115.266102977444,-80.442503972836,97.9625846073399,76.2391753687041,55.4096692421658,319.227085546202,-143.704097595687,147.994360936518,133.000497118055,240.179861356792,208.001963293755,13.9630197879371,98.9814361000046,-32.7285905120822,-72.4167268553894,-359.405951775632,257.022071539322,-10.5675837753187,-89.278876842813,-131.162185133184,-477.141422998077,63.286511510524,-245.641493077909,-53.5450178503919,-225.559737967556,-177.521558423624,-10.6231485201045,-257.759683301645,-151.787626066216,-157.215093387176,-150.683952398607,-161.752719445006,-145.611178805168,-147.754509396844,-149.823182445336,-134.194096787338,-144.898407281674,-146.817135880661,-171.114099568144,-133.029203784368,-136.248060716595,-142.377735984075,-119.040034937526,-155.279227413898,-157.686756940335,-133.073931890072,-148.274570602664
-183.088120288126,-188.277601371587,-174.078514774559,-174.081931050267,-194.104616428347,-134.788384136917,-169.247242015737,-204.293558560411,-98.6476709519739,-137.277818209733,-180.939140529852,-50.9249866577488,-61.9273303493347,-160.1769864671,14.6503125586154,1.97132203962277,-50.8726653871888,61.1997777094817,-198.747610905684,22.4157299244929,-55.7754857644359,-20.7481568382393,184.855323897983,-308.709205602319,95.3295145618462,-24.825319814741,146.212995793977,106.390109132565,-122.626227686081,130.00594485735,-123.727624147938,-168.56607587252,-432.336963627854,76.8708105323779,-124.60147364363,-166.269414458689,-183.918824331601,-516.166478385644,-64.3617803614376,-316.971175098771,-106.440269690562,-284.030466181729,-234.841825730916,-108.2268551075,-331.83042360425,-216.727287974885,-235.19565409667,-222.070765187567,-235.889236684163,-225.315947247045,-226.324873936292,-223.440157842112,-210.646303006058,-220.601872053244,-225.706012094765,-246.559651403172,-214.020366222265,-209.72901235266,-227.859620952731,-198.018209773296,-227.756049972916,-239.648211290122,-210.117942490029,-222.54774441915
-285.407410666215,-288.988488978652,-281.50670296418,-273.462020978959,-289.517539831953,-241.526736873453,-270.32847279738,-313.666862110043,-209.907057385983,-239.417881866402,-278.552290736471,-168.157519978426,-173.674934655967,-248.723127247355,-43.7867288167507,-132.395006984139,-165.045201754984,-14.3275363638378,-315.40446013042,-56.8320360647422,-202.314974674756,-128.003092766838,-4.54473071506021,-440.87871829618,-21.1014709781544,-173.955522521302,49.767397634129,-33.4673517104579,-256.25218592425,95.9970028737749,-176.517887872861,-282.534379156993,-480.878896271976,-65.0043774765232,-221.909581848962,-261.987371087249,-255.015987503709,-550.788785856514,-166.560835163248,-357.789155432339,-187.205029430419,-333.758297579602,-292.852946888316,-224.964157579107,-414.775245419634,-293.328512460933,-322.081916184312,-303.389829108372,-315.705686259124,-315.698918622163,-310.673568919991,-306.687261255345,-298.912410914119,-307.765546557123,-313.813331859028,-332.832800163389,-310.24712712942,-307.367426698833,-315.646767598155,-285.934431049574,-311.360347270984,-331.442260319582,-302.937309186087,-312.029469258992
-370.1286489839,-382.81196854257,-382.415430055472,-364.431862776465,-377.440291934856,-344.477132842746,-360.903309245136,-403.417188145859,-313.220187230007,-332.695789753251,-363.58141985209,-281.06668546631,-281.353904012827,-325.723699381389,-76.8490184749273,-298.500720899332,-211.081950711454,-118.787180195992,-416.120767626399,-132.33783720258,-353.97285158087,-210.006291936974,-242.256551462146,-529.697417998267,-138.848403496506,-325.917919570436,-17.8117977600779,-184.076469600389,-377.731651043906,-7.25429999688682,-217.4682069279,-353.178547709266,-471.087517508176,-123.810612243597,-341.42613764656,-331.929938669374,-290.133760971679,-539.304103324281,-226.662543642866,-402.52956842533,-242.08870055092,-344.756828470728,-314.713227182372,-299.062014742529,-461.011344512504,-367.972495309877,-404.175059787858,-383.089312146261,-393.099478375429,-394.95637403655,-391.220816739563,-384.139961391878,-384.576562255314,-395.968015404068,-394.250245223921,-416.18852605819,-400.248850306071,-399.43284478538,-398.390674808265,-371.159994625164,-397.265775511703,-419.163827007025,-398.724518106471,-401.746674059279
-438.677715370457,-457.596266210579,-459.171858222267,-433.750095829286,-443.335158134204,-423.267335065371,-428.75948513229,-462.025955279634,-391.054766384522,-399.224730116419,-419.542033045207,-352.684356540062,-357.859373502306,-379.844034566821,-104.128042282778,-459.746054721983,-213.699196770649,-258.89710507457,-510.437062656696,-234.422356656656,-501.307083150154,-256.953290505316,-469.427040469572,-589.262053114156,-235.332162970202,-467.329434444518,-71.120474080568,-296.90148908232,-483.355068526499,-91.9803994332795,-255.877302661013,-373.434977844065,-426.705983414415,-131.561338653634,-459.371440986919,-378.367673269831,-293.799052434347,-470.612380083911,-265.000333162984,-449.904607828898,-299.383493537966,-358.334756224393,-335.390461923479,-326.703800994669,-451.834638095321,-438.217286665825,-475.035964746918,-460.674471149915,-464.344573369715,-458.89255627073,-468.585257513375,-450.239403534294,-464.77964330722,-478.318537273701,-466.593788147227,-490.492113352518,-477.124357393683,-463.604628236997,-478.082710709236,-449.586191165876,-476.481526096287,-495.96645811155,-480.395886560941,-475.800580463708
-494.233866055374,-514.028804653183,-504.704271553588,-480.828289131091,-489.822396399367,-465.275469245575,-469.67250808006,-491.20185983017,-433.938615216764,-437.610335455728,-454.298590908482,-378.206381138412,-400.156776525326,-416.255607008678,-144.636814978393,-552.565500105498,-219.30235501785,-371.857002674419,-591.581485927695,-341.989062479336,-599.241508409552,-292.822694845849,-593.031167257898,-602.69268275465,-312.498558910895,-560.342371318279,-115.946328141907,-358.814931856619,-547.708404245033,-119.55461325398,-261.688016789256,-368.389847341599,-398.758049014436,-134.822796688685,-532.887310907911,-404.868903225789,-303.472189321235,-396.708145133475,-297.416814828728,-473.439539637009,-379.768444708313,-412.990958320109,-393.790192241193,-342.111636889117,-431.256744650394,-519.531954728353,-540.069052698653,-541.624166901226,-535.431611209499,-522.874218807653,-547.56457538673,-518.804781579342,-544.444933018239,-555.265733082417,-540.109661203127,-562.222915581671,-548.171561044285,-514.257899700157,-552.237864312935,-522.094204350713,-548.467120064084,-565.24658864269,-546.141172010306,-537.252512568089
-518.975789558362,-538.376382692521,-515.946958374359,-497.829660790561,-513.537567013591,-466.564403819077,-477.216186885682,-482.751835667541,-434.916153697743,-446.389540161612,-468.156678523523,-364.222323427528,-404.705724726425,-426.698327878554,-165.562630707476,-521.617971184629,-201.151159033928,-368.083799452195,-608.839928250474,-377.484043390661,-606.248816428826,-309.805829885755,-589.123066320434,-537.045845587604,-359.891882998332,-587.267642952051,-133.01593012514,-390.708416063011,-537.028265987081,-133.841387525575,-210.577557942227,-335.817757084309,-401.502320611856,-141.806766705059,-549.19215660524,-378.493898611023,-313.14701015635,-346.656966610921,-313.393074654721,-449.98460525039,-430.441671290943,-465.989619750075,-458.108495121385,-346.442541465754,-427.846344245145,-594.189331123944,-588.01178721848,-601.923460638619,-590.992061591823,-574.872705876411,-605.405901255034,-577.559839287322,-602.569476224294,-607.711297027241,-594.376496927988,-614.290536582991,-597.086739835361,-553.015039532825,-597.946680589954,-571.375530768139,-595.970826503151,-613.389067730837,-586.255790018295,-577.177725555166
-483.388565005689,-497.491550499083,-479.016616095587,-461.915802197102,-481.231016884637,-424.563162727553,-435.16325621723,-427.070621889864,-385.620270485147,-405.790208600249,-427.18515237447,-307.258770014011,-354.965670542218,-376.984795923558,-124.421263454762,-380.78089376434,-128.670058022437,-253.639029968455,-501.842355717572,-323.847638987066,-525.600464383169,-296.95156735819,-523.232618744928,-404.603554241959,-402.65775897651,-581.736219284827,-152.791262926829,-436.700306246448,-454.272635075523,-216.981050889321,-112.561177304425,-241.762340874625,-389.348490699998,-157.396980783751,-517.018915949412,-280.719436901862,-298.900710828477,-259.196512062732,-313.063112814901,-374.633150303837,-389.22886102284,-439.065359796259,-455.257291824264,-305.410900472709,-382.064447368671,-591.986867649551,-568.038231866909,-584.081764225181,-574.417177373384,-559.318961707599,-585.127534362215,-562.6107002899,-582.957617393022,-585.159026494529,-572.36800953634,-588.979790629439,-574.693530332966,-531.625216338747,-572.08989950726,-550.550837156597,-568.109010816991,-589.974072163478,-560.236949823443,-549.704051198916
-375.306551537939,-375.808886776509,-377.598675138946,-356.309389709172,-362.517941275229,-334.249814652846,-329.324617425157,-327.653591175032,-280.90418200882,-295.13560640846,-301.726661700343,-204.392598364729,-237.8623427502,-245.577160090038,-20.8761261606104,-187.071345541574,-25.880297963301,-109.575253969367,-272.029890376903,-233.639614600025,-379.583013635658,-261.767390083885,-463.998710942264,-255.053558966263,-502.573357709091,-594.605982813684,-277.859743175854,-546.312121962655,-318.573924601897,-416.792802321105,0.135201422916314,-65.8362656546608,-274.865561952113,-209.321475800921,-451.928827701124,-134.315250939108,-271.6192337891,-53.1836089868227,-317.670140828539,-262.921419195256,-260.00341261097,-299.968699219856,-363.878474179319,-198.04610356154,-215.280598533888,-477.188552568069,-446.820482645901,-462.665579382325,-451.83378930555,-441.708306435991,-461.130096204325,-435.675121255464,-460.973390167918,-462.837414482933,-444.307112610462,-455.774924640783,-458.270220700197,-411.080669245793,-459.39051662805,-432.576352269675,-438.162933039972,-463.467716103498,-446.981002526408,-425.835963148553
-220.149445481531,-207.251704957264,-228.435490418448,-200.955945025017,-186.432981136332,-204.256026366123,-176.883306294204,-199.002125269964,-138.130681873932,-134.690891593938,-123.333311686443,-72.6344734492605,-75.5459812798239,-66.2300065545182,112.199828079584,8.89220875397233,70.6810389315877,22.1668390240336,-19.6763502153853,-130.905576967982,-199.420541501858,-205.307866926889,-420.057914441166,-117.37384165777,-635.149610839572,-611.68144714188,-576.613003661216,-668.707115593735,-119.232072542908,-641.405041976396,97.5074361356642,164.451854560032,2.04615748705884,-287.755249281139,-363.823481966314,35.7098059291505,-222.127477312736,253.324142341849,-321.828894448983,-134.863811459648,-101.043441677191,-79.2179375498368,-228.433327171122,-37.4292974570278,51.0582936916074,-302.083481084729,-264.309680298633,-282.72190146177,-265.937532060137,-258.976814037285,-283.382701203943,-245.471042943082,-288.55619557136,-283.714599526447,-254.247419351262,-263.604828030861,-291.031578628346,-223.457879645908,-302.213263943706,-259.760422047787,-253.509262145076,-277.551696360698,-287.015250504885,-244.634361550827
-87.4410357010681,-70.4622430869036,-102.143148958843,-67.691499368307,-45.3009299600065,-92.1614980593233,-48.3640050539745,-91.9719152228556,-22.3741012143983,-5.4333353913637,15.6879715245769,26.5876392996927,49.8326343321027,72.3089897513121,190.145169125461,134.051341521557,111.876163175378,110.795920104909,116.138953673621,-30.748815540852,-58.7964725767688,-144.37463166957,-376.103823409656,-8.9372628596654,-668.145853626098,-550.766911332409,-945.111140263612,-653.746731169774,124.283129259232,-745.052775427512,138.120789819565,360.743897284552,344.217828098461,-351.788298919382,-267.734392965116,183.597304640305,-113.250224988208,500.277882698013,-321.435986783213,-34.6409985274957,10.7399410605366,131.780062476956,-115.119080118439,118.653340162254,274.87457290459,-148.6081191179,-105.458484823235,-124.381940814836,-103.644363666852,-96.8415749620779,-134.142415066882,-84.9427574473033,-147.293759925636,-127.550649046029,-92.1948308881477,-103.810604923755,-148.199427282691,-58.1279040193427,-168.405354735238,-117.842182279786,-102.356711142058,-123.562943130197,-151.492985414466,-91.5105889484569
-47.0395088350585,-33.7402674541247,-70.3350126122948,-30.9234045073766,-16.9822057613388,-68.1899772782603,-19.5621275044772,-78.4363304335388,-4.8247659165194,13.6647243537477,38.793262828286,26.7881787299964,54.3112492659773,93.0431064725773,112.249588081034,124.07087719773,54.415457637066,91.1308295692854,92.1591138613358,-3.92716050780054,-30.5923444606076,-120.814998592622,-350.798460664907,28.8583510801733,-572.443033793033,-412.885865262262,-1147.35147534407,-503.418062618036,289.804243297226,-764.062434726651,41.1670309887005,413.745417866899,512.581335642246,-419.40792510967,-209.05241883639,217.696185670499,10.6243965948411,493.639081401834,-369.963924963798,-36.1983698261687,25.2075359123215,205.439312989346,-90.3923538285422,179.224350282048,300.647396474472,-66.4213477308266,-36.2400747993232,-48.8427917633113,-31.8716650165835,-28.457287322768,-63.7459873832457,-17.4136952013039,-82.3302206233611,-55.948945300434,-25.6317154292837,-39.5014415574235,-80.5582762700563,10.4666160778419,-104.024274175641,-62.0674588517677,-42.3113529522733,-66.0264750327645,-88.5860683520252,-32.0938839544111
-89.4686351718365,-82.7901316486234,-119.242014426618,-80.3700795521437,-79.413765440731,-118.779404085032,-78.0140460549877,-155.488547166315,-72.2272061341658,-56.8859733101257,-32.9364570890256,-53.5402650169601,-41.7513409537142,16.0903218598221,-88.4532223622477,20.7221871368172,-58.4669189818952,-31.2645614009182,12.5073345296723,-93.4308121388783,-92.2399587266974,-143.314289885212,-365.905877642662,-15.0703925840281,-492.555499738455,-322.402722101815,-1058.81532467346,-423.68933579277,267.843953163767,-818.901760575388,-208.864665474797,304.047466347792,404.505810230929,-525.095502755254,-221.765681003328,114.397501909026,55.6549306893985,203.290747758345,-481.851456898617,-147.874662845315,-16.4808525911221,96.9808064800188,-154.548815210654,113.180243362829,117.391924802202,-58.6496821017865,-54.6063874819115,-56.6205534668771,-50.1674779008312,-54.1887015531106,-67.5409965415229,-37.0200866129819,-84.7606641853262,-68.5680004872242,-47.3521274052473,-61.0392767219027,-83.70413363598,-11.2679319729104,-105.83594796517,-78.9775039141521,-59.920022250801,-91.7810655118746,-95.8468502323661,-58.4868869780565
-142.061272006106,-140.080043962832,-172.20195984108,-138.019308625243,-141.951641465835,-169.720136604336,-141.139754543524,-236.782153710324,-147.591726563071,-124.771956537012,-108.644255836775,-140.023242999584,-139.329386920049,-63.2325697797278,-262.47151615613,-89.3542473256751,-143.755204855977,-158.256408503909,-9.54834766805695,-230.751459598643,-158.822404021759,-180.819776974916,-390.781032437404,-72.4291186627471,-506.646571954766,-314.536907460497,-797.901566302877,-506.232272556688,128.875410518961,-846.109193335302,-441.232655856043,144.735845264644,183.127843324957,-631.370898566109,-269.971977798282,-6.85004541492039,26.1433809869968,-195.369464915703,-560.376314401164,-270.811801880475,-28.5717889632326,-83.3074038859729,-211.36908849431,-12.7308699798551,-129.097422380514,-96.0275534555915,-107.591059108087,-100.717122235813,-104.444495323143,-112.847174792074,-108.474921811577,-92.9723181061251,-120.443743321723,-113.236031316166,-100.466105499996,-113.869980385078,-120.541518972262,-62.4218732895459,-138.843006807632,-120.842695104852,-104.534084444197,-143.505422156418,-134.527848235179,-112.112578109437
-174.776589300405,-172.115600029856,-202.003303419497,-172.054767594681,-168.80931577134,-202.86833528601,-177.03835265091,-274.280533283921,-202.797658544377,-158.31558743359,-144.108775456011,-216.224039924849,-200.199583000779,-96.5642594359047,-366.456459502608,-204.527800957463,-213.321788208682,-247.711110276872,6.75831581316004,-336.142684450311,-201.251039517027,-236.083538861715,-388.751541603335,-79.9596232094864,-549.424943720531,-290.188397654887,-574.754470796127,-611.979478718376,28.2039220787641,-730.258843940327,-478.65042788744,51.1413004883422,18.3741281803179,-700.563828716505,-294.652650354067,-49.2574301376527,-14.4402723516134,-503.629385044934,-549.082036420026,-322.729022443242,-18.9567180305783,-213.034549391818,-209.630215874021,-158.6400244223,-318.708943358804,-153.54064200251,-165.56580619042,-154.030701369291,-161.275245763245,-168.396359268143,-162.562309011657,-155.09779722208,-169.519338449412,-159.43993475357,-154.409899214717,-170.133632072946,-170.448526434842,-112.146544986726,-183.023393544351,-164.482145087536,-155.063013982905,-196.502193193153,-176.097995433642,-161.59681525801
-231.682831150007,-228.912193365351,-259.247984746454,-230.498153060663,-220.514072112624,-267.999994461992,-236.064792995903,-322.449147311193,-279.457052657093,-217.869549212111,-191.905633397996,-322.639030099567,-280.703479420653,-137.153930787275,-499.454691717277,-355.869780285103,-352.567065755352,-360.989368692512,-36.1691331561906,-432.706618619408,-258.398636389287,-355.197924867662,-394.569354581937,-78.2066406602451,-596.982757226145,-241.339071580511,-494.71425978301,-622.577964337511,-35.9312721253992,-553.433251145557,-394.850837407524,-17.4868585951268,-122.202501037005,-769.676655707182,-303.00745368521,-98.7781484003108,-89.8764060669438,-662.809434198248,-537.386143902761,-347.881539089982,-102.000575638286,-320.760203183634,-242.873441455114,-385.188452054677,-461.753462154086,-240.475480460338,-252.072368285057,-239.071121291862,-245.558090448794,-252.105349263853,-246.24303461212,-243.2080501064,-243.973370576743,-235.815649864858,-235.028292077556,-253.289476851788,-245.989632702908,-188.205046854057,-254.07766743571,-233.560967888345,-235.941913894081,-276.553337454652,-238.389789001135,-236.409894580636
-354.7986667606,-359.333693855104,-385.831078046934,-357.488192068305,-353.268546465307,-393.589560484144,-361.161051945598,-450.083316419319,-407.819911486405,-350.56283172047,-320.181507216926,-466.267934875608,-421.218537337257,-257.925166192128,-684.590966262184,-509.216906913892,-579.234453974287,-542.990451750445,-185.42670060687,-576.069389492003,-366.573704832259,-536.576861387604,-474.708952506061,-167.888852931088,-672.040039375849,-284.471792668207,-523.015719745656,-583.451281670413,-194.644293386015,-475.970066634294,-391.954490532752,-201.216379583153,-331.263371049147,-858.452396025806,-356.808244493033,-284.777247179309,-265.32906022301,-727.485116426123,-606.872270499264,-446.363041543332,-346.477737551326,-497.336958874227,-406.553315744974,-712.152453220865,-596.661203800501,-379.262056318633,-397.471277870737,-381.572388977726,-389.529537259182,-401.368410516367,-384.976437199741,-386.323159394886,-366.885446150699,-373.381181957145,-375.383009169236,-393.306473424029,-368.69477206935,-327.281284970877,-377.105756410452,-362.569359183277,-373.176164840679,-413.513360607631,-358.381660586807,-374.406191278898
-508.275656629523,-522.826553018933,-536.496794732347,-514.735037950982,-522.503319626103,-533.769610901973,-511.478889317388,-621.729002691647,-547.264555464389,-509.945493817468,-503.072604246647,-590.23520010324,-567.499440550031,-439.416353496348,-786.581107273504,-605.952065291241,-799.203732394235,-722.038436075559,-395.545055430338,-729.850636176814,-520.559787510265,-702.247424654975,-621.747389564376,-373.583912893435,-727.943507383397,-452.4524800427,-572.669685476706,-583.400874024537,-459.034008283527,-517.770508630598,-513.965811337584,-500.340352935281,-558.931520654028,-889.879050796623,-473.3667825031,-554.897673634815,-480.415224216802,-740.271865979011,-697.208667586752,-608.432178608003,-648.111155721152,-702.287497327192,-631.218894128034,-989.535328989523,-691.826127334404,-542.043499594376,-571.83850018786,-547.549518194352,-560.632675338962,-577.178731478476,-546.774899906777,-555.309464516334,-517.426733966793,-535.648602696899,-543.199045101509,-560.984824557621,-517.36215543189,-499.664269283441,-527.584780722369,-526.473508664604,-535.521001835266,-579.916060738921,-514.106990952846,-541.353941963804
-602.934117889773,-621.174939521065,-616.042472351883,-608.68288833699,-627.231581154513,-608.192240922764,-597.310926895626,-723.303010495999,-618.192349469773,-604.241337345328,-632.414645180391,-629.577052376933,-633.292919966515,-576.584936427874,-714.560196584222,-630.278517273484,-902.945962209063,-778.190403560937,-571.330735410337,-806.209996485489,-671.698780001737,-787.17167159176,-751.444597999415,-596.449599925586,-722.88110607767,-628.24234091188,-593.040754243149,-628.70332114541,-690.983000300362,-586.058520716605,-656.920110266129,-737.092139329632,-672.208188729434,-797.908461788965,-582.295896177034,-743.096772980062,-593.422156210658,-695.235949692102,-714.998667988474,-705.970669957931,-817.663866192627,-803.348320545464,-756.52124839766,-1054.16443348016,-696.122423983091,-648.571439488078,-686.687960638763,-656.797103576719,-670.983055841991,-684.440525067157,-648.002364641421,-667.250721001935,-619.993235422571,-638.686099363262,-650.933696261837,-670.933035990411,-617.727909210231,-612.314931425159,-624.132427801182,-636.465093665914,-640.7877501865,-690.511438165582,-616.570917592805,-644.204154492326
-622.015703782906,-637.049335296276,-616.522284793745,-621.965007446296,-648.545569577499,-609.296269572676,-607.929518480774,-731.049057485949,-615.351003984353,-624.660395574993,-669.868988979207,-604.97863852635,-628.731862868832,-628.878293763592,-593.532108989934,-633.452643704924,-888.944474022012,-737.504292309161,-671.845069353002,-815.41369168987,-778.583874751542,-807.531492185974,-818.074210737856,-742.117395116685,-710.827503346756,-720.895267038322,-597.480138680354,-675.163561587962,-824.087682232158,-625.851668319641,-784.811724138183,-822.464742100402,-662.17553149192,-657.368441221495,-620.422754516539,-813.772013739692,-596.857710730629,-619.877752873779,-669.830260123831,-689.749405058014,-814.294210572609,-789.756869801958,-737.826261484351,-968.016698121599,-648.071116750813,-678.405784740056,-711.088837256924,-691.310881761504,-693.719694329227,-704.275486276957,-669.635034097315,-697.679697855712,-650.420655825366,-664.484455542642,-678.650251090863,-696.824934423546,-647.75652491653,-637.886405292821,-642.021360245431,-662.159945723526,-668.48818804955,-716.376475298215,-636.702973118819,-664.245807950122
-671.587723084003,-686.323616836955,-659.714132734085,-668.572619957263,-694.821056055104,-645.885517014575,-657.345998448088,-776.741780183662,-655.691909606888,-679.099223668748,-725.316714552646,-639.489229657796,-674.109180341314,-696.990525699445,-632.3421319601,-710.324353242886,-879.420593907734,-777.401860838162,-767.877248164215,-871.635348412459,-869.831166053158,-842.184966001527,-874.871109943338,-842.634061099835,-765.764663923979,-787.275870310577,-651.383369073097,-743.666373771379,-937.550660367991,-676.434052690487,-984.874454589546,-874.992892823437,-665.484086264564,-618.090366451549,-650.336835137325,-878.716844076102,-622.426498008004,-596.253693674146,-645.998459121267,-673.864528652105,-789.611723200266,-787.044512294146,-688.163949789021,-930.193158953944,-653.769086243056,-726.644334980271,-740.142314059701,-741.07466573706,-727.733169567957,-740.876835575505,-712.827223556842,-738.485285777399,-702.853875542213,-711.240303231629,-728.145509438944,-738.541544262096,-702.802940185564,-677.118908389396,-686.203228518036,-703.581440617313,-717.671834230966,-758.889463981912,-679.908943189349,-711.092370414616
-832.277441488809,-853.797534727295,-829.888645869341,-833.005140773092,-852.069686129314,-804.914916392086,-828.376158482819,-961.517736086037,-825.871474859206,-843.074834595959,-893.864138773096,-810.729338551664,-838.175428535206,-865.830302143389,-864.415953427938,-888.869332317488,-978.202949976415,-962.027055169944,-926.635954476833,-1023.59738215314,-994.204570968257,-951.854461842393,-979.528747657901,-977.184859279193,-893.363098144169,-902.484344640652,-798.68793296161,-895.546869908151,-1089.31478549196,-779.372119834756,-1293.74624461182,-996.694158702447,-776.610051513633,-725.418090634304,-798.029732696741,-1005.07079664125,-738.851701570527,-653.118793447096,-702.293433387121,-762.219383997848,-865.241285370326,-853.346509705489,-719.979714320295,-997.968610705146,-731.158596105438,-872.086286746932,-863.483546200554,-880.465823808411,-863.941028439198,-874.113000420601,-862.305855297592,-870.748975136626,-856.223987778991,-860.316717276742,-875.921014485004,-885.5345853231,-859.808100635865,-811.539237588102,-849.8557389484,-851.095360606103,-868.341733764489,-912.997532115842,-836.635543417765,-867.773715162825
-1020.90277875837,-1043.62428807358,-1031.03809127906,-1022.0838818588,-1036.31700193071,-1003.98079138571,-1028.35148546914,-1181.08642619133,-1030.02650295898,-1030.29862109296,-1083.93127665348,-1030.00758736652,-1022.94344531296,-1046.31414224038,-1138.26607577346,-1075.30578054163,-1137.79869886199,-1153.45471140066,-1086.47505869179,-1181.94557940659,-1131.1355433601,-1097.02737954985,-1101.32416988077,-1136.90967062479,-1027.66942977607,-1022.06321420328,-950.241934760145,-1076.79193489962,-1212.72085138575,-869.096424472725,-1550.3854794231,-1110.27875640813,-947.936980038346,-862.581568094302,-1043.40556828803,-1135.08726216587,-887.197274329887,-725.439887157119,-803.31943019127,-897.211366237385,-986.662545695289,-910.446032143556,-809.22725471464,-1054.85073627422,-785.440586586469,-1046.31078171857,-1018.26043429041,-1046.32007038856,-1032.6703656203,-1033.351049649,-1044.9331847648,-1029.41942821449,-1036.5599739052,-1038.86249734845,-1039.67996613735,-1061.56625450852,-1040.51228286004,-966.939998417946,-1049.0948752072,-1031.00103899895,-1040.87043414151,-1101.50940788911,-1023.75677641776,-1048.14905452734
-1086.03654611212,-1094.98784706253,-1100.37752341525,-1078.82796843139,-1089.08846523306,-1085.76474135648,-1098.12850804722,-1244.20210982987,-1107.29704920257,-1089.08873289224,-1125.8429023393,-1154.68370777674,-1085.78554345886,-1077.56121122188,-1333.79324830642,-1166.07076889687,-1230.63164089195,-1239.84740439452,-1142.13323681019,-1246.40837572631,-1222.27959363505,-1170.77491015958,-1170.44882754405,-1252.49800841271,-1077.97480023386,-1062.9908609128,-924.214026430052,-1140.85459833919,-1210.40792181898,-837.989635190347,-1511.94844190862,-1096.74487928511,-1086.58135433253,-868.706141047136,-1180.06700761955,-1165.63084417437,-988.480595120166,-764.583411836908,-829.116462548443,-917.442532522994,-1027.79756628593,-893.936094943439,-819.668082190376,-1003.05948062713,-763.86763375377,-1104.49713252434,-1060.08687427509,-1101.76720062295,-1080.92562618564,-1080.84107679264,-1108.39648345138,-1074.56731075343,-1099.20791013609,-1098.77796243096,-1077.64514368729,-1109.00522139623,-1100.23164809672,-1006.51073108027,-1113.83712369001,-1088.64907714164,-1087.60224339179,-1157.98093015296,-1083.64390492244,-1097.07804211304
-990.357710242093,-981.648764809937,-1004.00925756943,-976.374265098586,-976.944427172708,-1013.74272170237,-1006.92110428838,-1112.10653756606,-1035.00878126218,-987.673490205178,-994.957019477288,-1139.30880252236,-1011.63864101672,-939.016906169929,-1414.2972893445,-1142.03038779958,-1193.23125668306,-1239.57331827851,-1091.14176398943,-1197.36239094719,-1242.22953648881,-1110.09822131759,-1151.07302708711,-1293.45404812138,-1002.82214602934,-1021.56747208474,-662.906459831798,-1045.32640218311,-1087.51542763217,-682.354308649323,-1145.91451903511,-980.319576277367,-1148.01553047286,-695.909217242979,-1063.21801795471,-1061.74409905373,-1026.32439291168,-800.480120199615,-708.273302546225,-753.405704126265,-961.815668441319,-846.438877622625,-689.991042928127,-879.871954895024,-728.276115314421,-992.043653073564,-945.031159451339,-996.270330358308,-965.424862139845,-975.081061135994,-1005.20591319903,-964.932745589513,-999.990147289258,-994.996768963474,-962.613865862405,-989.778388058308,-1002.50484830982,-903.222838278995,-1006.89746149102,-985.949294829695,-978.355242804079,-1040.57155048095,-984.7106674959,-984.494583481485
-831.563621541621,-815.093449834091,-845.778408460086,-819.796205612402,-809.022253468169,-880.191885185888,-856.158416835011,-923.513018468902,-908.045710961579,-834.649758387233,-822.040309732648,-1018.50106234515,-892.849549303466,-769.857781664125,-1325.58849130457,-1037.62554103958,-1042.6246070623,-1175.07578635992,-1013.97881595593,-1058.84356637743,-1201.25666372109,-940.128742034296,-1048.48246311591,-1282.2765003726,-851.352631842414,-960.130755420614,-324.168507012918,-901.028754138569,-969.882967585328,-503.37972285978,-723.264582544498,-908.70663863822,-1123.87167565972,-467.525304799488,-808.057041902469,-924.472236095089,-1039.6536785173,-873.443360962248,-550.22069509894,-566.96355954992,-901.563694370448,-841.077406284,-591.790003891437,-814.751668885557,-769.583995085623,-791.455070099075,-770.191491590596,-810.529923931645,-785.867770961852,-801.214257185678,-822.887819805049,-791.312799906167,-823.099523449258,-814.723781948781,-788.307630161949,-808.020236085028,-835.948660821338,-746.464246997161,-842.242661808834,-823.716420396192,-810.849764793285,-858.749344969847,-829.153769834146,-816.919375684278
-706.382904726963,-689.879130585744,-718.68110867664,-698.68702936309,-684.548229243041,-763.106098729874,-733.071452734324,-796.538851630769,-785.651974825559,-725.072856329482,-708.401919630156,-841.030423225499,-788.003092611112,-675.796234253642,-1067.69150365923,-897.467338811386,-834.657639443352,-1042.78868154793,-960.049454643917,-878.323672873867,-1129.55457251392,-737.897896438375,-909.940436726785,-1247.26892410762,-710.112065739088,-934.040711663373,-79.7641735930121,-821.831013651945,-962.973216608671,-411.208996416342,-522.241701695472,-972.35548588073,-1015.5050602675,-343.704948345649,-623.151523548224,-874.693690724675,-1030.82080735761,-982.95011179161,-519.50517512349,-557.667816479271,-925.767517117394,-892.076406139375,-704.752161214507,-871.601371938806,-902.994476522684,-614.356668902998,-639.060981063434,-644.870836027339,-641.856299370073,-655.501938997814,-655.090059370889,-649.860885906314,-662.256343249033,-655.136335196991,-641.980349596895,-659.124872930139,-686.139716344312,-612.894166635511,-709.403328123139,-689.930270461701,-670.175739456817,-711.027798718924,-699.928251265443,-683.048976393864
-607.922233609646,-590.740731159671,-609.670669615239,-598.805866472181,-593.43100787424,-647.967033444842,-623.965108605011,-697.901186057909,-650.795086364089,-634.228145415515,-625.39834569382,-647.243607375114,-670.670968616874,-610.019038835605,-775.956590745582,-756.442340299414,-636.714869883169,-880.69885351816,-912.614874275735,-717.062954713342,-1058.53874635944,-566.624348100283,-799.619290335346,-1184.9306530151,-614.94616800199,-939.762953040406,63.5533179364945,-801.107358186789,-1012.7544565659,-465.274020862571,-525.015335910875,-1086.42226897364,-840.071981122456,-332.464419468188,-537.581859402117,-866.043751036003,-917.869187280492,-1095.08956311266,-584.06501976831,-647.812336282438,-909.531797483407,-945.19111684017,-860.780962244041,-930.916363506463,-1040.56387077718,-495.854140976621,-553.321774956572,-522.717593793408,-537.220984064115,-551.107944146961,-521.165789250582,-548.204935634919,-534.590903614992,-535.084012665368,-530.711749925445,-545.942013676394,-556.93281155627,-503.619435101646,-590.144834910712,-577.874218138025,-554.736624001176,-594.342755516832,-584.581796150796,-572.969897952434
-482.440628454867,-465.578080153311,-466.854004382955,-470.038744917347,-480.438704138233,-493.563438880709,-481.748032279744,-551.177479307735,-492.023485221809,-504.422581726216,-516.765420412041,-463.10640981668,-515.188755389579,-502.07315326562,-564.565516282726,-622.30524468009,-484.992682207932,-738.279171754968,-841.828165574668,-591.242868345389,-987.620264168894,-438.675531571972,-735.064101391042,-1073.0994596459,-538.303041948896,-932.722542229271,129.019144285651,-761.124118841781,-1001.09928126399,-636.412950728436,-537.429124639257,-1094.4775335726,-643.286698362315,-345.814918304888,-455.804952076956,-779.501023114799,-678.662524919571,-1144.38887090601,-581.605866379309,-627.751672619804,-707.430653079121,-930.97792693371,-760.262798458357,-835.968581623403,-1064.67823460942,-408.68573793798,-461.759017172318,-420.04029463873,-434.974660449246,-450.281353167983,-404.463904583489,-447.333919682615,-414.551730767887,-423.607220994328,-423.30582333105,-435.899021609253,-420.870615337116,-395.571742341826,-447.739582738901,-451.609091590361,-433.946655340661,-470.448395811213,-446.421009521672,-449.809855709587
-334.665134656184,-324.380574608581,-308.065211076458,-325.169896492702,-346.801033715207,-325.992918711224,-328.200187133264,-381.577987645357,-347.379494482118,-361.779908337655,-400.423793471391,-317.634689921051,-366.247669170314,-386.990824706744,-421.982324169473,-490.594116352904,-376.45615278998,-623.559267672277,-738.97456944894,-469.863554912592,-880.745581807912,-342.513082056524,-680.020104857289,-910.437790750795,-449.762610535377,-886.745743822647,50.5570904687228,-669.973068067404,-923.237176105822,-795.948466117448,-484.534730035423,-962.164279595723,-479.858571452602,-381.019577214771,-362.348180260823,-638.02901318378,-446.341197489024,-1072.31592246296,-488.861999799604,-505.054481834106,-414.196844434246,-836.348476462353,-451.377141894409,-615.728542508005,-939.161459484255,-319.359003121762,-343.246545383922,-316.995659030615,-320.96916491993,-332.332485476917,-292.29584834474,-329.747264904173,-289.29662713587,-301.901643630713,-306.904709327281,-315.767329770608,-283.830834649161,-282.469922449821,-296.954229573439,-313.690148680097,-306.651557898002,-335.898258099044,-296.831104724555,-316.752253114309
-228.3232332441,-223.613117663533,-209.319168822646,-227.770590497371,-249.896224908394,-223.088820179279,-237.60394324629,-278.491760510388,-267.114593579487,-282.234011307185,-330.100665797291,-251.821724351323,-294.619075182808,-334.327765419622,-334.974120267617,-385.020245560034,-320.800077303413,-529.564469048064,-617.018533165184,-354.957545061697,-724.257133776613,-275.094686966143,-609.316335743802,-723.815216939025,-361.656018099161,-807.852659015404,-161.153724948409,-557.877987390217,-843.977727254583,-806.20045473726,-425.049833225255,-801.474068313173,-374.114683619861,-487.648804982713,-299.462564820549,-543.923767839901,-348.016657528993,-917.956491768337,-413.52511112837,-424.620863711961,-235.935969935719,-717.55992559858,-232.637786824811,-432.11521418497,-750.568423302442,-217.348093197285,-219.819830654392,-212.268078664459,-209.151580434536,-215.04715459242,-186.548385527064,-213.63498317844,-173.992674482368,-188.922922505453,-199.158859184157,-197.256008009811,-177.868877059448,-177.882194589523,-178.181119099057,-201.125577663853,-194.792103653562,-218.976837449448,-180.240294925872,-205.650735650053
-199.725755647699,-189.768745803477,-197.214964589315,-208.452232318226,-222.406239043931,-209.05321393248,-236.813292259731,-267.238523561663,-264.212632874456,-286.889178414236,-322.180728978387,-269.006746790338,-311.471983139214,-346.939331823022,-337.705087733534,-346.229923142932,-343.302352905418,-453.206509794424,-509.753919778394,-280.881410616726,-563.905392068335,-227.303809586369,-534.294189979139,-536.273713724099,-295.913041953541,-695.920301993805,-347.712308822622,-456.591614738931,-745.229165091142,-630.870429147583,-367.508090813908,-696.411071636531,-302.691095917044,-617.496171115797,-246.240564297558,-488.719899144194,-347.939163345556,-784.974924739013,-384.751892498823,-410.093903168973,-217.677845487817,-629.601810177896,-226.465683217401,-374.004556927515,-614.489432499604,-122.388771158831,-129.42746057454,-123.598819714297,-127.323052373792,-133.653980005327,-104.24059850874,-130.587776354065,-91.4311934750232,-112.834442356508,-124.042268857341,-107.743592122528,-114.180558932632,-106.249264249662,-109.109684606679,-137.595159254005,-116.647782787751,-142.07892679504,-118.691748883604,-137.12972230707
-197.290731437729,-176.184407952657,-199.10294892452,-216.018044232702,-215.365686473217,-207.923201374821,-258.545982617538,-270.397690509516,-282.746332552425,-309.172928676983,-328.339188250195,-294.900664920722,-346.841529050013,-366.0210015331,-375.495595225007,-357.489571162921,-396.974640743275,-369.623007316475,-431.877762082008,-224.597770871043,-430.086904877409,-165.542141764352,-454.328384206438,-334.721964662735,-237.120721440727,-523.145029351518,-392.193991043312,-373.520100029434,-540.022561702642,-353.8155873776,-228.730461720489,-575.972539618772,-209.271127506111,-651.446697980943,-146.051269227969,-355.751682655605,-304.915724267705,-674.059963070165,-326.312303814467,-372.749989076251,-233.233751775638,-553.082256629979,-295.339480462048,-377.345564608675,-529.977345894279,-43.2999247745663,-74.5645024413604,-52.3460745757386,-72.2155264552665,-85.9122008846158,-38.2949642092146,-77.1281270565659,-26.2022876179592,-56.2005257334654,-68.9586607988334,-48.5895042495197,-58.6536639131983,-59.4645781934533,-53.1200467573376,-90.2284052291242,-58.0741878710245,-84.6525491529039,-75.7807735719857,-84.3745739247078
-143.697136623096,-117.096032287654,-136.117569644442,-174.21661034404,-159.983137950524,-141.720471462136,-218.382037004653,-209.182339959366,-243.192614072361,-275.714657795795,-282.038594578086,-249.44848611763,-328.074523887757,-342.622480713616,-316.888929661163,-344.826019142165,-349.610167440171,-259.178718823976,-349.212356770494,-138.304953024168,-283.628554262203,-64.7779891359399,-350.223008958368,-101.64572197191,-172.55377540085,-281.543224860948,-321.044937820128,-279.954979843649,-223.333001077358,-151.235830702626,28.1272954271962,-357.882047920313,-78.782664836869,-564.901661094975,-5.96226030779253,-105.222724242337,-144.508621956353,-493.804387307611,-202.68330411774,-256.66690300661,-172.30727191092,-426.188951638961,-266.182133930284,-320.146910337622,-398.425985464541,42.7772899945535,-16.7821283556606,25.9800626940284,-8.20410610788007,-30.7804668441912,44.0350769108117,-16.6410267718252,58.5263982127009,21.009051834648,-0.656761879868945,11.5133986391724,23.7348120770476,0.227849587743943,39.2493711526802,-10.7384412775515,14.5828389957933,-10.09794419702,2.00344634916139,-5.60872658239104
-30.991850913957,-9.65034744757083,-16.8119705788373,-71.505144821247,-54.9918470323301,-21.3477295754233,-110.434386830374,-93.7092698964063,-134.159894474168,-187.201932270625,-175.837749495067,-134.30894681626,-248.044317766662,-278.923828049672,-161.288774528301,-271.09905683914,-141.131787709878,-157.965334479352,-225.505518222343,-57.5385582114044,-95.2116625391458,52.8683045611176,-227.207522404364,130.936589334784,-119.661570089282,-16.1510164802823,-258.826799382351,-78.2292121473365,94.882273636665,-144.192636397259,328.106409445382,-126.08900711527,16.9060702384851,-443.693472429507,121.496877418681,129.317301363132,65.4059720013104,-226.909435667482,-63.7269627286444,-91.0858293348505,-49.995416960632,-237.104580993375,-112.725663138859,-167.570413441602,-179.610075177981,146.325108077077,72.0576221453942,123.32073575372,78.1858468037986,53.6244045435048,149.350318837335,67.3394116756635,163.628670635223,120.318210276602,88.4933882575712,92.8561059735087,125.682487837178,87.4274521687902,159.835965909057,98.2965540167998,109.929527649671,86.9061595277076,116.080319980862,98.8986148914284
107.293523350568,119.4541651242,117.455113368412,61.9583471880857,76.7622847800806,112.48725424566,27.8889357070578,41.9576550019562,4.89240817294085,-69.6386636016907,-40.6317879351374,8.14044666977042,-124.46248766441,-182.629455255132,-27.2443544845892,-149.798877621728,120.882120944099,-93.072562696359,-60.8726186313246,-31.7492945276136,112.175438805375,143.982860674474,-89.0997303653094,324.854219867344,-69.6877146407835,233.501214227373,-412.610360065359,295.345106546413,326.702241559908,-189.230388496751,578.503828626251,20.3844478058435,10.4120170198258,-326.545927926063,215.616754297968,219.290787763438,234.366949488342,93.8256770856825,53.3902228371813,69.8306267963985,85.4824068684956,-21.8376434264859,75.3653548022324,27.8619815022983,90.0756207944227,260.928492477171,201.909958687703,246.683878318928,189.285630664029,174.379353705967,271.841285284393,179.361947346873,275.636521802796,234.678410823284,201.651104270205,207.95302225932,235.347548161817,204.393222226755,274.814496212978,215.058950051508,223.5795793275,208.423322223584,238.889294418419,217.322754123491
257.804639562908,270.955292914165,261.334293176716,217.54629434058,241.932759662661,254.226873450641,185.99588564652,203.430776368562,155.766460031122,81.4547303341033,119.105425041709,160.777423551194,37.0282466464668,-41.1048341572892,61.4440755767011,12.5805167424435,311.036440143628,-6.74731229043386,114.689004330394,-2.69353700858794,328.049942093582,196.664200822003,97.3779570895809,499.778529477364,-1.479960296636,469.305114394216,-886.429690872748,681.841006753193,454.790317334286,-41.5263184666266,686.94883294356,133.247122015732,-76.0326061376078,-166.015362877511,234.405108624994,214.74113292412,356.192931316673,487.877229025385,153.460696735851,196.009598730757,248.138362185567,204.416001255789,230.830817745862,232.366713901703,390.690586301741,390.79898868473,368.890477106586,407.53932207612,340.02166499157,338.976428686238,418.048243023676,331.610768063502,398.083211673815,377.445220236694,349.465496846613,368.753077573361,362.641084604192,355.708827565316,387.566022905132,344.048195199383,362.1507289629,367.840434049333,366.918660865537,358.254109090421
400.551250244241,427.889267760885,400.820343351597,375.784409454117,413.436045600736,387.043305903098,344.083359674317,369.878919823512,299.148784303116,242.085536727319,289.31109344243,300.266426856908,200.125995126024,118.991871008505,167.645692766427,196.631652033303,424.548731032632,154.827266625577,248.68516487441,100.372638631133,555.687600702225,226.333043931515,331.704450730023,670.203781412161,46.8653841842264,667.610226091427,-1352.04613206011,813.904791543651,452.244907760202,229.989976253023,498.690620804251,232.621314436306,-159.059517600163,45.5729539480692,78.6393650864515,218.428509032313,435.662009302645,945.924163703282,205.260967297449,246.407795866359,425.02844465578,441.262313480415,336.468386057434,435.583955990646,695.064107676512,525.524178715958,529.77420610323,573.496131997057,510.063686077772,509.398898358779,561.60904472927,499.538678531873,513.489079648974,526.626688710394,503.999050936695,543.77516257079,492.738548633134,508.098513898171,502.424296788516,476.281519389653,507.088805993825,535.936063112754,490.688783168896,504.5906774436
494.079990583287,534.904972728769,490.203733886786,483.498464914233,518.753060729935,462.520158575095,450.136982316961,474.955594285696,391.877174530888,347.630693787743,410.583219757242,379.991577194261,304.873558057114,230.007767914146,288.070393342285,348.967200505203,493.56809332095,347.749057960839,318.736334402347,232.581216166934,759.886716433279,241.224679189466,536.863743486068,775.74382144463,60.9783291811873,738.040025714445,-1294.93451890112,665.258945715629,345.900693351489,342.507215866989,-36.8516162490945,241.495983137912,-133.780535918175,242.63950396832,-225.358150841507,251.317175041806,433.415816292535,1362.0484557918,162.629729013161,197.404057399316,524.770154989686,673.429971663707,381.496729479623,606.992148262418,929.314394005784,626.115208748636,631.079947637377,680.659611188631,638.815626221777,620.498293900104,649.822343140164,623.86789061193,584.718415334096,623.065773650234,611.605722553427,667.557584768067,580.203013363236,604.105297116859,584.091390309469,568.767792810807,609.042514225125,650.513734268458,571.054130017627,604.054626222633
537.777617974671,579.785294307153,527.17146284586,531.629622570454,553.462351351351,481.57977321065,498.646382104383,511.43281447035,433.600214448606,396.625432819456,465.989697173391,403.36739561746,357.020488614418,288.601199481168,386.656550320049,461.967567392069,496.061402905761,520.32785041354,396.108668670959,336.345888534376,913.743073467231,265.737095443699,684.820962805839,782.396813095881,160.560040088465,650.807250983291,-715.54166931514,496.366064833171,331.616301741577,292.708535124586,-605.107052920907,276.747951584719,98.3075494157711,383.596273511852,-452.191359217719,356.83507744847,359.000068203011,1655.456073707,77.2855027361385,143.469208425825,530.994505488869,917.239003890207,391.00865463742,745.296412741363,1068.08464067875,682.027814028895,678.754070945264,724.702096518319,704.640925773718,673.115691168929,684.78321252558,691.185524446079,619.055516694989,659.190397818102,667.827852312884,724.484493320576,620.366089832024,641.184089984105,618.575883966115,611.216024254481,657.89706705856,704.461690744016,602.705562172561,645.247876696693
578.648110365953,613.65193000196,565.864837176969,575.255091955218,590.984092214297,508.700259825091,548.456282784241,552.013707545154,479.423404163347,458.941127416016,519.167434201796,435.696897785939,426.465517061057,370.74000071749,490.652559508758,600.249523623625,388.414672371811,717.000654389164,570.29542984847,458.612465139246,1062.70428824376,353.439386609066,886.770691259407,794.669823330966,459.831371232273,589.325006724589,-96.3890821970202,555.467769304828,573.652791118999,360.598368629775,-703.171982820264,578.989133534428,528.160879086018,482.598659655266,-424.703274987073,597.765254637407,284.714202601028,1822.69881085104,62.0254587977333,214.747912466741,554.69469807258,1213.11913741815,430.318393000558,900.244726165302,1156.34046933497,723.771734459197,717.001149892678,752.860411503161,739.696863794588,717.212571783215,712.504139081205,736.342613244474,651.638970930083,684.733343381951,707.753874919435,755.697177204972,654.260110915011,668.437268721209,645.468345958842,642.681545268361,689.54514315619,741.308506078842,630.746251143044,671.357082270856
625.855024744229,651.746141234579,616.943849427496,632.623909298271,644.302630262827,561.472771526097,617.922777040883,626.430361001324,545.920440552703,551.059487278413,597.546402360151,497.279266402066,528.15738555069,501.241637490816,615.919440417976,788.083863946133,177.807800392474,966.983295721579,825.328666828193,638.033988198299,1251.06297523821,507.029625339757,1231.70957160176,929.353509207841,901.595840131536,801.943006806052,334.878498106286,875.91996107623,913.551179840068,696.153792486423,-192.559534796147,1002.76718954691,956.493737401042,563.51657358959,-147.430452984597,857.875525089575,221.205942317947,1813.34300053353,146.641460204585,385.277400771902,642.405291169176,1508.283658663,510.806544441904,1069.4524341729,1173.45658719828,746.533940419604,738.380213757458,760.969250580735,749.861534276439,742.269185679178,729.111025280695,754.996933450036,666.868195743288,704.886043641853,723.631466323378,765.456808830382,682.764616627831,688.357404224797,676.410305783763,668.28125584328,704.237802131285,757.508205414704,661.40652188491,688.16601231341
635.567284902568,649.659271722343,629.734211550582,657.898876924694,653.065594694079,586.545313991564,653.794646850102,684.226314605379,585.559727300478,613.768684635338,651.013039667853,534.142418267491,598.81691726965,611.932494085934,686.137407637188,939.807217250718,15.6706093227346,1116.38695848162,1071.56719569818,803.252044049769,1406.27383785347,659.763674303358,1589.35816420013,1116.14424503502,1331.9148646382,1240.12066324234,788.043984304404,1280.04615776572,1059.54006175618,1160.77243388501,542.670625897095,1140.47129661103,1148.40890184905,646.83702267492,286.567296091347,944.25494889167,165.211341098554,1563.93116665435,271.710658226473,519.098943626224,720.500397299682,1678.75329644372,571.254382720138,1167.54713186558,1048.50366814497,707.93747409852,698.931973319857,704.680989717231,702.998920133472,696.625824249163,689.979133669437,710.490178328407,623.664217959587,673.291065084139,678.558740717884,715.884771206687,666.390687536588,650.791434025001,669.671950954534,648.948459870158,666.625915100871,712.36449230498,647.358617498276,653.733751446026
602.729097028548,608.665404938779,602.091436053552,639.722694998229,621.448083434477,569.540149743729,640.245738802095,705.474109629372,579.791342467051,629.476059371565,665.79748068446,526.370775685287,615.914735552756,661.739423340646,651.115291280191,957.930049696006,126.71723374493,986.116862623526,1230.54267419499,899.424215259872,1398.54055906752,791.367912802067,1727.28030086661,1182.864652932,1623.23618481463,1557.75719737624,1384.56845709902,1504.16760249963,1034.89720167043,1495.00361568134,1090.04966808346,1023.01375826264,1088.36154913066,747.539766763312,717.187074370058,913.957950443395,249.025452042581,1195.1194899114,395.84746887665,575.118732020027,783.652328157924,1709.05818870553,600.25147293358,1170.8237134592,852.091147441912,624.668887702843,621.608405131678,609.845969726572,616.202109619896,607.705205353645,609.914755932841,630.917699062948,545.715791660254,602.130721899538,600.579150856859,629.100878098687,618.403119650296,566.219688501828,621.860554059356,595.065399336895,595.517727105573,636.086455839513,591.47399217341,582.719765665216
591.845133125585,603.728725322338,606.133258644552,639.109966357766,631.301510907584,565.847823193168,645.127631870286,745.772363482674,582.482819839398,661.492428893921,702.125055376108,530.383851653543,644.718591582759,703.80901635791,604.710787352722,879.818055313609,490.548569789737,730.438501564239,1253.20601498558,990.731508422263,1241.00690480431,941.828306074242,1621.75211319683,1123.9497004026,1718.50328576532,1584.28127817141,1900.78864362464,1449.94320389044,1121.20064193662,1579.10569523002,1413.4575287098,1056.53482435854,972.855295019707,857.22662863786,1005.01407598641,963.653169341705,592.18358187756,972.904025675743,540.112337739313,640.808552364914,926.499513772721,1702.91350894913,686.180603806933,1189.75867941532,774.199565288966,576.337133358291,586.938868927942,562.092225981719,567.737276482712,567.102062834896,565.563693273821,594.904923539899,509.285949827137,568.059164271149,567.071206890476,581.189470353103,598.366555895185,520.091058519339,590.74046233147,572.030622319463,564.633722184491,615.699519620564,562.605191305154,554.930808811893
642.677997329594,669.097279975934,676.752750105816,700.32513104365,710.300009760507,606.687397392959,713.386927098991,842.599979040371,640.981267766746,753.040746160097,794.874086121538,584.13059711544,739.270902219995,800.772300933085,668.636167599697,856.3175130779,815.186299627331,746.884335779891,1179.65189695887,1158.72242167677,1110.47156823408,1098.05804507519,1484.11421373757,1104.79801564019,1671.90156836257,1534.26151462627,2066.1992911586,1305.62951174702,1390.18090870499,1527.79899749661,1665.75924767887,1310.94798846348,960.036341389348,959.63402780416,1197.35492198832,1059.36818607501,1072.46002750368,1040.61167757714,739.936778307877,798.181182686203,1153.8220073355,1707.55042814644,880.959341890654,1315.01098797236,880.280640518962,592.191869007039,617.967656940392,580.104442191138,587.670202959406,601.834166775669,582.070302993993,606.698441381609,541.042213586902,591.859202016883,590.181082855471,584.492323876129,616.061682515609,544.659244116751,604.463441738668,598.270850932907,597.278789118844,665.954326137499,587.07626216707,597.584728352715
709.631090296952,743.153643021346,759.797337024289,782.142473426514,794.613618185604,658.9300824774,797.551033644566,953.040376060567,728.547195801169,865.516684391802,902.967329063905,656.875296137395,869.080689967059,941.333952287997,829.111032476846,949.459866914792,974.45643764634,1115.96450777731,1160.43964263187,1391.94671865883,1125.72530994942,1215.6884162097,1460.59922048719,1192.43130384796,1625.54147740813,1609.27927780665,1879.95413718549,1329.44863936333,1613.02305236683,1468.3953788961,1838.88195626296,1454.58981657315,1019.70961959496,1052.52029752769,1413.99655127006,1039.71386386458,1434.4570717298,1275.62193942637,979.291708403649,1026.03411708934,1325.96131176602,1661.64244279709,1098.48787130474,1481.54859399958,1053.63672610974,608.174159879918,657.097756377351,578.951457148223,610.210750433184,651.893565629221,588.500453437331,580.115160155818,582.389754030299,610.987715244738,606.674918845366,587.362817160491,624.064007550312,575.116634945304,624.438630658245,622.067784117874,634.840559144325,714.038484710273,615.714313634639,648.221293583169
735.429821275699,766.28517212475,797.399228753821,819.372673606641,827.03488033253,694.779993310913,839.479870336553,1016.37684470485,791.618262797777,944.229342290944,974.213238463919,716.832641885509,967.605497061805,1071.79375205507,970.109667924459,1048.93952922374,1124.15234451989,1437.10092280454,1268.57154659654,1580.6223050496,1221.05205003625,1304.76844993643,1477.33720342867,1256.2255464321,1647.84013984026,1680.03118739634,1593.91427286209,1541.24178043437,1571.25640880878,1363.91948046466,1756.29797370809,1272.0763303259,1061.72745272216,1124.03731179116,1613.4298375084,944.414613930375,1544.722373256,1414.4812448245,1183.11013229344,1223.48268745947,1325.8097884907,1498.99528640352,1217.38949647665,1568.57468254112,1165.71208059742,557.148977986607,660.090163386405,477.196162411988,580.757141085429,668.170663864317,520.381962353389,487.004819902834,573.283037568749,583.49638902644,583.342515074312,580.625026994739,595.220536396048,560.715064069317,613.746168919919,607.029398267171,629.220260551902,714.456551299913,609.337979366724,651.657703783351
729.144577475556,757.744558902868,801.311306997861,814.935199892301,820.321642941075,731.774852583261,846.852456534427,1027.91099041902,822.569857693069,981.100065229282,1002.01451503366,767.121128284096,1010.72884444537,1155.07880855447,1023.15548593629,1060.46385427668,1306.85421629185,1398.55810664794,1362.45964796365,1604.45580404289,1260.77916438096,1381.17276655388,1409.17778264937,1169.36017435699,1633.86935149159,1532.41668599071,1399.86756265367,1688.26866362706,1245.4347286319,1177.12399710674,1370.7005070165,883.103133986049,1087.27644327099,1160.1057431314,1638.96853557048,906.763600991003,1481.6989869612,1286.04473352354,1285.38674441414,1306.77632141458,1199.19166195855,1218.57502269763,1219.12820363655,1550.32620386565,1169.63592774544,458.567048680824,653.439299952627,331.835080767133,551.498607632635,669.488175144617,421.170108458804,440.486247224184,532.529712143321,546.299269492751,563.814113935069,602.322882676867,558.090268373946,536.207527328662,590.654175298467,579.000217384112,604.229780934466,695.992455638346,589.95078905496,627.446105379774
734.043433559135,760.522248352283,813.787070452973,817.021263137605,816.092939328907,785.87246264619,853.766781143386,1022.5205819376,849.394596359519,993.660277545739,1004.78016615908,812.729873544039,1032.15938980144,1179.48827888311,1037.48100844778,1048.75660702298,1369.95765521865,1209.77763141475,1289.27591901214,1483.57057451502,1197.97071908828,1411.76698794379,1266.55738248159,985.7368118403,1484.91038361256,1208.59163231804,1227.25516025306,1566.33653242315,824.255507693247,1003.50411408488,958.054518630216,585.733271848481,1107.27852538023,1165.73667882722,1436.04375156673,919.670120952467,1406.92031313544,919.1672670036,1283.88103514012,1274.15103446077,1091.31109361774,896.315955905167,1180.42778150682,1469.47458103782,1073.14352783774,397.858514865892,679.904409433321,314.137531937953,600.016959958125,693.190629778813,392.484144912552,533.956936233092,524.098198661759,554.567061016913,598.187279487292,657.474063666577,555.229350654675,551.968735389118,593.400700547725,580.464409976071,607.098222099483,698.499150185098,598.578304095623,624.556792702002
756.401851316426,770.113297703177,836.665708373602,832.921617127973,818.356237027313,836.096059671341,860.701706515844,1014.0891830687,880.935045855511,986.765865767027,986.915109502877,852.21730524969,1059.15284579749,1150.13763333548,1068.13657741382,1075.07642449689,1289.81450282686,1190.84706283315,1109.80410389082,1351.07804366064,1085.89859460439,1356.06572068811,1141.39444061432,844.67465719538,1287.18807253943,907.958544518273,988.753767001828,1260.29850865075,562.029244939208,913.399314690192,835.465582123719,552.544308168631,1042.87993298444,1093.33578510487,1130.71392936243,910.384295618442,1333.23108765738,460.42420405654,1206.75735407804,1177.91033015022,1056.14128582013,603.188612103514,1150.31418704122,1310.80031960623,906.510209275927,421.225237316616,713.848645889805,464.689486666359,684.195116504919,717.524566497394,454.54289806251,666.990145126834,561.195941148168,597.283655627419,654.913984580611,697.902530916179,581.383334797881,587.130875400644,619.644301498808,608.829511139797,634.210240220504,714.445219379256,633.769902226742,643.348154064361
761.183299553924,753.43306188911,832.871765069173,822.50856220026,792.758148503372,847.970954571138,842.100641495648,981.593193375142,889.82493764222,948.114964334988,934.779190585953,874.132596441296,1050.13303834042,1076.79665454241,1041.54571489654,1052.84147251023,1182.96169146157,1248.40395467576,978.771391800346,1233.25583913375,971.502462828977,1214.04498732942,1041.8118313735,776.603124005175,1152.27507278935,704.68024212096,792.257021599448,949.064405861296,504.898255275256,830.412224708692,921.484858406681,601.446884793841,803.862157344716,861.832469266378,881.653065849395,821.338206841548,1102.48174384133,26.5719168191603,1059.33895626682,1037.9977661214,972.798802462882,286.662314241304,1062.13968496345,982.947082467688,690.028186762015,477.699515944925,681.806073155581,598.21555660733,683.324553357061,678.14109945775,522.661167942221,680.15741992467,589.571208656095,608.90712022362,650.00051038097,673.628775382159,588.990573240341,575.295062228136,632.922626046926,618.725896864643,634.135809896846,701.218586239916,651.035535646536,634.597720576546
712.849189556547,689.464608952131,772.529873552597,752.599428860784,713.558341329984,798.864288402249,776.541742989905,899.169451513549,838.294606997384,859.653124751135,831.844229877272,838.897393110875,944.400446726638,954.884331646774,867.547028557795,919.700299563195,1056.9461205875,1130.22400360019,924.830886858346,1037.08825987979,853.77287362298,1019.2979209208,900.615785816999,713.534362879041,1028.35081667413,552.98846740175,722.702206286594,678.452377731934,464.154541296238,647.199583191959,869.007907431055,437.138798471848,399.476439249142,551.328863709285,695.626964630365,585.889639317982,645.129305510748,-350.867712404845,840.411137851344,821.864102711531,702.27327368555,-113.134272650351,819.204730162168,460.413488331159,433.341906580242,486.287981147222,562.188391607131,570.963605282143,566.806306036294,557.208991509013,521.081305289195,568.23929194278,563.921277610497,553.279734550397,557.235326248603,576.549836874859,548.323181041082,487.489991522158,606.248010511221,574.017977393692,570.822997749402,625.888267741517,613.451390575242,564.363118860196
589.425206316911,559.645484542796,643.739574056114,612.151833404154,570.697350102816,679.427720350328,645.262824148023,746.805664349333,709.997280775168,705.432561297876,663.05066207097,717.310576928014,751.792252591782,767.571467184546,632.78765718106,757.461799650623,854.069700670114,875.004810677985,848.539315816052,769.044935410888,725.934796617197,811.697270722903,714.951974866342,621.077031556224,843.246640877318,434.67092650373,727.407425245589,468.755923709182,311.417980191823,396.63766022262,592.981075237876,89.0412586856838,-43.2046255640728,396.841921554935,506.278610837853,233.218929505222,119.231152116209,-676.449039828,599.962054363519,550.913241968175,290.455599736836,-493.649837355123,452.276826891229,-115.088900422799,139.033518308398,408.367483687131,385.284993695978,431.397819818411,392.500850408561,383.256340960733,432.508656493855,403.710865188166,473.116511826794,433.703131269311,406.41479417599,415.020751129653,451.337396316655,334.789068624669,517.61945177163,461.878985009408,434.632851795888,468.276372426197,506.37332866838,424.994501554021
396.806284746532,360.862507882341,451.50041725141,411.126088797131,366.330148400311,503.798890699959,448.174822191843,519.668513812915,527.751581237492,492.118954508035,429.466759837324,547.33100285561,535.635112130481,518.62504538811,509.731368306285,617.060495788627,631.031965450552,657.695656805965,659.558889093799,567.948075487707,586.74319475159,629.347104116168,557.490626290509,508.352993366335,664.797919958325,359.016673457642,773.517448110106,403.725593035154,138.146102571584,241.340530192043,329.282582857816,-175.55660860587,-369.43174788979,475.806350236789,364.270316807535,-70.0595506604002,-278.759819164029,-949.22184751129,423.987741502736,322.057717375326,-99.611127690917,-753.713201961435,85.1273546346266,-556.523160544445,-214.82614802157,241.59749277789,164.692758520466,247.387489584008,184.17919201084,168.223305354292,262.68131470729,197.285150711497,312.564983820141,252.335572000185,209.187989196871,188.966644837349,288.156280680082,129.632591165532,349.848947955676,283.973797720111,226.242168445562,227.893195046025,329.455552141139,216.523781094477
194.602503994558,152.409568299138,241.83181157813,200.862496097163,150.360158493565,319.042865474195,240.237719646816,266.170336695269,345.097046973582,270.480221638932,181.024985035744,400.48588001481,341.532334620842,256.981131133461,519.359185719459,450.211270979154,475.21691334605,487.091121251251,381.953547267674,479.298312768827,435.201312284303,477.147206016966,448.306311151673,379.156499713361,522.305010677635,304.009095674348,819.439443354496,444.472696624371,66.4972761868819,233.444191686638,208.928481084192,-247.358977553669,-508.472197473564,578.874592511824,335.845554401818,-223.151951210649,-500.360604163782,-1134.44272263405,335.406188853504,154.840658145029,-396.685390176739,-941.465651569082,-225.248957710282,-811.328233009079,-570.473114967097,37.2137003062244,-63.8433787117462,46.8330238166959,-35.646465028756,-52.3328799965509,63.6013305103297,-21.5131694725589,122.925838665502,50.7667379410876,-0.168481862690844,-46.6025071445421,95.0035849016078,-75.9271363444672,149.345916281967,92.693695366728,6.75382610474596,-14.6172703135842,132.624194442505,-1.18295538265703
68.6165184886877,30.6543950126173,96.8853496735818,62.9094587318653,13.9515363579137,187.25720788114,104.867035168586,88.7880749112968,218.698695272514,115.261683431897,9.36302739914138,317.404758298503,201.154116664969,58.8530036053947,551.793096640049,276.837950505804,371.169818155121,311.385344054498,141.115516076513,386.997505690062,285.553418046958,314.671479091149,317.824980707552,247.903699755597,283.982915110956,228.030426802127,742.574083480552,390.333140105692,29.112030318029,230.339898992503,123.940987831164,-191.227802361513,-454.872453399044,515.435109762222,353.95347166283,-276.302491600472,-563.805906983141,-1126.80967305381,288.536255807098,-14.5014028301233,-585.577905206796,-1033.45486020593,-461.7595986234,-913.361792783368,-713.496437707218,-74.9112608011742,-187.481335438781,-69.662858146389,-155.868811816521,-164.313105610146,-41.8979816931431,-132.102805539823,16.049556126159,-55.3299721430235,-109.895353154663,-158.829677587728,-16.2025018101003,-167.20332518439,31.6935030785708,-3.99173169717816,-93.9239244760302,-115.773643561062,21.5375324570726,-98.192783185303
61.1160502126208,38.0407051999147,68.9494571225036,44.5885702788199,7.41526917163749,149.091224381497,79.3448388119744,59.3477577912283,179.96076461764,69.4796149314007,-26.4421385239477,302.407087819169,151.728338218087,-23.5099496020577,559.387159350953,190.792225664179,286.31141321961,179.305677077637,34.0273127711793,237.811480680817,168.851759003303,136.633861885914,145.149767049219,146.987867997979,-61.5093745782274,122.441672032371,514.663029345987,190.383913174426,-125.624750012406,171.826484415968,30.5618615764414,-30.5183488397492,-216.069743868261,377.710441945681,356.814801026144,-257.107156845882,-442.761177756939,-848.3655992773,281.487944343793,-149.649317182631,-585.371802100962,-859.066619193618,-531.345920961896,-834.31175279024,-508.116807720493,-2.98072027304354,-124.920744713117,-4.35639971843145,-85.5495829096562,-90.6335246954421,27.6689443935867,-59.1299499761689,65.5103488707188,9.19299143052448,-42.8923631137777,-76.6114429001571,32.3744954756087,-85.0614118249742,67.4043507277472,52.3279713954415,-13.4727479160962,-23.0948762178997,57.1790936501088,-14.1172804870602
135.980033279314,124.600046576564,126.094209039225,110.688336935458,89.3600172517636,188.283390648832,128.878332041313,141.579311563156,211.859648997307,109.814402436127,42.0761359442636,328.724226487549,186.700500368142,0.696813624097519,557.875338787243,191.814809654585,242.627156210025,137.943577224473,46.7375666314088,126.949177333121,121.305110169001,3.36759173881964,44.6469780711153,98.1386597380739,-261.877362458852,30.8673094087645,314.026456843103,57.5422103463465,-345.559616905856,203.745742387321,62.2145372972431,253.516913432848,143.020231546795,359.108771746878,388.667679514008,-102.71204890376,-138.568574292805,-400.598883154304,364.456443590821,-117.025894280852,-359.510748181878,-397.946587567706,-345.739528994263,-540.878327209518,-87.6489024623308,171.06476723933,53.3643593854781,169.681704267307,97.8771332435279,86.2845211433264,191.577100003285,113.895422624813,201.91843089449,164.333844779746,123.015004252964,105.427418641505,173.060266423731,80.0549015860747,192.356142054499,187.518905708141,150.78797317194,153.408660733909,174.112856571763,150.292273628856
224.272466309785,216.507814641845,198.54548705247,190.818151905264,188.043919978654,250.486076132935,199.640942469884,247.849042307828,266.195177581803,182.836416202047,145.792737944472,352.97193441043,251.216239120988,86.7500266181006,537.048397983675,218.027599679352,245.988775617527,160.392501946385,133.010369463318,119.172514781735,172.506299469284,-38.476087115114,119.899412481733,121.942352688301,-140.968332180265,-2.50373029789608,329.920934161151,130.293169390746,-402.079569103622,408.98614222469,257.243824045069,636.763264711769,514.429974250803,472.58768037733,479.787529816019,211.916222643422,272.919967704403,49.7044074627417,528.75560373065,116.328301528695,-12.911396157923,151.167143510007,44.3845530757599,-108.335578772955,356.742684621362,300.162871514947,221.102301204891,304.99525270101,252.523123011528,240.542665096515,309.266927485424,264.011416249245,303.922375597451,281.760492599104,259.722727636072,255.354913052162,282.596281372373,210.023673821653,292.129468642463,289.736920737437,271.168626267489,287.574947809576,267.554806001031,270.584720845066
299.301603403267,297.246487085549,263.192275143399,263.876233720162,284.827079429909,307.817333380812,274.567145662924,346.317914412265,318.158221876825,265.792933412156,260.413528010803,364.966613553643,317.311764893117,201.283082803499,498.660878270169,284.048330718099,267.720426615794,226.994695720166,285.583290985259,165.810071723717,304.98487975937,-3.52844431620951,281.451918098414,229.094618179894,122.285061027235,-13.1429904853,470.23990736045,193.718106785494,-230.039313580576,606.815988455082,400.830482311774,1072.93257862604,821.634396304423,573.609556018185,574.94318706368,607.98449154814,696.282632987003,473.984723479385,679.172552379006,420.576500176359,312.942347029555,622.220393750626,469.798143930624,329.018535577471,757.898714670538,371.125677602408,350.5563155098,386.427511198802,360.779169941771,362.532163522454,368.961153302242,376.694546812065,354.348591034716,353.539548502408,353.079129093019,362.084220416696,342.38232599798,304.945065476666,343.751543131358,349.391462513974,344.534407582041,379.025984142213,325.294949593825,350.56170248773
371.224419343768,383.202434986329,329.871098132647,343.679348959887,390.057370603373,362.912783309703,356.057097326056,446.105378343001,370.311412694054,356.550889149249,384.186945490928,390.429478909608,390.068306623679,318.383814991794,463.223003644896,407.440592653401,289.045938107136,316.674946160942,470.2470200788,190.64017047559,426.108809437478,51.1546993220354,323.116537980204,358.841057437973,189.960450301202,-96.4365585675079,407.20165030238,-78.7863324892049,50.872293840729,549.226442505111,313.22357664928,1493.10483504811,993.471009349247,547.401158339583,610.222056639676,973.698669717842,1002.52832772677,885.144859692457,732.206685461114,650.508746520807,532.639767092329,943.980181647074,757.279851135724,655.640768059252,1051.1011954085,460.825121558594,477.075749430518,486.165437128763,482.090590773803,494.877995528194,446.506269964863,491.122776074469,412.427595052938,440.431573834982,454.390346911063,477.971882767663,409.749734427146,412.023982628952,395.544958167243,420.069466862263,431.998562915917,481.18813263084,390.165150574097,447.140111293877
432.413911950686,460.916557309804,387.951038669331,417.547981262241,482.824509659397,409.736423030794,430.023015470442,534.013352668858,420.608406534002,439.347123436783,492.593100239915,444.274001812289,464.9713738914,415.931683014713,432.554135593877,522.156715642544,307.705405511287,372.948802770241,606.766823686246,172.780396697874,466.200703824594,76.3515920603221,196.913503415699,445.575985595612,-15.6060376114254,-212.163311830455,74.3445097112467,-572.842699069441,447.232813869993,313.397692366584,203.00221140471,1777.84096422507,989.960685486153,430.531274576435,609.83831473992,1246.90302343028,1078.07561090114,1201.32316268193,727.090846110565,796.83028007458,642.269833916384,1061.78597142252,856.436259023805,820.278490723977,1142.66601201839,564.717712863028,585.062902016788,594.324159395173,596.765078727928,608.764265776101,537.733277232448,587.981573568785,480.135134113569,527.875693683266,548.523033244563,587.515269993449,484.17949952139,505.941133029806,450.675921729088,496.624062262735,522.481107246112,577.125023892728,452.169655619266,539.70382995825
466.085541102572,504.665673322352,428.005043884282,466.248784700819,537.159336134937,445.101284209593,485.559169399733,595.938718616601,474.619956959123,507.821130318041,571.344920214292,525.856875868796,543.447370875178,502.139637618074,447.957750050067,594.8860507364,338.977316487213,408.500546835485,668.258992455075,163.220249303289,483.989178155407,77.7214308025524,90.5660815323584,548.88607698574,-216.083398895165,-117.062695770067,-143.176422072529,-721.866633712814,1014.18155504756,276.506905228462,418.920095015887,1831.13043962461,937.883762235862,380.843000772549,658.488891245357,1407.05392514454,999.698813214224,1382.41028232304,785.842939372208,941.787826111782,716.271391530173,1009.82044410981,853.682681416533,865.252066037707,1068.66238231268,602.802175090878,621.14218895417,634.025101260617,632.106726477196,640.684533475843,568.258395262703,615.801734795089,499.384970356581,551.276070242412,578.111398279369,625.239037395171,508.713594620437,534.108076629846,467.452144734947,526.75047846151,554.237532879174,610.199029584109,470.680256864822,569.726165332663
481.781250743639,520.757490346124,464.592213961157,501.663145929423,563.998083516396,484.136469239938,533.847456879171,642.425399490835,545.019160198071,572.723926807667,631.624721165055,628.984987301486,632.070101740171,588.832159959944,579.953993256717,665.080701274072,420.881155555374,501.141008465696,684.276453482778,209.680348507122,536.963684890543,91.0338653924583,138.892415093816,720.720608853386,-199.12078820355,274.415526810506,-6.42963894934717,-294.80541076652,1524.34893796194,544.640608826879,853.331619111784,1649.27928755676,1035.97045709352,484.087769711635,743.120671624078,1408.86068214476,967.217009032009,1500.65875867245,910.528794247619,1091.7422082187,814.906437823303,920.375927623396,835.565741847958,866.436094538717,978.415231900896,557.318873949215,587.470128244174,593.556550807827,591.158337251821,596.973425355292,526.370748561719,581.078341797746,458.399124453754,510.773065941597,545.880543142903,585.287191917464,475.463469242247,505.724688276892,442.924017567104,502.836311546687,523.412733737459,581.598682322394,451.848020567557,543.034151343823
490.942756298692,522.284794432823,493.209712588669,526.996572515291,573.92285525305,520.74135064558,568.241183069594,665.93024054755,603.390438036909,616.005694988302,660.002557818176,717.150353952163,693.189915445965,637.835184932277,774.988102561342,706.11742484706,561.745822635275,601.747025027161,645.546403824783,274.66234665631,527.521990389553,111.587461174194,210.694271477123,827.122326395105,-119.752384161091,641.715797331153,188.694206957001,210.458792385911,1642.9649077099,751.825692592004,1027.00400851537,1274.20609129642,1257.70419008204,645.441356352453,709.399760675938,1188.32169994357,1000.32665880944,1564.37937631813,932.497531537095,1142.3153311855,898.137106116312,829.685862033268,801.031822121796,840.218371868193,929.84381233339,491.560352749575,540.329557964476,531.132791206745,537.779780093665,541.98902436028,469.582039550621,535.112967433198,405.926905930206,461.329240692899,502.873818347756,528.827594790854,431.471253447377,464.341003948954,407.76367653639,460.643606374883,480.024429086658,539.096492567532,427.74341314944,508.177202888667
460.204999613621,475.186209831199,464.175916570226,494.400733758778,526.91680925751,501.507217028089,537.076532266619,615.863202975875,582.261584593792,582.141901733791,603.480286503463,716.37615267184,653.648954664265,586.863306964593,838.079924580077,618.952575993375,665.029237366335,545.368343751037,509.317206596285,272.10200030822,350.197993700763,88.5721457419983,128.224560978716,723.535646202993,-170.932083432271,653.884172889324,124.784904824069,250.258002780214,1332.53843116133,601.411842669282,774.327063789071,779.487134334551,1342.3373348326,726.078021620281,454.923057445829,756.393064163107,887.700669100694,1443.4826733207,727.565825375426,984.832142431669,858.911301879008,620.529829730622,675.925607836802,705.26505356971,812.499362365462,420.13228378084,475.501830832223,454.662675736052,469.100348895552,479.034187153248,404.826388793791,470.448064324572,348.588833891243,400.407212604878,444.10486611355,465.963813219508,376.223452987532,400.996624778177,350.871606920885,396.541844940381,421.765098618617,478.135300636114,381.352808837326,453.782214470509
342.56867328999,335.143531854267,340.816974139516,360.119183015612,377.491062044859,382.519402251826,401.542390090279,457.754268506947,450.888348443589,440.101047155279,434.126494689091,575.890307166996,486.731603820428,423.196853946572,656.784161134705,390.305688886709,595.769564798596,303.030950974173,274.275192387346,164.417073930681,64.1787143161042,5.19789918989835,-77.2407796768025,456.106519666824,-243.66945152435,359.784013435091,-68.0853007058861,-106.284489160305,796.878500190165,243.914460299011,396.192227533537,275.372728759258,1100.34278721382,678.658763136449,81.1910299097622,248.656369042384,465.911759265354,1021.61188622202,361.141277921372,610.57954949053,626.407525282494,246.236557397897,378.300795712747,356.854566309309,486.97196962292,281.809972074568,317.636604896195,308.133866410347,319.128080256611,336.738825724874,275.947996835528,326.216531151487,234.568556177549,267.505934088228,309.427511758561,329.435240886094,258.285902595258,264.542983968544,233.81901825694,269.824815585772,290.357164794322,339.923141971357,265.222967805999,319.864108769602
162.411669868656,139.975622598942,165.98728706267,162.985868259469,162.322965439863,201.493923724551,201.323201504766,237.07779829075,256.39008056532,229.150928474306,202.972154830144,340.771767379931,249.876370361363,199.546290963337,340.748499385767,119.473353265583,351.185799964791,16.7690922757105,-8.85898841151495,-13.911486997746,-212.226047942184,-92.5480676454736,-280.135189050228,148.07549947499,-181.759958579196,-14.604113034383,-84.6662901127649,-428.514415349177,222.306414332861,-22.7531991342336,140.176527828912,-186.545025462245,594.470273421043,531.795679501611,-220.385218962612,-157.783502332584,-172.302735810164,343.718827263646,-7.01592626483831,173.383209573314,256.502070479315,-158.819033141807,-37.0237928163615,-152.729300421611,-34.326639538371,83.6096116274045,76.2230132768249,100.870728311853,101.333078822116,112.686685409601,91.6241521575115,116.88514563057,72.6809318482893,76.9316303398707,109.60210878019,115.202239209002,93.231268659043,68.8779201653904,81.2921991999329,100.822684181651,98.3173518914026,133.523120299753,101.245623344225,123.162830996746
3.52979260569955,-21.5233829981412,18.097542958362,-14.7810812945078,-29.148582135186,43.2622756647814,15.6034772300994,36.414193135518,72.0963143779834,17.6158904616294,-9.98362282882934,116.794875340437,18.8893764545995,-24.5720976854719,58.4778158007686,-109.232168913936,63.8647713352498,-213.985880738474,-277.071599321693,-208.069959988724,-438.465826384761,-177.527129956273,-452.359752059462,-152.715608666292,-109.431703464925,-338.588997492555,125.753525613953,-520.542114707376,-249.112871279771,-172.986968389612,-69.2563290552967,-584.933729319554,49.2617248147715,331.16679893873,-345.625865775163,-375.032064739334,-774.434016992098,-400.59843205457,-258.134345941228,-91.6186211766617,-98.3418457427476,-472.533723110716,-352.463286537551,-600.634191977714,-589.991795633892,-74.5890637583872,-125.372978985584,-74.2673366514356,-82.5644567742242,-89.0417089816717,-58.3116625899849,-62.2995641920732,-50.4734258125262,-71.5914706776468,-59.6371318720288,-75.1940955727574,-34.3126587520753,-97.6933205420806,-32.4576812354109,-32.5706302585998,-58.6676119278107,-46.3465189002933,-25.1682487819356,-40.2510703418724
-97.762911965241,-126.687834955659,-84.191659331652,-145.063247580522,-164.467137048355,-62.0116099399456,-124.66719502479,-116.025230572602,-71.4990628825289,-160.662866818341,-178.71752273145,-47.0768780754761,-176.689620544489,-224.478811299757,-152.443051099673,-279.066105453473,-169.262728475945,-393.634220006445,-481.136265646267,-371.803239317607,-622.976911390494,-264.529576333085,-595.828809353783,-445.441445108251,-210.085837057153,-544.238208113877,347.254673181311,-528.787202162504,-515.709909654489,-384.958933016271,-346.802466115158,-801.688325050013,-319.465417294362,104.915652335971,-280.575018954589,-440.290834746575,-1148.46509397855,-1004.4684911458,-350.348935346199,-108.510156987958,-339.974850586262,-689.498715977179,-427.401426893405,-838.347400527507,-1027.51229495199,-147.768934795338,-220.22414838388,-170.812333155434,-186.092347646025,-202.839353296938,-133.498250731927,-166.753327124503,-101.915904913002,-138.049562626199,-151.499645537586,-180.106887873841,-97.2469088579505,-191.071918744741,-87.0862851359748,-106.257370085984,-140.114479446872,-150.431826521988,-84.4542260201678,-129.779405912333
-176.04297506987,-216.181121737412,-173.623108235308,-249.71307506206,-271.554383190674,-149.504955597493,-238.353174635842,-244.824100077381,-190.455648241292,-303.426097217078,-319.668924334612,-182.5437777494,-336.634868445179,-384.891827199153,-338.174423958964,-403.527692471774,-353.975868797911,-534.561010988287,-593.654823523085,-475.292512931892,-771.345373875096,-344.689360806542,-662.890419214943,-687.482721917262,-393.086047752113,-596.538027976894,360.530531851482,-585.697836963682,-599.318584734105,-671.330688519028,-626.754453362493,-771.532500298308,-417.475502903692,-130.769508526979,-59.0066458846353,-451.954906028295,-1240.73684751106,-1332.27640591255,-319.965863869875,-40.2707288589078,-487.117213791902,-785.940973654744,-348.331820268804,-915.652505542899,-1250.55890123715,-182.190918573077,-258.778575467471,-223.533073062092,-247.23605056746,-261.784023870285,-175.513621065786,-231.403677603694,-132.196457924297,-175.795394554524,-206.637757600586,-239.790341372038,-141.482343553154,-248.206328866247,-124.252597052128,-160.291994536536,-193.072344829822,-214.754895194425,-125.253220851497,-189.068254789288
-258.623199231586,-303.954192268864,-262.439549235652,-338.437713341682,-362.310369911985,-242.102799442434,-337.433514223147,-361.930953928229,-303.081299921593,-412.10823158771,-434.376152251067,-313.956826460719,-464.559015928325,-491.215448289246,-503.973048160338,-524.616623489259,-485.715335785853,-660.287422677338,-641.851600766208,-534.143968813311,-900.105085965053,-385.844678631095,-675.052443433272,-819.931310449691,-473.843103462323,-543.154139762725,136.284734572585,-628.778219826305,-607.201649466489,-863.011364251534,-833.985652054659,-658.393987353692,-338.55684222292,-357.87693501208,194.810130794432,-470.787108303521,-1095.77723940401,-1369.79843502183,-268.537082821746,-54.6816255017991,-600.673893079013,-722.620347414289,-258.526740830785,-944.898668550592,-1208.56947073176,-216.655603727228,-292.151186846203,-263.325726028823,-294.524401214915,-304.297631116627,-217.619220567397,-284.868089242455,-175.661271679691,-224.560442048179,-259.17673250318,-292.868185455812,-192.619903195618,-301.112030027354,-170.856115912851,-215.681138726327,-248.785180190411,-272.349762014999,-180.612940968674,-249.584890731633
-340.28296466192,-378.531529886846,-343.797987170123,-414.635699277896,-434.751835755998,-331.960289804412,-425.462838407472,-461.335056003357,-409.544552529962,-502.633103774379,-523.242815123234,-427.628833913755,-580.287704774817,-570.715859602251,-627.048089854343,-701.265814898366,-504.489019526741,-835.144516208962,-730.393954225242,-603.137441699195,-1038.08419654082,-393.602948637318,-751.073747486723,-876.904406306365,-480.270611610362,-479.311342119086,-169.695842463443,-589.599432651007,-621.246427920584,-912.474983202097,-1008.67988042322,-677.952557510653,-339.311984391923,-581.877554205319,295.083563593064,-479.012722772697,-824.722308096824,-1267.71183506741,-281.767805411018,-146.716098261329,-730.008952447436,-615.99918021523,-208.299877552339,-985.683004995863,-1006.7713826739,-255.042208596535,-323.600155107817,-296.786940667828,-332.217737647453,-339.034904384933,-263.593291831288,-330.556182659977,-228.038386576057,-278.798918456308,-309.313506957008,-336.771990883207,-245.869020789368,-347.590495444732,-227.486131889149,-268.519721430404,-300.359297485499,-326.348468138759,-243.05963086557,-306.739002262691
-425.639888498319,-460.110521342748,-431.623806783894,-501.74044660816,-513.77601902448,-423.748302830854,-521.573230017766,-556.596023276543,-514.290464585621,-607.851501397344,-621.163743714297,-529.938450332023,-711.205047847674,-681.614020079498,-735.976596331639,-938.277859588275,-430.29923372248,-1077.3041216127,-948.507238105467,-725.466836484606,-1184.97502768117,-433.979553620042,-937.419821847498,-957.051627511458,-547.701631128131,-485.813634117816,-389.870325325596,-532.030472461869,-685.793772326161,-919.912759499875,-1156.51734220056,-916.356385531766,-612.919609737735,-827.902138650246,140.628488362374,-469.238188052466,-551.829681519452,-1222.28988884599,-356.367180903312,-250.222797838059,-884.883495278176,-654.350905051378,-209.012494604386,-1043.57313875592,-872.385096379219,-313.681501173441,-373.326277544353,-350.561080818602,-386.810367160705,-391.972461557161,-332.171753374176,-391.76998271418,-299.235358381234,-346.076191305089,-375.595808231477,-395.166461115943,-317.29717104985,-404.088625779685,-306.412872651015,-337.173897776973,-366.116947591161,-394.612983427791,-318.987044667662,-375.951435634019
-526.086519935343,-569.598240368407,-538.019887642735,-611.287595298296,-618.612051312403,-528.205137110987,-635.835757438585,-667.839903622343,-629.442086921545,-735.199460029579,-752.578608077978,-649.491458509616,-855.319584757927,-834.656133361476,-879.220997625366,-1164.1943427111,-411.378513742347,-1293.70901892397,-1249.10697827644,-899.963765785035,-1310.85303667233,-571.907883051029,-1148.88443208128,-1089.07628851922,-701.081873223182,-609.50529457299,-519.511869548236,-553.686844668958,-837.347789026298,-935.379380801227,-1248.02251349323,-1370.68956407034,-1047.75023695998,-1073.64830675196,-207.588766846804,-525.941157716302,-376.85123562466,-1257.65495743079,-459.220011894591,-371.67978343614,-1029.25818789947,-833.249647220429,-282.155299386479,-1088.39823734104,-888.419475040484,-412.660745787451,-471.204465771319,-445.897793469716,-481.278759880898,-486.933272260144,-434.581932673036,-489.99847610152,-398.43595110537,-445.202170125895,-477.587920432027,-499.240710341188,-422.709819724116,-495.459906142761,-413.946968963937,-439.526489433161,-470.40522057208,-496.178447019638,-420.347027626219,-477.396553139621
-617.704461399653,-667.57853910726,-632.153775917087,-709.49223689796,-716.205305996773,-622.724444531065,-738.820196582479,-775.44548010392,-736.782940323644,-844.94284510561,-875.222689734476,-768.738766239635,-975.851186227847,-966.532903774248,-1020.4145864988,-1298.35376572669,-548.867829247716,-1366.33057655141,-1487.27176299406,-1082.2986457795,-1386.31527642944,-783.03369869452,-1286.7824043975,-1223.77893107762,-870.668103698409,-828.953507242067,-670.304717599312,-654.945556200393,-1085.05054388922,-938.238204476092,-1348.31539803025,-1901.59589527779,-1336.84455520742,-1228.9839379686,-580.23399326849,-736.915185703673,-384.733684714452,-1269.88851156128,-592.361921215786,-537.421808686886,-1156.40945949825,-1007.70577153526,-447.467475237785,-1091.75971644866,-935.733958716528,-521.130372923616,-583.354322032488,-543.626318976645,-583.415383137976,-589.873329206134,-529.98806939683,-593.338306972672,-487.61794006556,-548.662817878362,-580.915470730456,-607.829484212844,-526.560401161324,-593.189796299715,-511.638589752313,-540.68506962862,-575.492903532453,-599.388701451949,-513.828697097881,-576.734551103681
-656.424059967671,-699.690254391281,-671.325204528047,-750.150121755715,-755.701152741538,-666.526539143915,-787.160573955926,-829.907136899366,-790.49509392649,-892.052067088654,-927.449066946639,-831.383748389443,-1035.59256156462,-1012.37050294178,-1066.87343309023,-1317.22742701812,-766.634716943929,-1294.88465754155,-1566.93652337241,-1215.80054272573,-1382.77544184889,-979.588966610356,-1314.27307022312,-1322.48509230049,-986.305440022727,-1042.11980846308,-865.926175237042,-733.988985725325,-1359.88702199871,-902.660905775843,-1463.21531015405,-2171.81448403499,-1341.84787714419,-1214.48216784714,-826.103601478362,-1039.28362655619,-573.361886739848,-1250.32124331852,-712.417158609733,-692.17809996572,-1305.16489280669,-1139.32031631309,-693.29841798049,-1063.13132632189,-927.138400368167,-572.193938023386,-638.708861158672,-583.939785889733,-631.745841763722,-638.231405081943,-564.577797178754,-644.22384501363,-515.605671410269,-592.882812846883,-625.980648767727,-645.121122950743,-569.794355818725,-634.988386119093,-547.578466153589,-581.021599461493,-614.271903491405,-645.402560817372,-547.44323600373,-616.621047602801
-641.012668887507,-678.641256933567,-662.48255459175,-736.387662652247,-740.671557225382,-658.292574706539,-780.375416860036,-823.028219102541,-784.930648266718,-883.203985216953,-914.79627826226,-830.20428216285,-1036.23822340945,-987.849764879922,-1019.08291675845,-1267.68931394285,-923.64727458107,-1223.35256388471,-1524.84867838295,-1286.69381449122,-1304.92807832153,-1117.76785243799,-1257.76971623991,-1382.99478286892,-1024.39455921562,-1166.49391131957,-1007.99030975406,-727.6342010622,-1530.95945621837,-815.391867964535,-1469.71338649687,-1961.76993053359,-1200.50032774262,-1048.06400135928,-941.060349896362,-1241.33876278913,-805.680084792968,-1258.41497050933,-732.250899550723,-756.234508517657,-1447.52132832689,-1249.93076495528,-943.397754494536,-1027.96929066767,-907.277673949783,-549.115318013225,-620.778388964841,-560.719665115681,-606.81056199867,-617.987369862423,-535.769048350202,-620.579752139912,-487.569294989356,-561.278725784219,-598.622443824741,-601.251526799018,-542.479458249056,-605.734351257109,-521.688511138957,-552.922103862639,-583.220582366429,-626.464395274512,-522.486576804363,-594.6343017177
-618.564272769418,-660.34292314482,-652.891838033082,-718.406018666327,-724.946128690801,-643.660146064717,-764.869201105424,-805.84868110365,-770.014256431902,-870.213177017439,-898.44273309989,-815.701237509025,-1015.49975433251,-970.127338649926,-976.641206253572,-1211.06943222196,-988.819798148508,-1271.80305037011,-1484.79784509428,-1330.45387688264,-1222.55496388664,-1202.34880548825,-1196.76495848341,-1406.68922146555,-1025.43325412161,-1227.98566568518,-1055.5171969067,-722.295049223516,-1514.97409186037,-713.225568269814,-1356.27514089718,-1485.83541461625,-1076.87108537339,-824.61717941218,-1047.75339406959,-1255.51843019176,-951.588481001292,-1253.59086360121,-684.813383987383,-772.320208452328,-1473.19923524336,-1253.58247542941,-1107.38384397143,-992.429919949392,-916.045424891834,-499.304938894424,-573.519160505217,-503.410757718205,-546.069939760162,-570.966504520445,-478.961269988351,-543.314816697707,-452.099764039345,-506.649229760555,-539.541591881164,-534.734768029829,-490.937375794803,-550.647473293144,-482.459161939641,-506.031508066584,-540.987070088373,-590.133192729876,-489.709772401427,-557.759990370363
-608.633440465798,-655.265144778313,-654.526313686956,-711.654879666233,-722.804349523602,-641.814560292172,-757.256099729256,-799.359386231855,-764.60633069202,-868.414634812718,-896.693900986908,-803.439848770292,-982.758256368259,-986.566895821522,-965.81628574522,-1132.77736275374,-1022.07288359757,-1346.75672808698,-1509.95144226063,-1343.02259344109,-1178.06697141435,-1211.388046794,-1176.93393710204,-1377.16578878801,-1025.76322149947,-1257.89564311022,-1055.90773407124,-820.140276693799,-1331.437032086,-649.906443666615,-1201.71447804621,-1097.40808129819,-1025.7857819416,-607.594110796045,-1200.64974166999,-1215.03507948382,-987.605729221446,-1133.70614176917,-677.984731114995,-854.168921639287,-1325.04831209089,-1058.99582771629,-1148.29982757558,-924.314720550953,-899.365812985294,-440.983621033161,-523.451552242643,-412.209396686638,-478.607412161215,-522.79437293984,-405.600284796554,-442.112606054831,-421.061938300219,-462.142048065076,-481.392868165864,-482.853178998529,-445.482881345105,-499.451318903558,-454.55214306582,-469.566267392002,-509.551625173459,-555.483205814176,-469.08921991711,-524.720510734164
-568.46954896712,-615.49506537929,-619.661999369465,-665.107116792999,-680.097662326653,-610.512119690561,-707.954095507457,-749.112805504346,-715.340670380426,-819.739462222129,-850.006869111322,-745.698930004591,-887.373916654226,-966.397244654773,-899.060781123666,-960.178894949418,-1022.8556423181,-1226.8825860026,-1505.49520654833,-1246.19231543348,-1097.38279685414,-1105.1056312217,-1121.4600585251,-1265.70541674014,-967.875788086953,-1175.34999535946,-972.931540316327,-941.153903838587,-1053.77454882017,-591.461161922383,-975.518467022981,-870.240337455854,-1124.34396470615,-394.108929288478,-1277.42852937244,-1247.39941095662,-932.429164452905,-857.801181524583,-679.038494553284,-979.40924196841,-1055.88824365192,-729.032517001726,-1068.63368148793,-749.552399501321,-773.703726145472,-335.633892986234,-446.05274910707,-276.050039645673,-390.618833896833,-447.064791393716,-297.733192640084,-335.199817524075,-358.634487994261,-394.226363923815,-407.479788748498,-420.817171910507,-382.220999759329,-427.457843322255,-406.981229024629,-415.50323202689,-445.42728718996,-486.103784751589,-424.149593978426,-461.808088640569
-468.109362158061,-511.068489301831,-519.864094903751,-548.222218060212,-563.761997568929,-524.797809539455,-585.307094817257,-618.040174124153,-591.906709225525,-680.055984274902,-708.262450285595,-631.88557597222,-698.304799344025,-836.310002684749,-750.788521453712,-697.110934812001,-919.969794413457,-860.830876685991,-1331.5414066395,-1005.12010796223,-893.085497956621,-888.708078083711,-928.542301431507,-1051.53371053681,-768.389410504696,-900.484836361051,-708.112474814221,-888.951836110059,-751.841686141011,-455.368802686276,-659.805048465418,-694.879029469795,-1413.66370658148,-176.055140384383,-1125.87786693239,-1251.39339900959,-818.957487361339,-461.052876990411,-563.353008445376,-997.395960962523,-752.847306676857,-403.147186234914,-902.798527877584,-433.04143304581,-529.08791689998,-181.932831890706,-323.433756150147,-138.72816875634,-278.424435851507,-323.806924622642,-166.889841372766,-238.036885068652,-258.889547367724,-281.881229407169,-300.446854189141,-323.280248434733,-279.733165434012,-314.015151448092,-313.838585536804,-318.311289558157,-329.732590991706,-364.652380474995,-334.482870137407,-348.978711277655
-337.849466242852,-365.807147819796,-393.357327065988,-400.328106071532,-402.701978599209,-425.179171631179,-432.451462948928,-443.496020183665,-454.064765636803,-488.386572469278,-493.217923181957,-549.57914689623,-475.320196117734,-609.53769996047,-629.633522785103,-454.63814993317,-746.546431132192,-446.545666028083,-981.978025893703,-695.541390865539,-593.01697253822,-611.085808326402,-624.18619828346,-739.703396636798,-455.549264941962,-496.937674422664,-313.826531087962,-585.781399433004,-444.03703547866,-236.387483957798,-361.473969064099,-484.071756396521,-1625.38125359373,46.5228002883792,-759.397184542825,-1035.01074838298,-668.720016576945,-14.2477256030816,-321.601415929315,-848.451921619652,-441.885485111206,-118.363113352556,-689.888027133709,-40.6819151429406,-246.885397275816,-38.5840669416661,-174.01849225843,-54.9187740995328,-161.043250741306,-174.345213764248,-55.2454020081706,-150.49504431624,-156.414519530899,-156.707137214251,-176.642786900908,-197.787525775662,-158.926104706839,-173.952750708953,-198.383653596948,-194.765030738094,-197.257125931451,-219.012221471259,-227.139597481844,-209.160808964604
-204.735486181455,-204.823388517046,-275.852929882583,-254.365258668183,-221.010848663584,-344.273982652856,-295.219707854932,-264.150876165783,-364.017474956856,-303.922967512521,-248.862403645147,-568.37103966359,-304.509782550464,-344.941658183003,-630.61680922634,-323.951929300454,-696.656750423553,-180.618699665569,-565.197530210125,-395.10811510213,-277.763801543133,-315.762810213488,-305.070958906186,-366.707300070968,-135.577219929916,-102.586238518719,31.7889463767,-150.866450715565,-100.586411985764,13.9670043745575,-120.210856684701,-153.087211402582,-1352.03159665722,278.474252619527,-347.100697629427,-597.218437239547,-413.891921183905,413.078785416356,-56.2969718196787,-630.882809354834,-68.5757678995526,212.435630056191,-406.298006540091,361.678810528493,-8.81479578219604,75.5330241323466,-3.20674243928604,13.2326801894763,-22.0027072516434,-8.83060253046778,37.3188141727935,-29.1862305093306,-51.0323210029465,-30.2825978231534,-36.0776436041009,-40.678391177044,-36.6150240801665,-12.0491772746958,-82.1888185694878,-59.9338341850451,-56.5075851278343,-58.6727229580175,-113.121175363986,-54.5148313074481
-55.2730925634359,-25.7146828201001,-148.022532555714,-91.7372400241483,-18.8193103798296,-250.037133303086,-158.332189252399,-76.4794334156342,-286.389936544527,-131.663251534705,2.92391833961953,-591.04827256892,-189.307970914759,-80.0837063468568,-684.632430310466,-282.04118204868,-821.10859678286,-61.0198720760363,-171.22061149389,-103.142382797943,19.4781087237824,-16.4539018644243,-0.364186573180202,4.06597528412995,138.947868497987,192.756711029141,258.871257425595,239.075831986134,266.137325106625,271.274707682868,148.836516788046,309.813109782118,-594.346687512533,476.239569482069,-43.9992822667128,-154.691345481325,0.865257136017924,765.725288729536,151.996109990727,-460.549268648378,378.427140019135,626.827376423295,-39.4402281275895,769.358473269028,183.085507181015,198.848731439889,196.777276800338,143.132781926358,165.563791267723,184.122737217874,151.16721137168,159.140480795243,85.7766256792225,123.221679073703,141.266749183522,155.660034872751,100.494236030746,178.184525450867,46.21778310983,92.9338852177964,116.609063877693,130.400636905531,27.4318688969474,124.221885095292
102.358203149073,152.449643757039,3.90347646871749,85.7125939675057,173.832430501443,-110.97300147639,0.363565453361539,107.941887773183,-146.790893469773,44.983444388156,231.333084479375,-448.207877168679,-57.2704304105537,157.766831286996,-592.982396719177,-223.886465015896,-798.053898350428,34.4162301460038,146.733232855726,179.324291463437,276.646817092579,257.228090271215,284.575953024413,297.599321885728,353.96192737647,347.316821975774,411.3706023278,475.496999981149,560.743107812272,495.947958660307,441.063530449648,729.733940313542,174.394364235572,528.210907936933,103.446682910736,103.371794954546,429.732689312566,988.895543550472,264.341181940619,-375.177657551607,771.945581010129,987.554135155221,282.344453552752,1123.76489984122,350.188762429764,316.975023940592,372.408997488212,298.669482805679,341.892929203196,361.075479862645,272.120739725436,344.435076168606,220.875677065872,275.33852044811,314.075357415924,334.304730709434,235.496453170124,352.82608544176,168.917545336005,236.4261810315,287.129588682017,307.64632371926,170.066898733415,293.416856101522
196.097103883609,255.296058543893,117.911326817584,203.383275319659,285.058983356008,17.386808455997,130.47426505165,221.334439988215,22.8073724150716,186.875204355758,371.126927672833,-173.311391833755,108.049881150872,321.229349735962,-292.019007939349,-87.6227722622454,-392.482575570603,174.04048531637,338.81203791151,386.002157288573,441.762079148847,407.612243744387,484.795871637877,452.655186072383,447.3172698071,342.969082369434,443.006894014138,504.452386107699,674.41952399216,567.970978006665,614.052304409324,900.605640212831,515.427235984499,360.443991231741,94.7202114505122,190.51073721187,627.603593925496,1024.87999889046,237.631693493336,-364.47836428174,970.239219816141,1095.42855165779,402.908528213524,1277.71180175858,433.606190524913,339.80485091405,417.258747617865,345.916089828357,388.701002653304,418.580943282187,310.314061077079,397.340709422756,259.4945925092,323.354022796501,377.138061815067,389.021111737108,284.80511315766,419.02281019736,210.066355732749,288.684073045861,351.957627924423,372.247049601483,227.309813241866,362.745905865195
170.871258157564,229.500219829156,121.993956617727,198.681292961243,272.064393423069,52.6497006253358,159.234558731764,211.210291351386,108.585329079337,230.858890991647,387.467043811575,11.6513719160965,218.886783861113,387.543130250354,-3.25923362302299,78.6461085842731,83.2683995845125,322.453474088028,422.165234871953,474.022846657098,496.36264963613,371.126051108091,559.204921547284,456.207591672643,390.18483687354,238.171911130013,253.437729483421,343.49253438105,570.001740027305,399.469981294848,608.914663142772,800.047324878318,434.197872114061,51.8722209763708,-60.6325892853306,252.49233357365,549.249943496977,889.284735097073,71.9416232035059,-400.111337394205,983.58635821867,929.619722975096,364.375923014898,1185.43305850093,375.154611125627,239.012888054375,310.466340538586,242.515141062197,288.368823353957,325.963485242358,221.424104634343,296.722295925802,169.615897554386,227.679535448845,291.596103273639,291.954346638167,198.432057511835,342.601433248208,130.930245119498,211.368130403438,267.210975452721,285.732441387433,154.778207124324,288.815530406557
90.2537266213957,139.884435176824,60.6430598003657,131.476390203681,196.233151961754,27.0890867754042,121.097110406074,140.378990129411,108.756751155547,211.020966683771,349.409023960837,48.5417690704493,243.093141506587,416.683044010349,96.1063008639658,242.395601359486,262.272434042364,450.455299388733,515.402443208217,502.71539839332,498.563317585996,255.793053913207,552.321645439369,372.183580813862,290.974230943775,153.61882463407,-69.4350933893384,139.947471506946,342.789376477994,84.9139151080649,534.533651643688,544.81588519496,264.407110571023,-217.632003495495,-289.693316961828,376.553464968371,404.884151714614,731.109434139756,-139.72502677555,-437.080640900684,933.207625308073,705.942716101842,341.392304934856,1009.55311658157,263.101649378765,114.465507968728,172.616256054318,105.572269905175,161.636314726152,190.721976922329,91.2723705532549,166.186217025827,46.7238118344436,94.1611765822522,154.784429741267,150.945467697293,62.7168565463678,211.753874152265,10.0199841953944,88.6989826509874,128.171650084933,144.090725964097,33.5895599622371,154.71590483942
59.0933716378072,89.7132598420377,41.0136036137758,109.165022913852,152.269372149436,43.8663721955339,120.822750884693,114.35616437592,136.819697724971,223.473898825172,337.349627804584,110.353283399071,271.839324382521,462.764795781308,170.569820057582,444.333751374081,268.487785702172,598.115210218729,675.290853415794,538.552952714838,511.203672726087,210.959493671486,492.253117815593,309.538916575506,237.50573737056,103.768387991721,-320.453042325318,26.3225788722779,181.084422799235,-224.672497384814,463.372156743861,254.563570438669,205.618261539035,-367.371172711471,-511.506110549903,472.581464462019,374.854794238206,664.20882950644,-317.481525550535,-462.844065625213,874.840062944274,596.595217259567,364.59179621562,909.112046802621,207.550881318511,47.2689441021855,99.4555960323336,33.5184669636315,91.4024222508219,109.833884936512,15.5887801185976,93.5029931747378,-15.2126351563523,26.3335156161599,66.6988446521457,65.5791686261973,-9.61325661416637,119.462547000724,-52.5994925937369,18.5509854567222,43.0727218073826,49.8131201949283,-30.0680260057216,62.5368698162346
58.6383335226266,63.055314564166,58.4016155067966,113.901599737147,122.340067162639,93.0410561056279,153.631648893202,112.874376545993,201.211905079101,252.844568133537,306.691664873749,250.325727540022,327.739842520254,457.666952473952,382.567423801412,624.073598586926,333.997137761999,732.277303899219,752.645057459658,532.985857840272,503.089134348421,221.543912462096,334.139074382244,294.752627593607,117.474903411327,-38.4478103740109,-503.687644289818,-84.1164915339161,164.200005053419,-551.3239250439,305.962387678053,26.9513920712245,161.05930586202,-494.894457782614,-745.746318792526,400.464297051322,383.884555241385,586.434767152519,-503.101782249521,-528.411923410858,754.103095142227,500.791264345104,303.347942637662,843.928347009312,157.817921286518,-22.9667172241487,27.105195744,-33.4952704445116,12.4989152907283,35.6559276621044,-42.4672878021837,16.9312475531616,-59.2543469123075,-22.9839894182841,-9.06527850254446,-7.92074359895158,-47.2154492978988,36.067069902353,-79.0857901010081,-28.6857214490264,-18.3300837801846,-26.5141562308625,-54.5144848008614,-8.15685329595869
-11.3449478683129,-26.7754378322448,13.2598218308105,41.9625048461048,22.0027495279439,62.2441801106522,109.929334080545,32.2462449170879,179.363482353523,192.458822482352,175.736362324622,293.19831872427,297.638770769266,319.858045293233,527.189844084058,611.720596128962,382.276574826824,695.133473003685,571.266997850666,402.143918388158,376.825467175881,202.086756261753,66.349142384215,211.25999353845,-196.338747095373,-294.537663497348,-789.553854250776,-334.626186915445,159.245575097302,-968.03739650423,-8.56828257624174,-148.613174077252,36.5939138901365,-682.000325577704,-1005.52426420201,171.187627931949,245.287696592414,350.387084660324,-754.294573087575,-671.209334220354,531.634159716398,250.660073516483,105.989970725722,693.103354934645,39.2698275917349,-183.759578981647,-138.636994349065,-187.258740220237,-154.055653807489,-121.872055743842,-172.665999143046,-142.509195491406,-176.978465280793,-148.345937817594,-155.507877287182,-154.80295355964,-149.857596426653,-108.923130440057,-163.173161918013,-139.205054135683,-144.578138311375,-164.608089019107,-134.359118146912,-135.096518067733
-153.899894508711,-173.744124008186,-112.53868666438,-107.588230457811,-134.496010288916,-72.1571423330841,-31.8592887103225,-126.885725240994,35.9817500319713,35.0844558517471,-10.5170075084916,148.337421197551,137.732382253415,112.285539055551,385.27060754995,400.139156024233,307.150283952693,457.678119505141,203.780442828092,200.234447848994,142.154735113946,173.077327033147,-179.20843925233,-0.56072587217315,-546.526282533004,-452.318480926262,-1130.66956803186,-566.450185924468,44.6528030241192,-1310.50329269141,-328.778144560516,-436.80509281152,-67.6261862025693,-822.73571488334,-1155.85464168925,-89.5761596948415,-40.9714915045171,23.8630409976544,-985.947076467464,-835.132045730126,263.489597756322,-90.4742546290686,-127.036612209082,430.473500099879,-58.3356066771498,-392.198544584602,-350.352439323672,-384.3933578268,-357.707185171922,-332.629584714492,-356.790112771649,-339.50340041878,-347.038478288678,-325.372717105606,-342.656898485134,-344.854817093881,-309.949179653457,-285.302136675617,-306.371484441747,-299.368053263481,-317.027001767403,-343.178203497784,-277.85468858581,-302.265051654465
