-0.797460817112231,-1.73991451006305,-1.30493588254729,-1.81241094798234,-3.4798290201261,-1.08744656878941,3.33483614428751,-2.82736107885246,-2.46487888925599,1.1599430067087,0.869957255031525,-2.02990026174023,-2.46487888925599,-4.71226846475409,-3.40733258220681,-4.13229696139974,2.39238245133669,-4.71226846475409,-5.72721859562421,-3.11734683052963,-8.1196010469609,5.65472215770491,-7.97460817112231,-10.5119834982976,2.75486464093316,-12.5418837600378,8.84456542615384,-7.97460817112231,-5.07475065435056,-7.32214022984867,-11.3819407533291,-2.46487888925599,-16.7466771593569,-9.20704761575031,-19.7915275519672,8.40958679863808,-6.66967228857503,-6.74216872649432,-9.20704761575031,-8.84456542615384,-1.95740382382093,-9.93201199494325,-3.98730408556116,-12.3243944462799,-10.9469621258134,-1.37743232046658,-1.73991451006305,-1.52242519630517,-2.82736107885246,-1.37743232046658,-1.1599430067087,-1.23243944462799,-0.507475065435056,-1.08744656878941,-2.97235395469104,-3.04485039261034,1.37743232046658,-5.87221147146279,1.59492163422446,1.66741807214376,-2.10239669965952,4.92975777851198,1.88490738590164,0.724964379192938
-0.0866150510365765,-5.13850782747886,-3.07454416297674,-4.97502670612749,-12.7418945442137,-1.6800801411292,19.1585575721371,-9.50095617162193,-8.57844726831573,8.54875349794933,6.59280621826023,-6.22449785213643,-7.63599357536491,-18.2273094040399,-12.5428934759686,-15.0403792238547,14.8316291748878,-18.3723022798785,-22.3907566799379,-11.456903451311,-33.0900888934259,26.1065632593347,-34.3595048290795,-41.3970386555772,11.1868624892785,-50.9563726520012,44.6496293812237,-33.1270653844515,-15.7424857251393,-28.7986804430703,-45.0174909191464,-7.12851850992986,-73.2279074222725,-35.712622727506,-83.4708596744683,38.9608438207569,-31.2124642281835,-27.7141469625446,-39.1199553097128,-38.4874321580837,-10.4477794969683,-40.3850016129708,-17.977213231652,-59.7839063767741,-50.8556389878474,-3.56353098289901,-5.50099001707533,-4.25151887106638,-10.6608991783306,-3.85351673457619,-2.74903846440583,-3.23802528432811,1.50685003905605,-1.89756945488709,-10.3339369356279,-11.1854059451466,9.43574245436181,-25.3261341436034,10.4677242866129,10.5942289169387,-6.71348467205871,26.0739564007046,11.3362249975126,6.26730051968933
9.19943418449428,-2.34623714873278,1.61202306671322,-0.597989576054647,-14.3583681345707,5.52861220861256,45.5179151383287,-8.02297567491149,-8.43586244237443,23.9156596572482,18.6698608367866,-3.68159795394798,-4.54391267264086,-23.6359797108248,-14.6766317385076,-16.3668321969806,36.8322117425841,-24.7589462265079,-30.1384569063754,-13.7762495608081,-47.4355102741086,43.1601820193685,-57.0713447646967,-51.3508632253401,10.9053952881264,-69.9137289141869,90.5300321088181,-51.0059584015163,-3.50305211338301,-38.2782173359735,-60.7017372573688,-0.758522743588449,-121.577099658846,-44.4939119526824,-127.085882834616,68.8645996237527,-60.00679195947,-40.6949084488791,-61.2415988279701,-66.292801078136,-26.2884280295371,-56.5039307336661,-34.3495060290092,-119.285050790761,-92.2089166853045,0.626807332234641,-3.34124248995827,-0.330130549984206,-13.6718716560891,0.193285248850728,0.99398410435224,0.733732749066597,12.5802704086988,4.27914106260361,-10.3203693865713,-13.5330299069034,24.8443196872073,-41.9766963689465,27.0409391086882,27.3936316915377,-5.17428875386166,56.7905975557057,26.4743608266208,19.3603962370669
21.7808851847939,6.86239971512244,10.6182134860533,10.5281670340174,0.201524264534389,16.8629006022679,58.6551601638982,6.82988756624119,2.43069620213569,33.6508623048054,26.6297904963433,5.92840568818929,8.32747155418499,-6.43565004528396,-1.25168289948026,2.33136079649128,46.7843626835212,-10.3990052849558,-11.4167735355548,-3.17911335416096,-19.8542115476328,23.3856778087373,-44.8337803728569,2.60313699414905,-13.1309501419642,-18.3581478271967,92.9069700803427,-31.1367991717905,47.058055711211,-10.7222921058658,-19.247163711988,20.8587590635954,-87.9968261717016,-1.5362522972001,-63.9105994605928,54.3376684087968,-59.949279895994,-19.4934072153196,-36.5995114200773,-58.7547882219827,-41.3065367184255,-15.7146094167193,-40.7554597741423,-123.776375560006,-73.2006378317335,10.7190281434714,7.22127829017887,11.9845207573585,-3.68849651725598,12.1896270833323,8.55456952877767,11.3703592478397,24.8154189255502,14.141774413971,2.44757516693193,-3.30311083961297,32.4531311790776,-32.9392097496039,36.704203998301,37.6672875054876,3.76625561285995,66.5260634918348,29.4287438888471,29.5449034631378
17.5106434611366,5.78405239411437,6.47676681117446,8.76823024801728,6.54954109549208,13.7715139807223,43.9832724999575,13.4732604847668,4.94895638875345,23.2813660681194,18.5810960437318,3.77480011189689,8.98657558533036,7.1570677640467,7.5709886020191,12.56557750987,29.8897360064853,0.354861078995294,4.71241162815227,1.33057221843724,13.8794107831101,-13.2387319225956,-19.7075841339306,59.5135715422971,-32.4133679158343,41.9514329939007,50.3957379828355,-0.75082607796004,87.0816648653481,14.7710454368419,24.721573819295,32.3299892810405,-18.5279524378653,43.6018610840239,36.4903216513904,16.6110532139195,-29.1461199113236,7.47343999474038,-0.876825079373987,-37.8420866563597,-40.3905314732679,43.4365156571187,-41.3662461549023,-64.4163397423961,-3.50653815560399,10.4754572176906,10.3195379952926,17.786180083285,5.07080139920384,14.1028777375917,7.15165903604665,14.2350139228835,17.7254003856396,10.8192259173931,6.51431860949808,1.24349703131179,21.0438831200451,-18.7065194734485,29.0445422416128,28.1364688365609,3.40852952771002,45.9702952901744,11.5372803617625,22.2063109079811
-2.27381181672398,-7.78171012773247,-11.9627604411491,-7.07788014821532,-9.76719428826263,-2.29311987681327,18.2508747933903,1.55822341456827,-9.10814166526477,3.7697448571787,2.0701090479317,-11.6350183224686,-6.34403639751862,-3.35315121172118,0.038623943296805,-3.04441889672032,6.69342151974929,-7.0169850530407,-4.18700861074022,-9.52864963646032,11.8175338455207,-15.5352413839862,-12.566812586421,48.5206827822082,-14.2464292333839,39.7676898950319,22.2022499837155,3.09630525022571,82.8120444352415,-0.364637067918075,19.2706872630814,20.357609766249,5.32203773323517,36.8345956138827,62.1472972178432,15.5312988149257,11.2749861727185,8.04482165165951,-9.32864779687547,-39.5252736262473,-7.35683491849476,67.31704642896,-30.2433338645974,7.2534921807881,47.7908250586129,-1.73680239897144,0.909719071411481,11.9200960641266,1.53657774782514,-1.58488320449554,-2.57092544564437,5.45120271528687,-4.10988085333885,-3.7520222741257,-6.99958960473038,-8.94126508281428,7.39938929934414,-25.8220781692277,14.7097836841709,9.47930157232327,-7.73157783140259,20.5358200519451,-7.25875332747558,5.11129441653135
-5.51812773612202,-9.03510331678541,-18.0155552850183,-10.0064709304029,-17.2067382539487,-4.06691585509883,6.77370361305039,-3.85088996324959,-13.2681291654557,1.4931583552973,-0.0846697124270394,-13.6038470823541,-8.40388467425177,-8.88250846572264,-1.73944624268197,-11.4913499263845,6.37780659943455,-3.0210637486615,-6.95893371480181,-9.40329394450468,3.90366817881645,16.8416656121203,-3.36828284712428,18.3331098761324,18.2808781222798,25.4947091418255,37.2693613704348,-0.463919182971372,76.7655828800677,-19.8992812969716,10.7516877595263,13.9787647298657,15.9585836938159,13.6004434040758,48.5951844781519,55.2051761369366,61.154313084737,13.77255015212,-30.5491494780538,-45.4233492846079,54.7784004127861,80.5423228067695,16.6188024099019,73.0945243736153,70.1067378463244,0.853748998698639,3.27150127468873,13.6441958945554,3.14483253941008,-8.02156336614214,0.816930774137169,6.14168058236021,-8.32222152660376,-2.4957622294941,-9.15560162045407,-8.993115104184,13.2470129247016,-28.4613445525422,8.56027583761401,7.04175751696423,-6.7402103269352,12.1964998119999,-4.10315141828941,3.98066423640736
13.3749713384955,7.12283561035011,-4.1296665062188,1.96400950943945,-0.462636627839836,10.9741681842612,9.61850646319081,6.72835711487255,3.6164280808306,14.3748986811823,13.192937215746,1.72085985914605,7.23267263628904,6.47314581721259,9.16339490049262,3.08229203900268,20.801888870134,18.8809506074314,12.356841343519,11.7868873016927,18.231199045541,41.7689627279074,20.0528822012216,27.9956590637834,25.7083849351185,46.8771656199438,58.9410521972374,9.76988941983984,94.5424882023366,-11.8881871204008,39.3092554613695,30.3994337880664,57.9042910405453,11.0555935166607,60.4539715057984,92.6251108509141,113.937135867861,48.7219050128021,-13.2553439970138,-24.871670805086,102.826756135888,107.570483938542,81.3079957058963,134.058702381677,93.9540382617807,23.4822899512988,22.9691177463255,26.1943439509062,16.8798972569155,7.47624703531552,19.0093205886322,20.619956610023,9.38717273973316,16.2290562524193,10.0932489440457,8.3182677676686,25.8549156135113,-6.48580307522627,7.90935204758724,20.4463476266241,7.11878571655965,14.0506318989612,11.9781992503113,17.9732623595807
14.5394600516899,9.01345369787666,0.160512784610312,-2.04619081860235,4.4016637633114,11.8775689738737,3.03271991778959,3.79672455354552,11.1730843864869,9.63756439645528,11.916220718499,4.76222658972454,6.4668281250236,8.84120728806484,6.75891050537652,5.45697319550471,14.5862595289072,20.2632904026718,17.2107397027134,19.3524254656135,23.2390117792371,31.982651683535,25.7537120817569,38.153209201756,0.954339998069149,58.1391112625884,24.1576749904006,8.79988120859839,96.5176491743399,-15.0916841488715,65.548475473968,40.1230722669806,87.8329939242589,-6.28701949545589,62.3468919708136,86.8416172588651,128.716658804689,67.091997169381,11.3587406214808,5.68314889093014,93.9056557271681,107.964540133515,106.26272351286,155.761442498685,102.878463004176,27.2627988692308,25.0398421931918,20.479455513423,14.7768773701746,12.5924691288229,19.4491484436646,18.1443430106532,12.2668112988556,16.6887602647068,14.3703864554224,8.85767956284583,14.8134645208837,3.91022972209792,-2.84093719250086,17.2328438632857,5.83314914769103,2.89555965202478,9.54691600234625,13.8706579733957
-17.4909826313151,-17.7569556190305,-20.0587709875212,-28.1328919684725,-21.952612623384,-10.8678137264024,-23.4714001470933,-25.8020469869622,-9.62084926742072,-20.9824862678242,-16.4067429817539,-15.7531011575561,-21.1557006998539,-18.4433585369636,-17.9789684595109,-21.3404492676152,-19.4483799791329,-10.630656375932,-12.6493394978018,-9.28587987933428,-5.62374247247525,-7.23638267383262,-2.84029838373985,4.10697732749026,-42.4039934577101,28.0168320073609,-82.5493856289505,-23.1303074865334,57.2085399805931,-64.273163339942,41.7308068060871,22.3122159545408,58.1035952197188,-64.2803830804834,15.3868707327814,12.9774313490633,86.9866473958079,32.1140324969991,-6.90108449675855,1.88979264246965,42.280733601563,54.6197954537871,73.6036217314976,118.032899132875,66.4242430225853,-7.34458301975205,-6.17308762166028,-13.5792175697452,-16.086397126503,-13.2714616012417,-11.4663061443929,-13.843455744179,-15.1459388809961,-14.8545856271696,-15.0760711693093,-21.9819325625522,-17.9882705779991,-21.4104016254584,-28.3273570203628,-13.404283153273,-18.9281469173473,-27.3288967623172,-20.1524297636662,-19.3545432787375
-55.2420610387709,-54.0772276634925,-50.2898327148262,-56.8816413361808,-58.188528651022,-39.2020420482005,-61.1183011070599,-62.5250089079878,-45.9539757317,-56.3320552551933,-53.8046022419732,-46.2848911848307,-53.9442026985885,-53.4798853440757,-51.314800567959,-57.6068805055706,-60.8189708361017,-50.2586443799988,-56.7673804948338,-57.40808012644,-54.1959198717051,-59.407162477756,-48.7161648162043,-54.2864031460652,-92.3999619363221,-18.3245640167663,-195.914170382348,-67.4997723146802,-5.39202942215725,-132.804919754987,-29.934169438077,-9.45230857762111,-30.6434059433545,-121.062837527744,-50.9768695121264,-119.602545788098,19.3294071383832,-28.3227235342794,-50.8000458887802,-54.9456986678767,-18.0596243789419,-24.5986038394577,12.8406518000881,50.8254817825753,-2.32777350973089,-52.957960603076,-48.0986589343752,-54.6448582973375,-55.1102844525465,-53.2034721899218,-50.3345394757479,-52.9951547394071,-52.007688571917,-56.0507640367731,-54.1344254601955,-61.907936651326,-49.943634860361,-57.5806976842498,-61.426195951747,-49.6226919711425,-52.7894526901665,-65.7881864396618,-57.2646850642499,-60.2743436245044
-83.2147128006445,-86.2374023287206,-80.6893659894659,-82.7367522901601,-88.2034871259181,-66.2837114811566,-99.9757741654632,-93.4591696393116,-83.0098928520579,-87.5770632129894,-87.1032955021714,-79.1102493159269,-83.4053794535769,-85.4305786627171,-86.6229848100331,-92.7699541197714,-100.589894926239,-88.6253085891481,-98.1773187600766,-101.499597421366,-101.87162531636,-108.927208106358,-92.3151890672867,-106.047698979036,-138.81276348304,-52.691208787746,-240.276677243535,-96.3258682111463,-70.8470929000077,-173.874826380346,-109.820372939588,-43.7891926327056,-149.572684610047,-130.779566069331,-107.035000192858,-247.46483241363,-48.9669651258677,-82.4591170381008,-77.8818276147844,-132.932705537828,-82.291888642558,-98.450924860695,-49.467396941645,-16.0223298727886,-67.1139185248986,-84.4120319236819,-82.6528796731732,-89.1373717387182,-86.0072098598859,-89.0574261819541,-79.7617386730442,-83.0915763880885,-83.8944999619442,-89.1083317776523,-82.7358997655199,-94.1936374437086,-76.7463067269233,-80.0071320956573,-96.07776336064,-81.1470939684878,-85.155931210878,-103.147177729473,-86.1279256354323,-91.9084973322924
-103.954377027168,-111.01395555912,-106.651118701205,-104.76675859469,-109.105375240588,-92.6686341572653,-128.865356671909,-115.462898606057,-109.011515591026,-114.767961515452,-112.987364555284,-107.998297175638,-111.95743051604,-114.465020047239,-115.844555823101,-122.837027463849,-133.423373355216,-121.662744891598,-129.118859407307,-128.24747767765,-129.806167249988,-140.770597192902,-117.175018207008,-141.202537135725,-187.248430391685,-48.0650797564586,-209.153191616491,-91.6172603248172,-130.471374720737,-166.571477640122,-161.638639470178,-76.4268282829289,-246.059136488883,-101.680398683458,-159.721439489203,-301.696780898154,-117.493131531938,-135.900796534631,-82.742138435512,-179.356530304966,-146.410105140608,-158.196100090457,-100.866302041228,-75.7482764980237,-100.501118205393,-101.775664039446,-104.810611931957,-113.394733958005,-105.932682350318,-111.121095105234,-101.32696431439,-103.86604026117,-107.350787091134,-110.074036445539,-100.968335055241,-112.772430288119,-100.188123903932,-85.965460088236,-122.236427400508,-108.069468433128,-105.690306796978,-126.397276817844,-103.527816046772,-109.034231008324
-108.735877747181,-116.900578219334,-113.121124138896,-109.696535101259,-112.57415761653,-103.100844924958,-136.095697079619,-117.442395564429,-112.021179402458,-125.439835290826,-122.799750815776,-116.72685705976,-124.519869978808,-123.365448637701,-122.383396016197,-130.737615036994,-142.825565209718,-130.721502957945,-136.071489063354,-132.652499803855,-127.827164858717,-148.70065507979,-114.943678753834,-153.982853732782,-254.574712537585,-3.27873899495537,-150.789698960183,-53.2107940269594,-187.613897788086,-119.34223667274,-180.820310838648,-92.6890079216944,-274.402134115704,-64.1053366990649,-197.886909263555,-277.762389750165,-177.302803369888,-193.33857587392,-76.476171445993,-167.5232882638,-189.253120216032,-200.198368720907,-126.707744670244,-118.228263937683,-102.347615389757,-105.633424081798,-106.395789512367,-117.304166916414,-108.73409758597,-109.226643131057,-109.785903657806,-109.141752109263,-112.322633427652,-113.054622688123,-104.904879363216,-108.469099153668,-108.458206260637,-75.8271922128056,-125.540813681245,-115.121273732717,-103.150657495394,-123.021906118424,-104.713526937965,-108.642837527568
-85.6812077273504,-91.8687319321715,-87.3494017432053,-87.3466236452101,-87.7907293912361,-81.4423827649136,-114.851622109714,-90.4116032062354,-90.4981688187953,-105.446382671013,-104.821782725523,-93.5560725571497,-100.707573817454,-96.5135113333642,-100.2192041721,-103.225753793692,-120.477567904009,-105.352684300341,-111.336423572429,-113.169272481828,-103.850078781449,-130.19606026333,-90.8741878397709,-139.253113558873,-284.611328567955,20.2675087743625,-108.236534030312,-6.29485490255978,-249.497838602149,-52.204785756105,-178.277508237347,-73.0452728252818,-235.175108939287,-24.4160872514155,-181.580611760958,-210.533303363728,-208.425403801755,-229.284666564813,-52.7874529986408,-104.960335463529,-196.67321483674,-217.638708348406,-112.759105103845,-130.972187936583,-98.4744184953377,-85.304987427811,-80.0952345359042,-93.3220234576703,-84.620668131441,-80.9031223074659,-89.9501094359649,-86.4941460963417,-90.3643161338868,-90.0845557303466,-82.2542426507268,-79.0210014294527,-89.9293035832847,-48.9300702739021,-102.229077304736,-91.0712892125272,-76.8578414858819,-96.6015547236758,-84.2943975229579,-87.7916237049319
-53.3111054668326,-53.4264408857731,-48.7359047742915,-53.7952503484389,-49.8379985702623,-48.3909325025782,-80.5743759826054,-52.5534543251636,-62.4489616696283,-69.6928278520945,-71.1312046672859,-57.8782386283709,-59.3207032733301,-57.6953451828945,-70.4495668498118,-61.3862030044004,-86.3007491871783,-70.8599426244069,-75.5998500597747,-81.5604985554144,-80.0707090160685,-94.566946062226,-63.8442904182134,-114.330979750883,-193.158259150737,-39.0141329597293,-89.7619444831103,10.0786440364572,-294.322843994437,7.58021402502102,-156.827792117094,-19.6312990168463,-171.842910181927,8.86208686183241,-120.778695117312,-127.381264152248,-215.512701392675,-224.69811905353,-17.2751428699823,-25.600474306974,-178.0719448102,-218.670127109345,-71.946183582061,-133.361467158377,-115.914180568889,-50.7798781817847,-44.1224801040834,-59.1111225105825,-48.0398695383064,-47.2761264957167,-53.3472879101983,-50.5764277125683,-58.7196244116174,-55.6626378986575,-46.3510676938224,-47.3205161245562,-58.9424192405975,-19.8938644892923,-72.0319697490268,-59.9202758401173,-46.6532265632227,-69.1959506391044,-56.9400515636268,-58.1810934538935
-41.7801248804072,-35.3622821375573,-32.0795391819379,-36.247729589224,-33.0584569469918,-38.6049352915413,-63.2236742462474,-32.8823190622975,-48.6901882905738,-50.6381318203641,-54.3101538812385,-41.8607315982306,-41.9503857451562,-43.8353343993471,-59.756466296441,-43.3926166186043,-68.0769851502139,-60.3442324831943,-62.4487397911382,-63.9656470619372,-77.007572125577,-70.734274918287,-58.8151063862955,-112.698707065446,-43.0145802518418,-164.277778174077,-62.9179380405069,-15.2242044315901,-273.614277574525,39.8897580937024,-109.259683849157,35.879537147339,-129.210638886299,12.6081841259307,-78.3500201123284,-51.2516954230666,-223.013658028298,-197.085867256078,0.793574590826224,30.404294329955,-153.84406137702,-222.34786752228,-37.7605264138147,-159.686609192261,-159.934272154249,-33.9380929539467,-32.2294367148719,-44.9279184605352,-32.5314833425595,-35.1317124242855,-34.0466961896682,-35.313639582998,-45.1540905945961,-39.0719929104195,-31.5705339793929,-38.7822938610451,-44.5480405591718,-7.51979578334505,-57.8304137762496,-50.6158930023283,-36.3780693655135,-59.2588829091544,-44.7251951808747,-44.4888890773479
-39.2669512077902,-32.1708276000847,-31.2970409783812,-30.660386677966,-33.9336715199351,-39.2176423739037,-59.3613168790236,-25.8918440205395,-42.1916882130316,-46.2079573669595,-53.1273158710997,-36.3467733061909,-42.5049945593043,-44.8109294524424,-56.5761715218896,-45.0294424796853,-60.8246927061038,-61.9872055752217,-64.3980696833581,-59.9485739248942,-83.2894014978691,-62.6791242495021,-71.2861171756419,-131.034280991159,36.8568860812778,-268.762185801858,11.6444362161275,-40.8676276135233,-185.551060647651,62.9144987547506,-36.3364929062189,66.7028896664413,-109.248706676803,3.12124767662124,-77.7138843845799,1.48080191396038,-230.437218222864,-165.837187041581,-0.919944840818915,56.0988987610543,-132.405530284422,-223.429408846067,-23.4322373189529,-202.768931143112,-201.190295982523,-33.3691561076421,-40.286861136666,-46.3334929500176,-34.0533882259565,-35.6119213526951,-30.8867537395909,-36.255591125138,-41.3632526795191,-35.7300952725491,-34.3551348769946,-37.7951571342025,-43.418542469039,-1.20088379632549,-50.4400411270074,-47.2747443058756,-35.6244761507525,-56.0566250731924,-38.846679191122,-42.5265110937611
-25.4764980264571,-20.8244711664749,-20.0035417870365,-20.602589344706,-25.9060260910046,-24.1163970459146,-49.8330004123443,-13.9955671190069,-28.6447481089654,-36.3936149648584,-42.1930797482133,-18.616723692011,-30.1736918817464,-33.0182014413857,-37.1506370782501,-36.488832174927,-45.798058583694,-48.0084533438527,-47.6943174585196,-41.6233667814147,-71.2594970218831,-41.6852713090218,-66.7187969576244,-126.76246606389,61.6208224903388,-267.780898370438,122.134699188589,-23.843255575077,-99.0433295015837,106.91745744866,32.0652145862741,59.6358138574981,-94.2171269253796,23.0292915971099,-94.9774176205416,23.4626213667209,-224.21523346809,-135.574807338084,2.33048040254172,72.056489795605,-115.015182507668,-209.409628114008,-22.9545670004973,-232.824165233724,-206.859635752702,-24.7363721935816,-38.4643971482397,-38.3825794380796,-24.4215730352291,-27.640543691352,-21.6080089324829,-29.0683456082247,-26.5876986563276,-25.0005138380251,-28.468933578354,-21.1229903828021,-31.8501592247553,17.6034194598389,-32.4589461224409,-25.820762700851,-21.4711155330853,-43.5555167584713,-23.3304072373101,-29.5731482086107
-9.25092292971823,-4.72021963903312,2.15629580754786,-6.76344586752413,-7.56266295344489,-2.69685098638905,-33.5331326710231,2.41076315795185,-7.93013852307793,-20.2618372822676,-18.9586737706222,3.56047952434759,-4.98100487257356,-7.98162380290618,-4.39316471078633,-11.2410323668353,-19.3335880545568,-14.1419348473313,-6.02239448867095,5.37965895022741,-28.4446301313295,9.41635575325405,-18.4575380248078,-67.9506922256086,137.751136858845,-144.765704343764,239.398845008674,43.9898310368046,-36.1655586917549,180.315357350528,95.6030806940316,14.1209434010526,-75.7965652560426,81.189852952999,-88.1964719693446,36.4021287116188,-195.655010903062,-103.524331859332,29.2666542015645,105.038184685983,-86.0644687149263,-180.468592291974,-14.422142404301,-225.851506894777,-177.465785905033,-5.39427269008989,-17.9260855591254,-14.8510564397583,-1.39833665020677,-9.91918028766828,-4.08706032431209,-12.1123048406942,-4.88987875920396,-7.81443142381262,-10.6282761260687,5.40725428898132,-6.20625636884581,47.2730849592307,-6.03574742283297,3.69943231014648,5.09154431727188,-19.8937984689855,-1.66777980698575,-3.33429798088676
32.7815347469271,35.7314244735773,48.6334217347092,35.6286503814585,38.810372556126,38.6752512738279,14.7059000488443,48.7214700949243,41.8588673177166,25.6797193619416,31.8338742175725,46.3833033942643,45.9550734994361,47.7308458338815,56.4707311722019,50.2806037163919,39.2251738178525,59.6350724493952,68.1275174803923,91.6228680484673,64.3820376960396,101.772608602848,90.6711783270865,56.2228040981819,298.39432020437,58.7349880839749,384.29922734251,167.454841030426,84.5888760510398,299.064408587792,230.479498570229,-9.22308562543268,-14.2250622888846,175.41433854188,16.476414198041,108.718701474275,-100.121601377767,-26.9553100379629,108.361867822692,194.625286833321,8.52392411836902,-103.295682811995,54.2812298193823,-136.050339125338,-107.568406092922,38.8382045297022,33.6854283469083,44.9167402995731,44.1855699591311,37.6622202345645,46.787823114276,33.5654791775095,40.4503416667444,36.0121477330709,36.7986392396734,55.2367249836037,43.6396180818144,98.5156797325104,42.0512280717126,46.8100542062112,53.4778507376498,32.8073313315738,42.4610654251719,49.0511888078709
133.084610592357,132.195546016181,140.137062318248,134.024821168319,139.119807686374,130.190388345042,116.526944774515,149.897412040959,138.604346609092,127.258120945363,132.020471933695,140.419593389357,145.913926001523,152.54587699754,164.474860894742,168.150413345333,144.335139966279,185.255199985206,185.539017950103,215.310383603483,206.397504522071,229.539655354832,248.104352329667,221.749355300043,473.449713085734,279.110159221342,555.22296213712,327.980671466313,282.057444592481,456.014905933745,447.171736800871,59.0166591582489,132.082964596673,303.440113217022,239.198607487131,258.215288942409,93.7117547042694,133.414206361606,243.812475899764,340.28998632565,179.943448212171,54.791023938876,193.688540060207,46.3461060550637,23.1609373868755,130.956609882542,122.443850187055,164.319030322918,126.666664522971,130.624311114713,162.755404058857,125.109463922993,136.81024276001,134.439148207457,130.695906503372,144.007982847359,127.97837397247,178.915535256949,125.496273718695,122.805062042725,135.063708175864,121.260778199208,126.575913254005,139.508181204531
238.000566723569,239.287898784626,235.354962607725,238.601762676553,246.06905877538,228.272664182675,217.793090189451,253.792913742477,233.531529300927,232.10234810484,236.968623981574,241.392360526824,251.393569813616,255.135111580851,268.379918873548,285.127746042503,242.956449532419,300.162915144275,298.180592660244,321.450902889722,327.888085781271,327.458799374459,379.830905453586,356.380408847186,554.738687669192,442.518276558791,638.845995415145,446.951523649668,426.317706996812,539.771547158715,611.543305753091,166.085993801926,314.327442459496,415.945411853205,466.894707709333,384.792218671309,312.253000749303,319.038283192029,360.15976928799,460.410497403384,336.84052586735,235.742582326514,319.4453388731,234.210749243977,185.14369324271,238.066607756304,197.843860815922,296.2634794076,209.416868095718,213.398589786195,292.379019815785,212.620133448339,245.602732777633,245.703421688666,222.73540130615,224.133834729133,208.382591089041,249.673038246339,206.110802750265,199.5167606716,212.295183258131,193.658359270654,209.527011771235,221.450434272181
275.205632029402,283.785410056475,275.038713258348,282.403879292351,290.364016806238,265.740606256021,257.145153127476,294.866860596382,270.420411680089,272.086812481303,283.224531176573,278.822291475711,294.779341316711,294.616030753903,303.079719391283,324.518923555971,273.242042800632,335.960920992597,342.078931552655,350.116143169291,367.015142304646,327.373512366219,416.316804035859,405.36816577729,481.287951388604,508.395255568805,501.730523960561,466.360093522201,418.634535677084,421.893285132278,643.483575692387,187.86780180678,440.62921886072,446.410041980181,583.072995764193,402.304764138853,452.155354408149,439.890873997236,382.676416323499,490.605571900698,406.745485537126,350.976995449596,360.896883956405,351.095200949678,314.166201483736,302.172127270399,212.783032997802,366.118030897161,248.651605656814,229.690324319863,351.421317144786,248.845200895534,300.480016121267,303.254095879726,264.345575335783,252.500941169185,242.052212480784,281.660830269947,239.254812041491,232.616797162455,245.295358181043,203.659289870495,241.954171357329,245.389072729563
254.980436077301,267.575728067576,262.273481897395,269.959728990876,276.455814112888,247.86892456625,245.164408937486,278.179570162164,259.233261893069,257.905187224943,272.085998784459,255.517321250099,275.280337880675,279.921060016551,277.162817165532,293.296821059047,241.26242928716,303.378085812647,319.09670140448,302.936152785919,339.014700408355,236.758732704382,367.170723096092,376.803432426053,291.059776263117,487.165902899899,143.509664828419,422.226865314626,280.82956366118,150.258214774271,585.942605646315,58.6165208123242,481.679645147902,377.517130506145,579.680121608034,322.872777487481,482.423750223934,477.994757441994,324.798486893013,447.556439257785,406.235949291727,378.046680770309,338.076622213826,400.03209475165,376.186537948076,314.04068434279,189.007309045734,364.209657300554,251.993275969285,202.583755452815,333.940596743809,255.043225467543,291.704133287837,299.407302208583,272.132367572912,253.29298659585,233.945614540252,291.862131091471,229.104804611391,225.454825310844,240.804267548987,170.321210731279,230.766748975281,224.710321610058
217.361041040654,231.018174615262,229.945939962534,231.988507655671,241.332854793767,209.118433359993,212.588238947208,236.995837701425,230.373462344441,226.040248056137,233.80102465435,213.766520225667,230.522608449108,244.112808919899,230.719590998039,242.059330462695,182.907596817966,246.971152933094,266.931774496209,220.884136453052,278.93304759516,114.80887963215,286.357688150189,297.893636221718,102.675987375461,385.631295709119,-278.044360486522,360.66646731694,49.977816599211,-68.1089543992258,392.48631668593,-204.773983764653,474.785466774777,235.968568092132,493.462557162069,161.564021190277,431.02846936936,452.291312952888,236.469555753511,357.552172128483,357.026311407301,336.409942527714,288.709822521534,395.525902017379,367.011252136675,297.009431809848,157.35500814783,324.661865759945,239.752073213281,167.079119167074,286.957642171482,250.588096746973,250.745962959323,260.259550689713,262.501638248402,243.497233807106,202.559367980954,285.964338172,197.156079889758,194.997562034021,213.980701212149,129.397598097367,199.929595543462,188.177212534233
171.901473933467,184.630425473694,188.608829430883,180.329192230707,195.319247999021,159.297690523197,165.820098782184,188.476279707768,186.395195961471,180.005873215941,182.50712695453,170.084066719821,179.075468167754,198.286181270137,179.660289570256,190.873356356445,120.210669941766,187.400353790042,206.270295483732,143.130901656794,200.356892425431,22.7431281285889,202.055902766111,185.544485116847,17.6477138864611,191.180679248072,-553.957358753292,224.882029980283,-215.888095865655,-113.509089384307,-48.8048349257673,-485.761577331456,473.187464458851,78.9261622446105,354.033514549062,-61.8623726407941,358.388608840451,373.689024873462,147.791917305588,231.712876839699,275.122570295148,252.354769443781,224.915581768497,353.352236532317,299.893405278005,260.280220165914,111.741389491317,266.637750299766,210.63864739921,117.292681382851,234.474299895598,220.96554601504,200.8917033925,204.062569582373,222.899825428647,203.384419679132,157.187096096088,249.150835502043,153.812103200115,149.203542234082,170.383487185647,90.6994908205365,155.342449996641,142.205518729057
121.354614267353,130.381513388633,140.907156242017,128.316171136444,143.289786088167,109.013218858584,114.916569477311,143.482791013345,131.674095159849,126.311453449576,131.768176078707,126.401085955217,129.16237668698,149.282660380621,132.310786942637,141.501765895272,76.4414258703393,133.557302238453,147.441519871774,92.6026742603792,120.086412659507,-0.232797551418582,109.670356138397,66.0984800077084,11.7248288722186,-74.2635522154453,-563.447450564189,-61.5308518503631,-374.160148876846,-69.888389332728,-578.817341327756,-583.166389474964,482.857268487256,-27.586141642801,195.065049121752,-217.127278205421,318.377174417805,250.119908563213,80.1759596491801,110.480646707916,210.015528884526,153.77370962416,168.84333036119,305.968283724511,205.354284706832,202.925755039002,53.5782512143257,197.104702880671,161.731766400321,56.1854759709036,175.782308319972,170.084548035756,149.027875954525,144.20070857428,161.478644165786,138.133414169842,109.299179104436,189.347967016283,109.231025779295,104.271325368375,121.317801412415,56.6984353415706,105.649302179042,94.6271756392801
79.8168369319736,87.0793266074382,100.118835426532,90.9900712655038,100.430631193652,77.6152200896625,79.1694436400056,108.755836256826,91.0907102606128,89.0737669969599,96.1154913111498,93.6207315888815,93.7234316393668,109.865564767177,103.786852359148,104.465988017854,70.0708850861934,97.9499963241798,106.302020621508,70.8367246914121,64.2923125605558,37.75875579163,21.3216592689912,-12.3799487382642,-3.17058096434502,-311.544732146335,-342.246125554373,-375.82509607382,-305.085475609149,-36.9801258235551,-783.158970864659,-361.047459542867,454.823701227226,-91.7770541015801,72.5349352320553,-159.02450827045,308.752029965525,92.3303812764885,50.824332696178,44.7768923036988,190.552481409926,54.6305768224505,145.807700463399,258.992348192354,113.974341664071,137.630708914745,8.60947064702897,131.258636856404,102.812933703636,7.85191069067771,116.083585015929,117.648858706991,98.2177965253831,89.52243202289,103.41901388489,77.8472471214431,67.8663889134286,128.748101540837,73.9015437016951,70.5546334491968,76.4494810066601,34.4074120687621,64.7230732394394,58.2768421953301
54.4563514605559,61.2998339304298,71.6591816278344,68.2778538587129,69.8385150788854,63.7534109920956,58.2489904397871,81.3988857599995,73.4768856129521,70.1572050296241,70.4232608964751,75.0493400927838,73.8382379755961,83.2213726022411,92.8098961950605,81.7996327444212,83.3565151612716,80.1468100859507,86.0613140998828,63.9614936689659,41.0464163424724,85.9251785652747,-25.2346253903328,-20.4585682219924,-27.2466881805263,-394.15315370192,-49.6465173389452,-455.882123405397,-56.8979988541398,2.71753870830538,-517.413797094222,61.1945187175962,362.407487150591,-187.820702607738,46.8775629628007,69.673238561572,283.986900502698,-65.9394151748166,63.272295854688,38.2278602745657,183.714182196382,-31.8615003747362,143.21672329304,192.76099014501,47.6489904215204,84.0821106819719,-14.5205957453499,81.5137734301453,43.3216791496014,-27.8582110706103,66.2970002384558,57.2775468617317,52.8269525506826,38.9692656899231,50.3000378799633,22.2678728308378,31.5412011409697,63.0572212612737,47.7099707151533,35.8166407070498,33.966263102941,21.4064264150268,33.9509764528928,31.4828769121455
26.0399925480609,29.9341712843873,38.7173658752859,41.3630302897855,31.8344150695009,38.8334419731045,27.8034039612814,46.2780196540686,50.8095484747479,39.5521623538092,31.6485266855016,49.6537345450883,47.5589276690899,48.1601954647361,68.4682620197679,49.8852899076925,72.9042490514763,52.5807726922697,53.1908181816018,45.8530517031037,18.6902345004185,90.6411195622011,-34.3115535882769,-5.23710216671286,-30.9553870476545,-308.255085409264,122.600815543738,-268.287340855709,169.862303120237,16.0167381158036,-125.99494149067,327.619233608712,206.48185532397,-317.138364526643,82.1940006048702,250.988768536837,175.204329999946,-170.644367584416,83.529806079901,33.7257119950884,130.048781822743,-88.6852405912892,111.667131350413,91.3974013777718,10.0148498292341,40.7479487253632,-38.9680375385648,33.7684938574623,-24.979832797902,-71.8680161390847,19.6727067529581,-38.1648104409965,6.55925003712007,-20.9124957367164,-23.2282814230553,-65.4072149202546,-12.7968155467857,-42.2837201010902,14.4807144929367,-18.4256671323518,-18.7328529440869,0.559072546825628,0.316395183844418,-2.59394930798709
-31.9733730043412,-30.1113338386643,-18.9680283256893,-14.9098338080482,-31.8457243741822,-20.6556566869593,-31.8385607071473,-16.1297417144375,-5.96865305627703,-25.3603311067393,-35.0947743991798,-5.4944741933545,-9.03611670344097,-21.0080741276214,1.56079270772775,-16.5812898432225,12.6988792816157,-17.2611612966265,-26.9788738659837,-17.0877113967611,-46.0756804791997,22.4679547327991,-68.2710208707,-45.3642227904298,-69.9089778191839,-195.781395650722,73.8395242668162,-74.134593921176,187.549526413296,-118.846121940927,31.5700073862769,220.733482108301,-10.8073407213104,-400.147124458213,48.4142201415877,203.908299185131,-70.4123319522748,-198.541705870571,35.2328251181251,-31.7145116918859,-9.10043085615025,-125.210529030815,7.3038904301739,-62.4749236068636,-22.0754269240318,-9.72541579145254,-88.4828393478145,-44.7660828919825,-117.659300361016,-127.03738454324,-52.9138148508745,-184.704461832493,-56.417695326234,-108.869933479334,-144.040237660934,-199.238237913296,-80.5542005190681,-198.344577638756,-46.1933610231427,-97.1991567841868,-91.7053099164596,-41.5182667085236,-52.3417793122813,-58.335831817485
-110.794555376913,-109.308897085111,-97.0105855450012,-98.3961028979117,-109.662671172037,-101.767372448863,-108.6698721758,-100.209876988065,-87.8479761695835,-109.064078031317,-116.560957993194,-84.2480820439528,-91.2020754175924,-112.433793569283,-98.9492950149946,-110.167876060155,-85.5351932264387,-124.770670349853,-135.633253237316,-133.44792085979,-152.758209600952,-111.477071176467,-162.819855739232,-144.211362271139,-185.179342966832,-194.598266905192,-132.476327259267,-90.0470850989925,-4.09375550663029,-347.032230207784,-40.6569369877932,-46.9182540463807,-201.574097682539,-404.421232499246,-91.3502247878117,-31.596225208325,-373.716099640839,-176.878626445903,-107.124515683175,-150.70919433336,-204.448143205796,-136.255705004477,-158.509418124813,-249.788633147821,-65.6875689457162,-71.3800417749351,-150.724424846076,-184.566885071767,-214.345196015883,-171.295047759987,-176.440604299266,-352.668081485902,-135.753405592331,-217.583439241868,-293.265347990076,-315.330048698096,-165.260187774375,-335.461839047287,-128.582529170056,-180.931230550289,-167.723426207087,-95.8981345494663,-124.203426482438,-127.53512699286
-177.737152682667,-180.046401432481,-171.054932758993,-175.318869082119,-175.015043850066,-174.657766494561,-177.460231392839,-174.530926310958,-164.889336847513,-182.547627778697,-189.230107417361,-163.21736565254,-172.273517499498,-188.305611517973,-199.016987692851,-200.812392514132,-190.445338988371,-232.97481697179,-229.992051737855,-268.821207034693,-265.884457225228,-268.372398372499,-292.771896643452,-250.123316536779,-336.322957669331,-298.469307049037,-361.302876488258,-333.472808102502,-228.766290596289,-463.573032509377,-178.661876880701,-151.995438447343,-235.023557728007,-368.612164977088,-246.353747336634,-253.882114746987,-539.204207836512,-139.158299801318,-270.628071360484,-270.598155527795,-371.500493273322,-58.3229930322536,-323.146697404266,-373.025149805276,-110.064122759494,-162.626486955628,-177.574552122329,-413.968098344693,-250.919039995439,-176.234599239746,-347.107040239255,-447.836829395236,-223.951179485265,-306.887597430539,-381.807925338115,-320.100529764926,-242.185786421309,-352.593393018753,-205.414939971108,-238.089634652338,-211.249830580196,-143.89413547844,-196.025357937627,-183.889734120211
-228.669562073186,-237.121557280186,-232.754844172006,-230.461425364982,-224.973752847258,-235.563780505714,-239.935776153116,-228.337639759443,-228.176022926562,-246.432143894466,-252.734536831799,-234.36485395843,-242.344998200068,-240.75012136261,-279.311143596844,-276.402306928986,-280.922738813048,-321.212537930023,-303.997335076259,-378.932717065915,-366.59583083101,-395.569931187028,-421.711526409914,-351.557069793124,-491.770129882722,-408.904819911678,-525.684143810773,-702.40187737853,-331.176571592142,-450.722821118161,-287.120882377923,-95.4892879654607,-150.066906525031,-342.595608512817,-369.006177443018,-349.977544369798,-476.831818784467,-99.9953720461304,-402.682164558683,-384.24755093182,-456.952642419313,112.701917774289,-439.998337805898,-346.936347112309,-143.154133907201,-327.808551208047,-147.773489140336,-681.355296727198,-208.25705191254,-140.29460942975,-519.861130037724,-386.956899578978,-328.417794909441,-349.977908974929,-337.13862436477,-215.955819215125,-298.06881552898,-251.8913582614,-272.279340694947,-264.080565863948,-215.033065988082,-182.371509854038,-254.526706547206,-218.33362694341
-285.626381928795,-294.210020776919,-294.073623119407,-283.824106024879,-277.656568979618,-296.854468960781,-310.529336237503,-281.712827245056,-288.611844684334,-317.029547105179,-320.733208732027,-300.604317640413,-311.25575133288,-295.916817347895,-342.796493108369,-344.820076194972,-350.264523430226,-389.998092953798,-374.351763331627,-442.066599566225,-447.892669423676,-458.834923000476,-514.47485018207,-463.060998739185,-616.988276522973,-452.886348044556,-574.846256639966,-969.877888155646,-312.212463656276,-448.073728507646,-309.654213723576,-49.1339019843895,-117.636440365817,-350.567629483822,-476.784074288278,-368.704749427175,-294.753586719584,-82.7723643289969,-521.5834325472,-511.33203888033,-460.209579764131,237.231158113377,-507.592371997981,-215.329984843386,-170.017994598876,-537.837723970044,-126.786992056982,-791.547305191275,-183.264484995006,-115.964017776355,-616.2600622896,-233.928666008632,-432.329373833997,-354.599457489314,-220.48745099514,-124.760646620435,-331.587923488101,-158.856359776797,-343.282221811313,-284.873064854402,-214.381152516991,-223.651770887121,-303.353380170729,-250.980533641415
-344.730837467175,-345.379049939691,-348.860815739969,-338.83660194351,-333.152482959019,-346.21353938569,-373.315182750768,-338.71127005732,-344.153467435655,-379.984412582909,-382.184627999483,-351.569545056511,-370.590841370661,-359.816783460851,-388.728438255275,-399.075138185689,-388.340911682061,-429.616841329638,-433.382545234213,-458.518826453036,-489.517828768182,-456.358384453556,-536.857615887705,-557.289987715329,-628.146250532503,-442.9237215852,-500.436458271919,-913.018182135488,-266.907548583637,-470.668678239921,-250.308017524172,-36.7575742198958,-189.051314318242,-373.492845531434,-552.237446804562,-363.986029286332,-144.476816523334,-101.357314395094,-620.19907418389,-620.124213967822,-393.389145193226,201.072482801309,-528.684852464387,-97.1820846465455,-199.608756520896,-670.398290086402,-190.728709578482,-641.781500220522,-257.497680547055,-155.718727440196,-588.090051889413,-157.039237801732,-476.222502101708,-331.370970055879,-163.190308944173,-145.478750355972,-339.924596102626,-170.288159579205,-405.766378359354,-312.30808164406,-241.59929155195,-272.256290763827,-340.587790885201,-293.217918347277
-368.03680652496,-362.992977307233,-366.197302885726,-361.99709250198,-362.602707171174,-356.399356836519,-391.360981052354,-368.919838007217,-369.838119619176,-397.806246461838,-401.730053543037,-366.796017152708,-389.692946514376,-395.373296941718,-400.242700306057,-414.360848123481,-383.15488722903,-425.875775067876,-451.771939420933,-436.455228134533,-478.867597210804,-414.782968316257,-495.744575925571,-577.36585681162,-506.19899744411,-445.753649203386,-376.770743846965,-606.803009385402,-258.406111414188,-437.40453021926,-210.540859574179,-15.9504153304263,-264.580393927951,-370.585310443896,-560.773247220107,-335.919783775414,-82.8929612074972,-112.450153755719,-646.189116846811,-642.795940943493,-294.633952996262,67.7972882510271,-491.999253065232,-59.7986387801709,-223.057827354721,-653.183344495529,-280.629260492307,-409.123586473736,-327.589861361416,-217.67769212965,-466.615972862583,-194.402497633595,-426.637933197773,-273.881091507747,-182.611620719368,-233.963522666973,-321.148886521054,-245.37328687318,-424.61694292219,-323.42377908687,-282.203712163061,-308.050305834933,-348.280774211907,-322.772087194413
-336.469528885885,-334.456731875044,-332.740998992354,-334.2544169829,-342.857829275262,-325.518377897195,-353.445288479286,-348.054971522001,-346.479527198727,-361.794861196557,-367.92567725501,-340.289374744921,-357.145437398539,-371.876416937087,-368.290853397752,-381.823356470429,-343.679179580968,-384.801675350837,-418.759728883873,-384.339531117482,-428.81247728201,-364.344306669495,-429.856948826575,-502.995775749443,-348.365483945732,-464.394590595767,-272.632175409451,-328.555295997429,-274.598720222034,-341.721272614858,-261.085379050725,-18.4845401366173,-254.931970853162,-320.640813229817,-502.810632449196,-307.602948397399,-73.3850546038283,-75.2932176244234,-572.470788988749,-545.637898792356,-227.710441899622,-35.1251911015837,-405.727378797957,-93.0925990142845,-222.250658874692,-521.518985056965,-268.296049149576,-262.648522715415,-255.257501581056,-212.762317920346,-311.002061912354,-220.260042038819,-315.188882408859,-178.047167396138,-180.74320049484,-277.031778037439,-274.197443879929,-286.715102731711,-380.950741624646,-294.453113815568,-295.456850930883,-308.727908576207,-315.617443313453,-316.860845541629
-280.917851905467,-281.867014695617,-276.085517310422,-282.086590765205,-289.32147753221,-279.862751810905,-291.145920213435,-294.541916416104,-291.958569812755,-304.524075497383,-314.467664013888,-292.316889668458,-300.375909204601,-313.301311031751,-314.413910657102,-324.195759531479,-298.544558399964,-330.448402765469,-359.294120806732,-319.985895768946,-363.481283586476,-319.314019908567,-356.46382587086,-378.482888844328,-231.679791994542,-412.469678035339,-190.387157853888,-173.573127579329,-268.011864507146,-230.350573086197,-344.976014746174,-62.5366781581088,-161.40502985688,-242.778173905482,-406.674967878542,-313.508502671754,-59.6974073874664,-26.0075543592194,-431.338837149339,-371.208247143662,-212.401373019475,-71.716381620733,-312.394920052802,-150.293811034841,-202.922809749178,-347.288021426807,-173.209551931423,-157.577668948159,-117.627215839416,-151.200742436958,-163.038047164576,-178.655216774326,-200.826155991487,-75.8559364067911,-120.805891393491,-251.073224287839,-209.099485727519,-271.578708247358,-290.588047733952,-238.039841504498,-269.625372421289,-296.182924929392,-260.047828522236,-289.661734123939
-239.367244559229,-234.75205086574,-231.967817785135,-235.980860591485,-237.59303448071,-241.309614451809,-239.609342486458,-245.215067165042,-241.47952868701,-256.267641304584,-271.778433185323,-246.388423904351,-251.68091657625,-262.499534569971,-265.703259054135,-270.952223668238,-261.003047595708,-280.084482950839,-302.836967579088,-263.760782954226,-300.301363981219,-276.087882933738,-272.977902478665,-264.118547099677,-145.624465420963,-260.232172933297,-150.619488671048,-41.4245562509547,-213.929969435371,-127.641319848169,-361.206689647749,-114.512303068857,-55.5412136215201,-186.727278796625,-309.550006773565,-322.834792951134,-37.960999751308,-13.9188592999966,-289.604700850116,-215.023873008275,-207.246857649178,-78.5358644760105,-251.424570854361,-187.379735342711,-186.167798795853,-197.592351888017,-126.677242723786,-53.1213329013122,-74.4250021092954,-123.363196683079,-64.7159126271952,-144.434145883068,-126.714614110606,-18.9319319572104,-67.9252552030825,-224.94006183837,-151.256817960619,-242.1952806779,-189.851070462374,-184.14957249255,-226.883880056463,-314.108712940021,-208.366049365836,-268.467431786443
-199.151013499559,-188.494828927163,-195.026505970935,-187.078066768573,-191.276334301023,-198.579587844172,-190.670019176721,-198.941179019451,-195.022030709739,-207.137524585698,-222.914634237186,-197.338056211438,-204.88975960788,-214.987197644607,-212.850322662661,-218.691607196457,-209.285303885838,-220.620401933425,-240.99420046027,-203.556154949639,-229.718483749855,-208.390384545211,-178.874986059233,-167.146637524544,-59.1844966789221,-83.2082273419495,-164.28138499803,109.1269560606,-118.711635565548,-33.460643193296,-265.51472967128,-151.701564470942,-7.90180716377386,-166.980593909602,-217.356487009307,-265.86467770946,-27.933982402204,-22.4900987695336,-178.186629494526,-123.772295430306,-169.737692348125,-75.2394190217944,-211.01632574395,-180.181435138799,-164.868308461621,-99.3940374532959,-138.607498578889,7.01193063074492,-103.745653136936,-137.833188885869,-24.5057424379136,-141.089068078493,-87.0295512285941,-4.05181764007139,-52.8188026992744,-218.433839522542,-102.689468974187,-206.851265462007,-93.8388312118324,-131.341080962643,-178.310625465166,-337.308865589687,-157.720943798075,-242.467321782467
-125.548864929702,-120.116160418541,-133.07637127256,-116.963190387845,-124.967920155561,-128.946917747646,-118.906264609002,-126.855052336785,-125.751398884325,-132.429968721245,-142.349168979843,-127.010337471896,-134.870005491276,-139.797289483783,-132.888649728995,-140.413993944998,-122.737826371809,-129.718341512909,-147.37070590094,-107.874291066747,-128.01156766441,-86.9846590578468,-76.5167660477152,-59.9658460994535,34.3352409454719,59.3771671977908,-132.179360742742,223.645426459874,-5.11022811887536,54.2618303310767,-89.4905214994408,-165.203763017633,-6.39772979865681,-131.886760722222,-106.362125792932,-125.980376784237,-11.7993398045501,-14.1209374253713,-72.8434272896423,-51.6854184998417,-96.0505472552741,-53.9995019629907,-146.064840633266,-124.903541015207,-109.127706021329,-22.5112924326814,-103.410066617791,33.7011030758466,-100.669393101496,-116.559750371735,7.66829238474702,-104.385110460413,-39.8493577596972,21.7860690287168,-31.7735648190392,-176.48439102621,-41.9801076770705,-140.905958752981,2.85919092807363,-62.3638071982213,-119.171772091372,-287.674891234421,-90.3872358978849,-179.76326958242
-37.8054217419402,-41.9876790321701,-53.9296337310628,-44.4781274545713,-45.2808691940873,-49.4522147624244,-38.7311229719809,-41.8529102146533,-42.5136731328339,-47.5563734902052,-52.5377924687343,-48.2539560328423,-54.0297821412493,-50.4931358467975,-43.2985364477154,-45.4108111931462,-25.3051651942493,-27.215366076919,-38.2846448961664,11.3929089152177,-9.98175420962035,66.9585996401224,18.5928413632027,44.1032068982825,115.604872975846,163.842518015887,10.5332567349403,275.169470184135,76.1567955279351,114.445620653281,77.7735549436261,-171.049846244916,11.8876407082161,-58.8411438292229,2.66645200545458,29.330424735472,13.9076419913514,6.92763967113981,25.5990503281424,36.7061211321187,-23.1781135932466,-22.9141131118093,-60.9004020132711,-48.2517633986008,-20.0303486001136,41.4329371244248,1.24057844157192,46.8312527902884,-83.9701822153346,-40.6878448444712,54.072343625647,-25.0918612176851,19.9152001221282,63.8006242661539,7.22946272713018,-86.8417265759222,18.0391023153538,-62.1509032686585,78.0141381671837,1.97049197636924,-62.2447845365166,-162.342003172829,-22.3208212106702,-90.9563883910464
20.5699317412052,17.6589617647025,6.8165111939752,8.20546225058361,16.6869079936828,6.24005774339385,23.402423987725,17.420181308069,21.5454613328725,15.126158268947,12.705257262413,12.7810158803859,10.2494377936887,16.530496900682,28.2420557889329,30.4018023785468,49.6511799148548,51.3227705228076,48.8573504541476,113.985991312792,87.763808262609,197.775230759335,96.7510403045542,116.568909035424,176.528472435761,244.729499775862,158.40071126413,307.066695730713,100.626727072468,135.046621324152,175.181521401429,-190.0079147047,59.3709788876524,8.45467527459773,75.0990678039325,122.314368492193,10.2480127050543,26.8743584423549,82.3411438150876,114.675000861406,7.02396681872769,-2.34647155453811,-8.8970696333286,13.5310518917247,67.9184180988216,51.0187298151552,105.446827511685,11.0530034129895,-90.0911416833787,47.166977211551,81.0451964698092,43.1127974382468,58.6471765422206,85.0160631684226,24.6218849470367,2.48811514275347,51.0132778451854,-10.9607302427752,111.28711030746,33.274101220555,-20.2339005066416,-32.4941745095674,22.9932520385226,-11.8321821973614
63.710496709007,70.6520458301638,55.8798218731145,60.3004521706895,69.2191048186812,49.3283951559246,80.7048433261068,63.1076049142644,71.4035557058711,69.4067324178594,71.8796469200183,66.7088127282924,73.3634078607577,74.8003296025165,96.4400837375527,96.6627527544681,112.037221551535,125.052002258931,128.047677177441,204.970473200393,181.190000545906,291.52314371584,188.996184546861,200.382871841327,263.18067878394,347.205865886249,214.907036053583,387.593381696181,149.937297473311,164.137939433711,253.04460691614,-152.72804596989,107.29103124599,68.3817876279467,162.131957697542,175.74058212644,-8.50238534960043,57.513641295458,125.918850984802,180.406421899106,23.1809926495704,3.49036171754142,16.4097266223546,69.2711012079793,134.292241731495,23.1711006197172,186.868926557409,-34.8710930668604,-41.1802526046124,149.09265845738,90.824732967804,91.367188241135,80.7135046787158,90.536990845659,12.1047774028165,74.3403401778963,77.3776444974451,21.19353244735,141.93823945639,51.2435141021861,24.7224260321814,79.7315522274491,64.1665081646733,60.8340819811578
128.060149674779,141.130460160503,119.224158476866,130.732174026343,142.484709493286,109.303490152139,150.651976035527,132.654354751442,131.626240638302,145.868687535341,159.908735363147,135.200482540131,157.223537110734,159.696242141531,180.330043558468,188.828926295778,181.473764074344,232.092938122482,241.773613338265,313.629156095525,316.252567674512,357.703350471733,323.053191951125,365.529262013327,395.790584005155,513.391040121262,201.538293493622,527.371456454325,316.793478058528,239.78149731711,388.868373987005,40.5851925814924,164.492233895,166.785188462091,318.392458844425,279.589689318531,44.3963411444789,108.07540938648,225.517120146883,273.898975618806,123.186908243202,-2.04623135057739,91.8522532118178,160.799839316747,184.310141166763,51.8356623614179,276.377628348715,18.1283225799712,96.5100048712667,280.264644084801,121.723545458132,142.312748049768,117.463781993509,87.2700920692918,-10.9437046466593,158.359145777224,117.517858909051,76.4512991621043,204.359300099109,81.0672232519313,87.7565801711092,207.770107544692,122.650830112147,150.303986553162
201.297708053629,217.594296511888,183.115749221747,202.128590275067,228.131035148916,177.862207500799,219.421027802144,217.626250858129,196.95353224833,232.460588183846,262.897484342472,204.057269382872,240.525459088821,257.450203369994,261.1640259547,293.830822455418,245.945269869498,348.622931302697,379.460590953133,415.377242041609,471.544789690389,370.939665231584,458.775844753573,582.879944875107,474.267377877161,693.5540367782,126.7486127617,629.059726918819,530.563510526832,307.868108082055,535.248447114941,338.7756558285,258.317283017735,272.122446891773,463.976513737925,416.026518292024,198.002498865591,171.637523828987,354.006686630701,375.17012737208,330.533241177173,-8.08460943459487,230.419635443644,280.488060935822,239.90198657718,155.497537208667,367.602644717008,147.713643251673,222.099286676123,396.493445433647,149.491012049909,195.837500201971,153.75725416581,18.7386168043371,-38.3963829925453,274.145692646119,136.430876101248,175.458172498499,261.076110970423,111.12818937218,160.45395909942,352.278368609483,181.476634783835,249.604559855206
255.797410467244,277.758039285349,226.730540978208,259.035186474911,294.591021119447,232.470378419407,276.080513744138,283.711605831222,251.118355788245,299.182260734561,340.978883293523,253.317716203021,298.11548974764,328.797839679068,316.083533644167,366.694615445344,292.995221114494,417.844789518838,478.185271508324,456.530649505029,564.094646749796,331.63014489319,527.548762291816,730.209375987556,419.953233037275,769.372966014488,7.97777091790177,582.327860113481,613.551697471977,309.837593360611,561.919476361466,557.512153395232,335.5934371972,306.905843457403,485.980973727756,452.047621951446,351.047477899491,224.472744848605,414.985520084094,400.505074623791,519.276250534177,15.6784523346947,339.516728040603,355.70262525821,319.952193236832,241.647792247982,405.493830436054,223.2691152921,280.604401519453,435.898228680391,111.297049719297,265.286334730534,154.229699596306,-125.297124225516,-31.1334299228122,404.275937990582,111.846181119804,307.592374890043,278.014641341758,140.852357684094,246.958580095504,474.334639957691,228.39307040987,337.229201742203
290.061732927982,312.450410777014,257.895946526745,299.035969670735,326.625392633097,267.435666508497,317.538801222605,312.949823670831,287.605265926078,332.37244519427,372.824566193221,286.099133817859,327.499090829735,357.381818723656,343.36356054696,386.57709236504,327.734155601645,424.232863427565,492.279993038232,434.108389090468,553.975015533463,307.770624140234,521.584041400785,732.149200260913,331.237970554136,689.578473872049,-21.8650302692831,420.261778810862,506.162931808489,271.146875365981,431.892449150823,566.419729127891,265.136737232624,283.754663292507,405.130472278085,335.078030310806,375.897390270528,197.471005500971,394.114969369641,323.977742777545,566.126863831197,61.738152260721,347.718816891434,333.77069797847,379.795641265272,257.095879007865,333.606871781429,219.500996541986,304.990563011082,351.514041508984,21.7959196292833,347.395588742799,132.140280913779,-217.509177308376,71.567736719469,503.997070241805,98.6480384604072,430.199381464658,285.802441059455,193.8207879306,349.586627693163,540.869575189944,273.85637996862,398.180238626369
293.643663399407,304.318493152749,268.860288374072,298.551065251036,311.617625148359,268.624994454604,316.13254709538,291.090997857317,287.000191212028,316.675654678884,346.487508410532,290.211684483054,314.042560589351,332.86933078771,331.193978008905,353.127410131133,331.817493813827,384.226699484325,426.735905969291,371.09368000073,478.444595157254,306.756257814266,502.980256136274,634.928765147217,310.611767021828,536.003889228272,110.795481994392,290.11673807978,304.081683361146,211.558620880406,221.355242881468,376.615313586154,-6.69565261320281,260.647020644883,310.089513673534,151.097955961718,260.218443222816,30.5817668935781,351.556650266211,204.051309879275,489.953828789939,45.7669981915714,280.808771123984,235.238118987418,322.319314560681,214.669243732638,153.936431849834,191.608094774698,255.938865210398,147.554928503709,-43.1376601902098,356.734664328501,116.87488724716,-154.318777438204,228.540534674661,520.184464812631,151.851786937231,475.805218994816,305.224257239595,252.90394328748,414.257990964197,529.79058393681,297.536165727146,407.081079819966
247.867085615487,242.712031427083,232.313951238955,241.72136690932,244.124820278716,222.194682976366,256.350444133265,217.11619616373,234.265722732211,248.334688171577,264.972818391438,239.84118090835,245.682766855279,253.122388217557,261.225604891147,275.921498470535,269.298503729355,309.10056899384,325.254045394602,261.047895818019,396.5397346768,218.462011094039,521.621091123031,537.069558287337,293.64360994264,435.993639583014,255.181615660012,273.016586092171,121.225179035806,100.153569861256,11.7381715631351,107.79049168193,-355.402795290865,237.578042120923,221.543173273632,13.395375851229,121.217252927267,-185.971673801819,317.619208512826,89.8124753967822,379.087579411046,-67.0087069016718,200.550306683324,120.158989640376,137.851629494814,112.109229882187,-23.4523541137829,132.82787060688,82.1763605245578,-22.0677070050767,-46.4729078409835,254.913283159862,103.701742725857,-9.26941074314188,309.119472438077,437.934873870427,229.421072607554,416.227945064372,299.4988122633,263.61255525562,381.815572362994,443.518441871372,261.786422551737,348.733766884033
168.604962647458,155.48707332396,158.242022020286,159.527101025683,152.777469722852,148.764419764661,173.594998638686,124.218802006806,152.991324930234,159.135574644095,162.419475712402,151.067780515513,149.01887630069,149.276344740841,151.50820895212,176.923733257759,150.772147501006,204.217697839237,226.473645242348,106.246222327009,322.071881937473,-5.36380767573711,516.554125867868,469.300478891209,191.275577589252,394.898769796598,242.883723504442,284.88723431879,6.81969655780606,-45.796760589024,-166.912674935387,-93.1950832326181,-598.086025081055,194.238731888276,93.1427968442386,-29.1763266998974,67.1808702948791,-282.627330548308,270.078785066734,-31.6141826977059,270.446194239799,-174.942406287363,132.414251679741,27.4397320384399,-56.5568915740559,-25.4177084354397,-77.5757904174117,27.537304160135,-108.885927112603,4.55248376376424,-7.97445931718769,145.717794949207,82.9920612350723,83.5981287926005,259.026111630066,306.407214871338,240.853248479122,293.932190479195,238.586908222997,210.065310400472,273.67271154038,325.11340231183,183.39438004362,251.0960535337
85.2603964045945,76.2256867993276,80.6163154695827,81.9285088048448,67.8143576260194,75.5601788216813,99.6838610918397,40.8415239155866,72.3932775064096,76.0229672459564,69.0620013025368,65.413106358514,52.8893002388196,52.8892336834766,40.330938192764,68.8501261855252,29.4687967539526,72.2970551136421,120.883024517608,-54.4530846070849,206.182350970711,-233.836093903377,351.146640767655,363.093958851949,12.1765161910501,267.505310845159,104.183132635749,160.293691635747,-63.6778030238711,-165.982530554136,-329.420267247002,-151.539214827306,-659.384844974368,140.334952854312,-115.385807733784,-17.4467393298928,61.2217092150699,-253.467363264484,172.17215402484,-185.2099828802,154.832240759182,-190.505591951183,65.1038882379018,-48.2740761594085,-170.66192520585,-116.799587024595,-33.646571941471,-63.8734775236125,-168.279569740517,121.892210140438,29.5083929490492,100.900607720085,61.1471882537114,89.4806045515144,145.081249665271,183.161117601765,165.666679851455,159.61476064346,140.701216892277,124.553018112614,154.106896141872,214.124066004605,107.873694444127,150.875138219344
10.0189269422386,8.87503267286191,11.1140616130492,7.62922592978374,-6.94950436976203,8.11439358047736,30.6731618128101,-30.9235580853916,-1.31105133610009,0.115939226860519,-10.607766332892,-6.11657019540186,-35.3054097992719,-29.1949010977903,-53.8137156245648,-42.2192690280321,-60.8236693089153,-71.977015053698,-6.8627777273549,-189.886683282255,26.9362421390718,-324.234134666963,20.267920363213,165.63149807497,-187.850599358538,-36.6841882453364,-30.5805879123164,-129.714075915971,-121.932817813203,-232.984240131229,-463.010647640745,-94.2772652770878,-572.030080248807,102.605379740953,-349.896409193839,-22.9714115180172,-4.91911597462135,-217.227961328536,41.9639009333071,-332.970778472485,44.8204227560232,-149.568002165404,0.717137379638608,-113.968042862507,-217.258121581229,-120.471681536448,6.51725735593782,-72.8183286792686,-98.9164696514494,122.585197199075,39.9335234896248,68.4529612779615,40.5489950413346,54.7142116669198,47.8232865347089,86.0987626480319,66.9690578047014,36.6282506605888,41.688505536662,41.0214686829691,55.8050363679804,116.607808928236,44.1182698943139,60.5309133423031
-48.851063235113,-49.6964075432183,-46.7980965701626,-57.2223598829764,-67.3672563246028,-49.8462617655127,-31.8526662166734,-86.5560179047054,-60.6449468385207,-62.449271262963,-72.5847328671214,-69.9595070809663,-100.487664127185,-88.5336693981571,-124.166601146104,-129.691285030173,-118.583794010764,-184.107721030215,-117.02804410724,-284.56114757852,-139.155794334415,-294.813478207887,-286.363203927623,-60.4871932747377,-317.999676914247,-413.0011763317,-57.2289373861546,-396.204677619878,-135.878309320758,-199.088748925071,-496.947556059232,0.376798611878595,-410.145147909162,114.175968303642,-466.009474199941,-81.3225843979979,-126.397198009674,-210.36388099429,-31.8493053167019,-400.971404081851,-22.0824511804506,-106.886958497118,-26.7491143237648,-145.870961259532,-225.551858776162,-71.4395797011295,24.0885244487991,-16.5497829367816,-6.84681530885603,28.6015339622193,37.2543197388938,15.9190504450734,20.068730891842,20.2403561127601,-8.99268835802883,11.9341091438097,3.62771295329617,-55.8463038754511,-35.8655497987915,-21.0989665000075,-18.4049869740021,35.1662079031149,-14.5805651492468,-13.2581533636533
-77.5945725504706,-83.9503786024143,-75.8512551314319,-89.4980920862919,-97.1239925344587,-82.0311035695483,-64.9476559308169,-111.099079943205,-87.5303788650007,-93.6874070183365,-100.130417956728,-109.002684749374,-122.080376054453,-107.98448542499,-153.47241705955,-161.010011679753,-138.767781701937,-217.585311108578,-155.609777272281,-303.796115361329,-203.323900531586,-222.117781114148,-403.358840966727,-198.335291984386,-268.23350967823,-651.585752333387,113.520764804301,-444.797271929048,-65.3717508641065,15.6895148907991,-409.275728697356,89.8578144173751,-257.037524360577,200.489486830268,-410.568581553789,-166.928241263146,-192.143337724671,-209.890779496583,2.02505886992016,-367.656294826138,-24.678259144584,-61.0590716740289,6.97801205313161,-133.158425225306,-204.612044096677,-12.5772128152788,49.0439377424322,37.6746665139713,42.3414528074359,-19.9267040949438,45.8570072588387,-18.3063288218234,10.1184050642114,1.25549493600345,-36.2136380219259,-40.3788799277491,-19.5608673769553,-104.775400206127,-81.2987862794116,-46.6561553439537,-63.1903309163729,-12.5405214328855,-51.4475077389163,-56.7834927319822
-63.7970370763264,-73.2363115841596,-61.8099181564547,-77.2148774548708,-84.8062371656925,-70.7991980861286,-49.8388527470352,-92.444304754135,-73.5736711284976,-81.1792092531354,-80.4392370740366,-94.7487895116651,-98.9586648299995,-83.5540646522035,-124.635992095675,-132.48757050233,-105.028888009089,-171.192119994172,-124.118414458492,-228.771518997198,-168.356160876288,-111.913901628298,-343.889936152025,-205.201495362316,-46.0213948215707,-612.400540018154,497.136710378219,-296.753104630288,64.1272929118844,364.121857635416,-260.242882864924,213.912521819044,-164.606498192776,338.237818785914,-322.316200918498,-175.848680331276,-157.704034598643,-209.811503220571,80.6103317340524,-263.938945411456,28.4013382609786,-5.12534823865574,82.4266123931852,-109.755582878145,-173.843266472438,47.5553179618905,74.3149478855015,74.2672674344612,58.7845913003141,-5.98134307580731,73.3141244768355,-16.887138946169,25.3356660554874,8.7544243187891,-39.8772674440272,-65.8952557982034,-19.2843725757329,-118.032135711486,-83.9688560504142,-24.3887433222561,-66.1657802286988,-12.8619569751011,-43.2866460818548,-58.5474143178424
-12.9205429102499,-19.8573020926789,-14.6151339010059,-28.391762564035,-35.1910117519555,-18.4866579650078,6.75108706470189,-33.512518563658,-28.7400670758159,-29.1840697324456,-22.284369605448,-30.6328012419533,-44.958018315635,-29.2726358609816,-50.2526944459134,-68.2145884638704,-25.5483398812498,-87.0719182651647,-65.3848918511349,-107.414878145214,-97.9527700557876,27.85489002545,-214.97763950931,-152.870315578985,171.483391499119,-367.955233717298,960.295233217663,-163.416473907151,202.272514550491,642.726846406349,-57.9407941419766,421.810867431799,-141.382053532697,450.142038758163,-326.06712956485,6.65147462521824,-87.2312786574273,-173.968755417676,114.770924547555,-104.272152393001,107.366089518429,52.530818215541,164.294886591553,-97.9564875979887,-135.435209809541,112.085293311192,90.4575612880755,122.590233827078,78.8742669154971,21.5004708622605,117.348747084272,2.74621028379188,64.3682673454305,48.1279883273933,-15.759984576751,-55.3275380010801,-0.622637361578109,-106.305447270323,-43.4493965595269,39.8372751834187,-26.0496138550908,22.8805563009066,10.6701667199372,-21.2353634478859
48.7074995787811,50.1718747726673,40.9507281119265,38.2090931934762,33.9321340677691,46.2692959876137,76.3289850187595,40.6052483389613,31.3285307642196,41.5651051529419,51.2999399935928,45.0312374596106,25.4745669181532,38.7174353630644,32.8132107533666,8.40472258476127,62.7908751036791,-1.75595887298138,-3.45788735176041,9.38184932756715,-27.6218227940333,153.219039375995,-84.9341918717404,-124.680660535449,236.932129402648,-103.398628339845,1327.37387184917,-186.690745636733,345.050735833648,717.88430189701,272.571959115769,677.100311842428,-155.46479931792,487.666321272555,-331.914833415483,376.048885781701,-36.4142918119159,-39.7812992688644,104.919190955438,122.547663401322,171.633836107978,128.649888515654,241.892924030178,-62.2302124041128,-52.0531597806626,172.591895295406,118.589146958313,177.183254422021,122.084762590549,63.4855626010398,166.769345286294,37.9242353021591,106.736915369385,105.204634472439,34.6772602845636,-7.135578984521,33.2745571214252,-67.4445688735032,17.3993927544903,121.511964999569,39.5739312863659,68.9582141436266,89.1975922061009,35.2726657220129
102.136662547135,114.70314344094,91.1672866299736,103.648421765668,104.344130212517,96.240089640567,134.550328783482,101.818057245423,93.2830895406876,108.293019611498,122.695677180233,101.124990011313,98.4673686897215,109.776928847276,100.398363364004,87.4444017711436,134.930943016227,78.2956634534246,65.9362622812601,126.186852527555,49.1985917973492,257.974367243028,43.5394533583925,-110.564882416312,207.082590097317,133.225000933355,1496.33821275704,-210.130303036219,510.115396328864,639.312869071695,714.951818843379,858.184466646118,-113.166655737248,492.585256522635,-195.880208851291,767.023746232388,-1.85661248541679,204.831769226955,106.993095626615,388.73256268375,194.109920526295,247.667368143454,312.748851312003,32.4513932629077,97.0195053737307,223.653594915773,167.446132586293,211.439986374724,180.97090347362,123.940216744922,208.815879192281,88.6740778297232,136.861352983331,163.630829231197,99.4788953432403,59.5139202035137,76.622739913168,-7.20111534793222,76.2025821626519,199.028186033668,106.547207711965,113.643873798079,167.283643705448,89.8736159343658
154.300272286679,174.056095351693,140.6317188544,161.442075982244,170.126185168072,135.034238703998,181.18191149422,150.881740424267,147.741176066833,165.387655810961,187.929389352852,141.804877623653,164.547439516059,177.45380476272,153.90527636625,163.773080912349,189.104359641143,152.584766293711,143.74219894506,241.721078136016,130.426496393705,346.91457977601,169.488780848591,-60.8497461498776,213.765488129772,377.937685418738,1366.00235101607,10.6375199852455,657.149478029856,507.305429092768,1096.00853836861,855.372926816671,70.8074182988388,534.456372108642,59.1381763414507,959.580326520805,28.8018881159054,502.678245062515,136.744282268351,621.004045948685,185.319367032512,386.7699211416,361.810929437729,165.863823809441,284.695400430599,282.8950187488,220.353633651852,248.939719274926,240.138929897829,179.920793806524,260.154498567988,143.592003200712,183.764128654395,237.681612899197,171.131576665578,124.278642794682,146.18736889824,54.3113336860356,141.903859462903,271.800384279125,160.929478134051,160.291459688571,231.782428582845,138.412643759857
215.941674085983,235.586866556077,196.681490555074,215.940204428998,234.657394858827,180.219715146821,231.030042567377,204.888653023313,196.873876359253,223.435855011905,251.483189449874,187.709418860774,224.230775259934,241.126050760595,202.608548916641,231.55877300294,225.884516217051,212.107724158552,219.007405931454,322.158835642529,195.864461191763,373.87238678876,260.668103218446,17.4491545884013,255.619347700436,562.890978921071,815.417428409674,423.129275647318,703.307848814309,366.292869040496,1256.18671252353,685.009632233459,333.208202007146,609.148029291847,322.985905957701,869.016831746718,60.158015723979,769.889498938212,168.284523245891,759.436592901179,153.634854426272,502.041007800392,367.859875321786,298.93704107686,467.807996405449,365.938290244624,269.497333735252,327.618987231339,299.101881942476,232.888785056457,351.33728202669,208.263776997867,301.027535276478,347.38568143544,251.514535884742,191.036594240406,263.627992531013,114.710009858214,230.818555834735,346.519859987687,203.053121581632,202.71664894771,280.539446095313,187.445130705649
265.865110534136,280.444351163204,244.293124485862,255.149942216464,283.262099217341,219.282045122591,276.688275026045,247.448377323828,237.385069387113,274.543028181314,301.683856348071,231.661786617295,268.497941808146,289.857625273542,238.5085191116,274.905464134591,239.632223937495,246.836520093699,268.842646512271,353.69460478886,230.958618419206,301.107246896518,289.17229034379,70.9924880300132,234.75516797948,593.65739158501,-47.9062705223111,749.123314374024,593.489594385727,212.563127909566,1146.52875004552,442.458694562048,464.24792997131,614.679217211784,507.044929771576,598.371559549924,91.2701825918157,910.042895217202,166.735250616599,752.970488504288,53.7282303472197,545.204367250565,293.918085253064,393.524585714003,579.145307688105,441.211308101127,304.471009119725,403.719204443632,353.137090727944,282.847183005329,451.352375090922,281.223747950414,453.847881419834,452.761562460187,327.332441832448,258.640140958618,383.144725694825,183.520958472832,306.11818683688,404.547567873852,229.424358538655,213.859925344937,304.807153652949,227.052690794802
265.947511569053,274.374193443355,250.845648108884,251.918502188305,280.488855705275,218.525824581362,282.185775613694,239.557722741166,245.051104291133,283.582188981558,303.150909214778,239.746539114185,269.972274650884,293.910289082359,236.583095059254,269.061231142065,230.935918394096,246.110559350016,264.793233554358,347.666648816536,223.055013128778,180.62329808945,256.988710438501,67.687464255375,129.68962208914,482.112607753765,-777.893799621289,798.263275085213,329.954443325148,51.3401616246807,770.204472546976,143.074542787545,311.231475755439,448.651431459512,524.893151440238,270.680132722683,69.1591984252465,839.595805751281,107.121232961823,557.485395407913,-149.802558230693,440.383582446354,118.195334908592,398.097511462649,537.665933616985,452.413563772559,292.079943285663,402.331657903256,370.00906538554,282.488928396312,481.345122082005,321.112291568188,515.036658181593,484.259484685969,366.963046999892,291.945558011252,419.771306017582,238.540492651481,304.606674134247,412.803863333175,226.731570038613,172.260876210874,293.753957979524,228.529831147963
217.368217148282,220.871519385764,213.264991224423,207.99103999434,220.852357424356,181.16772860187,238.394227075676,184.513638657312,215.116288629326,242.238529753002,243.988633947886,211.803552739393,228.146727335565,244.449937944753,199.425635891245,220.483536100546,218.449020068102,213.571559244899,210.494376751808,322.140645805147,171.149612976189,114.512306103365,201.706586295826,33.6183451909296,16.9621498501967,311.379541647914,-983.439519901177,580.244216156782,9.05354310213969,-69.7367301597033,212.007323521185,-234.374755237852,-26.5276635821293,151.498412005543,366.094241928339,-87.520331710283,-96.0743657237152,580.252967094227,13.812235865977,214.48857136433,-413.275100857516,180.814264371278,-113.043233714255,286.067908020214,359.949170891441,391.0903659174,214.718049492304,346.931626409119,317.451908382231,200.603124871559,421.844794832009,298.886075955643,429.492619867097,436.296952700115,355.67543487615,255.663542591985,365.720625487203,235.974340335955,234.115794883776,367.714719687862,191.88296877248,92.4876197145139,256.017257279343,181.871186626424
154.585537615858,153.153132965125,163.978641757225,152.359623631631,142.425348867767,143.922333877903,178.448033471522,119.510113306106,179.039785435969,184.577322903461,159.180501564247,187.584329824211,183.135707606275,172.476725141445,174.420857855745,174.193919251892,226.713962538564,181.459738654751,145.489227712916,310.786070607966,111.919363410209,158.627545466798,185.077197699485,17.247407436372,-21.7286360551227,155.070184992429,-703.800541682729,290.399579600726,-216.381438768978,-116.648269714289,-282.293974888686,-582.669509877023,-293.445631084958,-101.390353851465,160.010167296281,-459.184445049496,-397.289040600905,253.954565684335,-51.0032814612684,-133.159766702755,-675.580758932922,-97.228983289853,-334.613399493289,90.325988627791,170.385755149091,295.011784926974,87.043889184767,313.491425667125,194.524061960417,68.3159834457349,310.322468395765,224.601511426218,255.233743393163,345.785505665223,294.482773172909,146.132958198752,275.329105801746,156.478589366121,153.217177775382,280.524902892636,127.682796008331,2.49550781557294,197.16399882374,103.902583583099
96.0502033649216,87.4434738657067,124.670721708999,100.2189421213,76.0319973653314,120.627230503067,128.677333142739,63.9539442798589,157.523222931282,137.145064728137,87.7846211635791,184.680575900594,161.493110153929,110.315563383179,197.343943136536,159.791966713746,268.062141176772,184.396716305462,103.93328275803,349.735258879318,96.8829423468646,312.782849572421,240.277453459868,39.7484244424521,86.1376220720045,61.9550051889327,-229.115309178456,189.124548362123,-281.526551854391,-78.8231790608842,-440.364766646874,-745.481976681409,-368.279167217921,-176.867872367127,59.5066525603763,-746.499970816212,-682.281113047914,-47.4868340238614,-43.3767910149819,-337.932797437836,-879.846812515832,-265.074777747496,-516.23462034002,-126.226159388592,47.0270022117811,197.358371982602,-62.3534787965711,298.510958011213,42.7702639264096,-66.9361212381174,173.74029585509,109.64761277462,67.2798416277269,231.394058720313,180.862458989356,-5.69018991665294,177.108207998947,24.545944421051,88.342247692716,155.254693782321,37.6095849688832,-84.3466577476698,111.373398352356,14.125499395702
54.6865966964453,39.4582634337378,101.100477533933,61.3510403723724,33.1754546185486,105.852753617778,99.8447005320877,31.1393138466951,148.80277296543,110.323204804727,48.5927183108244,192.949600337404,160.941706313123,74.8232374470331,250.623076430706,172.792113373272,333.892032096484,227.476344944365,101.698275488586,439.268126271114,139.309703613818,550.511867038968,334.003407680074,98.7243562071501,374.457695592667,54.1363741547777,231.520683111877,350.445551789885,-248.165842514377,72.7454555642217,-250.107850468713,-715.31932042194,-324.004817775461,-100.17837341148,110.192561845796,-845.198963566607,-801.164160891606,-289.133254851151,44.0253356340625,-347.80919758249,-919.104916231148,-333.21995718284,-614.323835917122,-315.927111619578,-29.6278469961606,138.587763159198,-176.204811525854,251.399295683654,-59.3316523537081,-165.187640988921,60.5436013094668,-20.7165305365585,-53.4306268675586,124.877009099009,43.817945429355,-132.742824264817,92.2647587865027,-93.8325477219356,56.1417421535107,26.6910466517772,-40.0653211654201,-143.112419014177,33.451626598847,-53.4795119441741
59.5326715785514,39.7192688052371,108.202763335756,60.8319641131207,32.6476101484208,113.6284996918,107.367965725533,43.1633487446429,157.955571752823,119.551952244925,54.0801001488887,213.460311631727,180.491931707518,81.5897338292463,292.968087245043,200.954540339625,387.740919692574,282.193766675129,136.531742840747,525.185410558242,196.360466431667,794.522952959951,393.790910706185,173.554778719365,715.668544710746,93.8195998944237,579.497724073702,566.668895046507,-192.986759220207,300.096737311601,12.8358871042265,-593.694996942146,-235.369784353555,20.3196667049178,233.026952661121,-758.577916665569,-717.420830604976,-422.589410776187,170.171518554946,-248.255181712557,-723.992351371245,-346.372633945794,-574.815974610179,-453.35091631221,-77.1742663124047,163.534585495833,-187.298895077746,180.300405162345,-57.8746162993991,-188.939888845307,41.4462079558678,-102.661815867636,-41.5068321017391,71.9046022144236,-44.6146479424624,-167.612492905753,55.8409278995313,-127.780286160613,88.1252421589395,-51.2600439697635,-38.8929781949568,-132.167656659024,22.4544336245377,-51.4897919401076
111.451777764621,85.840539089755,148.229200028397,103.033000958446,77.1264528966132,154.804464897908,147.036074241105,91.7257018563892,187.210952446879,159.146552829671,97.7999617426055,242.35436451497,212.526530637693,122.739010719266,295.562321872139,224.495220037234,388.056498465409,305.944877222888,177.964750374489,539.845491006345,213.171811123569,935.416162282256,371.829986933238,230.367193876944,882.792035118814,128.435631178701,760.318139664183,595.911611261016,-130.788746439428,452.470784358546,105.713569613368,-441.654294119069,-124.701301243584,120.40330243678,308.165564286648,-580.65581300768,-476.979263587884,-426.684923334927,253.225068552049,-195.466464075333,-398.314646562103,-295.995865732981,-435.594591592858,-519.485964501211,-82.0573595380463,239.043414203465,-108.524280825871,126.322399743792,3.46897515284243,-142.928795602461,100.046469782832,-98.1703057642974,52.9308845782617,59.1955365297083,-54.5153622191042,-113.550785683546,54.5045558600222,-72.4703023570527,172.238400828113,-72.2799561074354,49.8308087504369,-53.1487471896077,73.4338601641274,18.9893652718556
157.534045578873,127.122656509659,182.284362886783,143.597910444003,122.411374267789,194.623071535918,177.781417623146,129.105532818204,210.468009488942,187.206704717295,137.660675403865,247.712604629877,226.710792254704,152.138630428066,254.657873308378,214.860475246622,337.361994109702,282.790699497503,192.881369798688,481.156011811668,195.499948619728,933.299391267816,292.513547135572,263.774631431198,813.918995272504,175.794625295971,775.818654954427,444.0552692045,-47.2937720761398,432.350794791041,38.642630673551,-276.44955354924,-45.0375844086236,182.306220492699,295.977516628527,-381.194239804071,-194.088023010669,-374.703048224589,244.75263533936,-252.234470727115,-139.148675299604,-215.755725351094,-309.66659070388,-503.149284054711,-65.7673443265441,260.02570388123,-42.6148827864123,86.1292702399068,24.9079842165936,-91.2566046340644,126.919869494343,-54.4295825282709,96.3888888917868,16.8262112411435,-45.4961548797696,-46.3069218743844,19.5276748733332,-0.309394329741889,237.265199048207,-70.6692664492891,140.914126966325,34.6050247540425,120.725980042942,95.5641332543768
158.26349709021,131.346675179724,176.618935663971,145.864214660878,131.008770479517,192.934299903282,172.16508148871,132.020764998079,200.59791358668,180.773193239368,144.05060537827,213.603466795957,207.419564278638,148.280942046866,199.808523039813,179.209175854781,276.431352347658,246.970488164637,191.722320673538,410.804124111727,207.365215708254,848.68825567314,224.400277514482,300.73144080674,651.347690433699,261.123097569949,669.095439509785,294.06758898211,53.2762901537536,314.303868073251,-25.193929195271,-101.049874565072,-9.3873795540353,176.201041317204,255.151684054681,-139.884610475607,15.8161295942541,-324.261339023935,187.884165504271,-304.050651420786,-7.72908285007612,-169.11171787926,-214.873962422052,-390.251804334997,-58.9253874558239,194.660318241874,-43.0463574173457,43.5147328815459,-11.8708459015966,-72.5046247360737,71.4855385082627,-31.3705258747671,40.0518902417243,-78.5394005201759,-63.9809001091072,-12.1796843160374,-68.088628108908,36.4515507085971,230.165482078841,-60.8841557045688,163.221596480687,96.7497603042938,125.966835739673,137.115661615279
136.409544623504,120.421450198838,151.182521799553,130.765145939382,123.452043061506,164.384450807267,151.867716334879,129.711685800377,168.248109356101,164.021517690485,137.336321782546,169.814177415303,180.184061158725,143.552859932516,169.123893023397,171.024567642752,216.426223767736,242.598356782604,211.87765937598,361.787196962302,275.097255332355,744.914372702176,202.294199808509,341.322675421239,520.760695670617,325.602324689924,498.17952926167,230.648417496315,143.048833517705,239.563247110413,33.8902950557325,85.7361515826233,62.5438799363017,93.0970984028558,241.974797549973,146.325853883002,157.836073128779,-233.036323958941,162.921159728078,-207.589054772627,110.2972905138,-120.847296740869,-63.3410790421983,-177.364886258952,-17.40404322303,123.136382730601,-42.4638236981269,19.1078708341328,-23.600874684994,-46.8187405813525,1.16145690783052,-14.6199997185984,-46.4492785871318,-152.400534385137,-64.1440068670369,20.1849147617086,-127.466494751729,65.9011497835561,170.453150909135,-24.1718379097664,149.719465488319,155.242215175977,107.800101119511,160.834580326985
121.505591262584,111.491656161276,133.086624405606,122.427416135709,121.098561312992,139.260390848784,139.970970881359,137.451351168902,137.987487010063,152.918937232319,133.803972149058,143.59143859087,165.241896079838,148.729808412818,168.827429360644,207.852511224577,123.592551547944,267.273907898366,250.935692142394,310.320319785501,351.074573859035,604.047435528482,211.605714175265,353.00811617895,416.738619767616,312.636001542043,337.89452710351,178.281100331165,187.925257818237,239.044784794535,164.671560548171,224.647080282329,174.298092124978,-5.49081835803073,230.567427204241,343.795449951772,266.82052572473,-93.2735859752099,172.177507645516,-12.7385178102723,255.885163241072,-20.3023770506436,134.102020557792,50.7526317673329,94.9576329810446,97.140317897356,12.903049326151,24.0306055595579,29.4152428024728,12.0579773343476,-21.9026479819667,27.0306522680967,-98.8187770640808,-126.315299933164,-5.62273618380524,68.4568463245599,-86.8723355075668,112.878067485678,106.537683183981,42.2108351296361,151.331837506646,207.409100133274,92.3990695693018,178.312202637221
95.1703485739011,80.9944186541588,101.55480403835,95.7874789008781,94.2216327254226,102.316938929235,116.325290909559,119.048497922074,102.008229924633,121.800343421364,106.512994725167,114.960332128784,137.482553783291,122.089047685833,167.564090514964,223.758110901121,-7.03716900975539,269.956530911922,253.760511692987,226.012722894875,379.697414377363,370.561773754887,222.063656302192,323.797494519874,257.144676918365,261.209227825046,226.765730000777,68.1258561787802,175.923072427622,188.886337292293,200.082167684501,236.59087086003,211.286563450134,-61.0445251079781,146.410004557473,332.913034544321,284.557234745381,4.6456246246385,126.392324969857,89.9739131572429,294.161766808454,70.5985685286762,237.529993321854,147.589942018852,189.426116914694,74.954917269793,61.4266981316864,33.325248907975,86.5841164832492,49.3515678856282,-19.9845008956332,58.2730673204234,-109.391845754024,-31.8984203623314,55.8787246133407,82.6791525613652,6.00095369257446,133.177429791713,51.4506560617933,86.8978262019748,141.96005806694,202.471263489783,73.8570467502547,160.955164576761
27.918690152636,12.8880396659322,26.9441618187353,24.9187042081101,17.5351970868051,26.4647028196477,50.8588209359379,47.1794590551419,32.4662687003433,47.0692432625057,33.1408946051507,46.025731589336,62.5479319903015,39.7286315466085,118.410943639128,152.464057493407,-111.934621499959,197.019418406492,175.520353437439,92.6267610493841,333.174100140874,55.0154547547878,194.14828714219,252.569452804648,-31.6587679339448,209.997502711353,99.2870878012764,-68.5093169896231,105.441528186351,-21.7687785598888,76.3580416934102,156.263108804032,156.622488995184,-99.0356154919301,-6.934480453029,207.454149993058,200.474805925841,13.4542103616323,-18.8383070640617,50.9877497164926,169.991040604731,90.7509424591068,201.925382833166,83.4944192716721,169.29902459233,14.2792875246387,34.0082809203606,35.3610725700686,98.7002644544249,15.9113493394513,-27.394416056692,28.6909608278188,-88.3218801087325,27.4157454203066,49.2927944751897,29.8666905052443,44.7238844339831,86.945826137856,-6.7498183504665,61.386523135428,83.80624290491,124.428561217465,33.6931624741012,92.8848176630933
-60.0822330298217,-64.0086056271663,-65.87314746731,-62.0385818017779,-73.8143007633477,-66.5979902219794,-41.6496843138185,-46.1077104309799,-63.6794148613514,-48.3936253024597,-58.1904003030065,-57.6472526481162,-46.117626980633,-61.9978187913928,7.03641579345658,19.2698288050934,-146.194185668518,51.8494772417134,41.685565046696,-88.367753135083,212.168852407984,-256.492748459315,103.214136517402,127.047119375958,-417.34109378724,117.837812671935,-146.186207482725,-178.524152463307,-63.3862546296249,-326.328594803539,-103.962748436961,89.6495159999935,136.315909400136,-173.39727117672,-108.801023644284,146.103622295185,149.307122993338,-2.02205797259863,-175.573164198793,10.9698038916439,30.9938657851593,93.5989901262875,147.14019777332,-11.609845961227,82.9711797082138,-62.7757579443372,-38.8441177921734,41.4185359130634,83.1404132970738,-51.8003460576137,-33.4123812660836,-39.0838304943434,-52.2630783404394,12.2421561974876,-5.26672431097586,-43.9966325380451,9.55085141979391,10.6436500777009,-58.6150738305001,0.359640315517453,10.2620464951187,26.7853082338202,-18.8067244266935,11.2445625341186
-117.247364928041,-108.826747675537,-121.475624257609,-115.802701981765,-124.759534607029,-126.546917418199,-111.01286464682,-107.336319059656,-138.285619542049,-116.033665854443,-118.324042802687,-144.288396011781,-133.89204774406,-130.104814497381,-116.43050310714,-93.8349223877168,-156.73994827067,-96.1557641077913,-78.549927540973,-285.282521109108,57.5021401385557,-492.582191652922,-17.9054908710947,-42.6830112052883,-713.327561635169,-48.2892104118375,-483.248643707115,-259.133553013381,-351.644428566256,-562.580102867068,-222.128080497319,72.7373888156995,201.449437496301,-280.527501394524,-95.1458241677079,170.58754756138,226.043690771865,29.8917462722605,-239.565546039759,52.0669409744234,-10.7831789992231,144.284025316489,156.721647407174,-46.3624069013416,31.7065141070341,-107.60374536709,-97.5634891727717,42.1869673741812,52.9274500748084,-99.666026939222,-26.2703812137788,-81.37287789739,-22.7254138195048,-23.5212277060023,-32.5957862369089,-84.2846802387574,-28.1265838565174,-35.9813588084087,-84.7073116814773,-24.3684740778642,-25.62072746441,-36.1323629386189,-51.9757216780906,-37.0715723763413
-130.389369476814,-117.473884063316,-127.621015039034,-128.871966602445,-130.243522619151,-138.068293820308,-130.905505063529,-124.268497504528,-161.974919986027,-138.616452902662,-137.283738616857,-179.614035642434,-171.0997174259,-154.619660411557,-190.43478294018,-149.422141211506,-185.429720444031,-187.239829944164,-158.873003512768,-443.189236169968,-85.158714976425,-619.487300869893,-113.509616980416,-237.58737642908,-709.614041464176,-274.606464513379,-703.935322454421,-310.126130847714,-611.175067026003,-628.351378479913,-205.971524377755,67.3969818553879,252.144158853412,-358.689003007645,-62.1701924506248,186.477389541028,337.739599289506,98.1694622215638,-217.634474405022,106.031238107084,-17.7152172504448,218.280978336836,175.446968020992,-72.7555058281434,11.1289324363724,-106.387703062463,-144.497154018251,12.6050300858864,-8.08826046498131,-141.474360372911,-21.4708058307229,-86.6981099739908,-9.35111332941172,-24.5268702773805,-6.59160834031963,-103.679758361007,-31.7701009109321,-53.7891996528318,-95.2202326166148,-9.46665414348641,-32.5072004042707,-72.4788919281721,-57.2837794932655,-53.6331494292949
-131.403258719196,-120.636965802809,-120.26127137104,-132.934652050028,-132.029481849345,-129.595398899588,-122.930127370545,-127.336968121983,-157.069876044435,-143.368785485293,-145.483689097904,-182.010728045327,-184.200944212228,-165.613599328164,-212.156394473884,-176.543846286672,-195.631154034255,-231.151920011302,-226.803219391305,-525.499206804406,-209.812113424059,-623.800303385877,-180.073231985517,-449.46690798812,-431.274687260575,-539.538870762438,-630.807965485107,-292.187904937837,-591.802005261561,-540.613537779771,-29.4845919406157,22.9355873747664,218.346393178407,-365.251588276607,-73.4012311389855,167.853100376777,339.360657554785,156.187231863382,-162.446761766541,133.022197611279,-61.3997040767204,276.348036892685,145.66076335757,-132.490250146005,-37.9693452294678,-96.4332420190687,-200.059271525509,-40.0166288559327,-88.6414333275844,-205.985166074161,-24.0613267544087,-98.1841510306496,-10.2115985337669,17.9106139465161,33.4510158193061,-144.90010803055,-28.1094990045583,-88.3031850635452,-115.418764611939,-7.6516377998519,-57.1758486654584,-123.87148974039,-65.2094371721674,-76.3655009620347
-151.299483879836,-148.79302777542,-135.822342314551,-157.12867345169,-164.507489211647,-137.446282257884,-133.082472553937,-151.410776671124,-166.922859730791,-167.031509280097,-172.120368922873,-194.161437918405,-216.255436289605,-192.230757861626,-230.295414050677,-214.190939147049,-186.825460279475,-276.036012460595,-295.7186059701,-566.092045023383,-325.179626266082,-591.268535050182,-259.082540503834,-617.757186954405,-211.88011892637,-739.853038610235,-411.455863749547,-216.733806249852,-265.031491808915,-441.597276305698,178.976439742656,-80.0617122977256,161.950473690054,-351.608286998233,-50.4091720409721,135.141235154451,229.49423957674,193.490565041571,-94.9370163847092,170.279552345626,-122.983391289145,324.200923351933,80.6371230758907,-157.55717850572,-107.979824217829,-130.010681395878,-248.17014127399,-94.911233723681,-160.274175522424,-263.992281753505,-28.0689421687704,-152.480186050669,-33.0807206263333,72.8934628022652,26.7569801404112,-223.430543519497,-44.8941312466032,-169.819913116734,-159.63305976594,-51.27999968727,-128.759024440216,-210.339806690556,-114.261397083118,-136.762165461433
-200.763506430188,-208.88181716462,-187.565013237259,-211.062240545735,-226.274714899881,-181.028703460232,-190.47612145652,-207.798121827701,-215.38664289519,-224.740355967704,-224.038093849937,-240.779915549978,-277.46125760928,-243.904318339843,-279.853321310721,-271.30159994238,-226.602246951163,-339.989368572694,-346.868736837292,-616.437745932844,-414.15692839779,-665.833873891797,-359.388714183699,-628.147207200424,-342.306886323346,-685.1750013265,-393.542210365664,-201.181027855964,122.539105331421,-437.032961587729,201.674834566037,-167.467671055036,181.549394723437,-391.099589026165,28.8516290063967,54.4251605643484,142.505371289329,224.111192234649,-55.3879262166719,192.01705953482,-173.20051711596,349.023646573276,-12.8496319908007,-86.1989139304948,-155.845862098503,-215.788344398883,-268.516665812356,-164.894877990697,-227.356123748823,-273.198038307993,-53.2525803686517,-247.127408673253,-95.1098189382569,74.2040120805647,-71.917705570255,-328.029491967242,-104.380732605404,-294.695895158906,-236.492381710347,-142.681504886559,-249.208708953453,-320.405446345764,-210.876342783624,-237.097130182027
-258.567219383923,-268.545515798608,-250.550913386023,-268.573172441349,-276.3184657017,-237.471726617452,-262.093083198841,-262.658521818195,-276.153903692158,-284.837182858015,-268.388352371362,-297.680632616012,-327.804598174286,-292.130446166991,-321.219497175208,-315.795618305897,-288.998699453841,-374.937223580462,-355.71564005872,-614.048446165123,-437.032974442669,-809.168945499489,-419.436686288031,-436.542191878253,-666.514256625436,-349.934191598231,-640.583107584252,-303.099284246443,390.411134623187,-406.122500318288,77.5839008974271,-119.173725679885,340.752820081912,-430.528989393349,74.2372672159348,-70.2360453114094,199.890458188018,271.047418281834,-75.9072689574786,149.498606737004,-170.646580168769,340.952736618343,-117.959808407057,67.7137621356758,-152.069716631437,-284.351091810163,-243.701469014204,-237.654142454606,-270.74239637723,-224.918653698197,-103.385201318384,-322.062992078624,-173.138692581929,-10.9389947287378,-225.88636051797,-411.685312670691,-205.13787829107,-407.06559530032,-329.687539434862,-252.355310770733,-371.15155004207,-402.206994087698,-308.076276802169,-329.365809406725
-275.887811069872,-273.48263882054,-271.957965828288,-275.067713787642,-261.79643737319,-251.128237964156,-278.124726994235,-259.323888994008,-289.953888708295,-287.188372235831,-250.769104223784,-312.356299724209,-317.161958604803,-282.428469637579,-281.393432406913,-306.033227096923,-256.063169890283,-322.354899144788,-308.896318776515,-452.706960429548,-381.354226539236,-818.62670757913,-376.439879038045,-147.699790068938,-777.448356200519,16.9033940528858,-852.694401873392,-411.373210497529,549.299781179492,-182.175307194535,98.3020772200181,48.5362483707433,627.229186797063,-357.930929086456,77.7430667958586,-117.981159261175,390.914851840367,347.330186903341,-95.5525535564803,101.687934107935,-43.9290138888283,357.58499725903,-151.593509199024,269.684117699096,-73.1791262952349,-249.624219455528,-156.766905620209,-237.514407497587,-218.253285784639,-139.183208693646,-127.335865595067,-301.397340401589,-201.84947307673,-115.708252713331,-314.747740202172,-405.707639207984,-284.894319670806,-423.926699327489,-383.971933109624,-313.426170780224,-409.230568745258,-391.100146525626,-340.648176499015,-343.93803434594
-233.689762196215,-214.158256681359,-234.829003394538,-218.567556074369,-185.207898952273,-209.072383656941,-228.05948311022,-192.828803585705,-244.845145599849,-224.834951135959,-172.376927719135,-277.500062984508,-254.634608207274,-211.883540821124,-177.755852031763,-263.147889945455,-129.327676103207,-218.03720771952,-237.439498804757,-204.052855879491,-306.882667331661,-642.146870770273,-272.065770129003,60.9566116088022,-592.482926384889,182.524410858186,-799.701762673287,-449.004647746182,594.158515289345,141.31852028333,310.716635265165,171.658726167294,894.53345760232,-216.133484621679,116.639978611087,-0.0643518856262979,591.24040254004,390.251004835482,-53.5730205849369,110.483073535627,191.443014551648,411.214378823842,-68.2090667771359,466.740168452277,39.9034240400212,-124.95852577243,-50.2670469558739,-144.773463804923,-74.4365345852524,-71.3997203879063,-102.977905291613,-199.420087279453,-164.795591347708,-155.933626528951,-275.422945503709,-305.839006802652,-284.67363744361,-336.558487419507,-361.597284449557,-289.312530634945,-341.652788480461,-297.79431119203,-299.802903782416,-277.341940469767
-171.119912286042,-142.616886514061,-180.825364821781,-152.677650164118,-110.267166922998,-159.293244883378,-172.756149552564,-121.892913242371,-193.009535897415,-159.3513651145,-97.4646992176866,-237.647271422273,-197.772441260529,-144.463562694247,-108.061453090344,-259.378752077478,-34.5823875240366,-170.376777846605,-210.264587513159,-61.7651989609249,-290.093433927293,-429.750268185885,-216.125025023091,107.008885109914,-412.131739953574,178.961485413402,-567.241036541638,-495.170331893932,488.863120298988,282.453401619638,395.6625786391,168.261192857965,975.117281180667,-167.267382976223,189.356727124286,202.767219984745,715.644216082878,314.456345904633,-2.15679299922133,124.601551309902,423.433204490684,397.493431453891,55.9357409519663,574.46600780295,86.2139176148799,-16.6894889086152,-5.68088693724904,-52.6872642963923,35.9284807379814,-66.3115004054338,-82.047342699147,-109.85737952149,-116.895578924367,-135.141734781375,-175.437413784977,-189.732610035735,-222.376652834584,-222.980040544878,-289.209446678094,-218.362421903401,-238.7900450195,-200.182980390154,-237.376329342148,-195.739826406719
-136.206151106756,-107.620167170732,-151.932098118919,-123.498727137167,-84.2578902971904,-136.17389317181,-156.465249663048,-95.4849604188918,-172.445388614418,-136.006899903417,-71.6264592169203,-217.998242959695,-176.449161989291,-125.916577776479,-109.647044469541,-311.499666211437,-19.7243918360634,-214.19748550873,-256.295621235552,-76.5726536467177,-328.774477430835,-308.205140970818,-239.938663388507,66.7895623595491,-429.394056704589,170.996782521342,-402.4533421851,-582.317246594367,305.661689070232,59.1940794433093,164.927452426555,129.403660748036,855.470559592294,-280.734045620149,209.696009837104,333.32619663312,771.834914148201,141.849129548073,-35.2868493996176,78.8600619372163,577.061586409216,249.792575959087,110.626971745656,533.55735899352,25.1669294237931,-3.44446070722976,-40.7712599834763,-49.8729213882359,21.4850668616664,-98.1774874862824,-107.116758229333,-85.9140155479251,-104.962927115078,-117.463158725472,-111.617972432969,-125.995940500966,-161.236460973882,-149.763331481078,-224.069016350156,-158.737462916986,-168.868799340724,-145.315907069889,-197.803627717804,-148.635495053263
-145.260269616894,-121.978762503143,-157.123366941641,-134.317497202757,-109.223463830248,-137.479582835684,-175.111440964797,-118.057154855287,-179.954394924471,-149.821826370525,-97.5418860372221,-213.507165846198,-184.166643718142,-151.956733960252,-140.174569437861,-360.179082256738,-38.2691621474285,-277.783973493742,-342.750124514739,-147.38442547689,-370.122095901373,-296.901080394325,-299.967676921614,23.1877649690825,-528.166905671725,196.259000576343,-470.494653298954,-615.958758907924,104.223467592778,-472.512084695544,-194.120924468378,126.801036493448,615.733071965763,-519.65640360384,110.686273953724,340.070906441189,729.908914299279,-53.8538572457856,-178.372412821049,-15.4627360542359,622.875984846505,18.9815770086266,61.4378113247984,354.716855147612,-117.452961941438,-87.1478724440788,-116.866815238267,-145.168048584358,-90.4448044411072,-129.493189113382,-177.163891089323,-118.630362460605,-140.380801518272,-150.823620134162,-122.58220179203,-129.043802750413,-152.831972762066,-135.836346675528,-203.904844462345,-145.4094351848,-154.421045387969,-139.148021134649,-194.286850632829,-146.015541501451
-183.862555394717,-173.61393038617,-188.681589491746,-172.367975897803,-167.292928398126,-158.889514236156,-211.179540767566,-170.227391509308,-205.238540799064,-184.489748796618,-158.94304701038,-224.467283904576,-213.15538866926,-203.579615157099,-169.740678325138,-361.652790975755,-73.5580880787029,-301.925772329767,-416.31184016241,-204.842087514294,-389.385157482808,-347.612267835151,-386.430384819478,-50.2453916250917,-564.070006425701,147.237278525102,-709.945969943108,-568.025572155306,-183.96646930608,-1026.1428556695,-475.43756757296,106.766108367501,321.795709857756,-812.788244856019,-79.0092472516624,307.595651809602,533.868167831962,-237.953378599703,-352.417112273722,-87.1519742003069,553.330014681577,-215.402419909408,-13.6874597423651,129.926202221508,-300.445348087172,-221.539594877474,-200.909176148909,-290.684322876099,-217.883749178422,-165.620902999257,-275.586092200589,-183.93612235424,-213.161703583249,-227.617055289784,-188.184389527151,-176.403997243704,-201.407164230241,-172.353967167842,-227.308708969267,-186.410455195996,-191.582532354399,-173.966848508489,-222.520202095387,-180.95937782638
-214.281546421946,-219.747033449576,-220.276112515386,-209.102568516048,-214.915461740036,-185.497673353557,-238.97609668779,-211.532959828434,-228.291606385562,-217.59394364196,-210.644032149412,-239.347470546528,-237.877961396025,-243.965853882254,-195.026915677269,-320.544309365122,-122.770620044855,-293.776449185782,-419.255834402195,-236.558631663955,-378.318824525537,-368.463341599923,-487.886738618233,-182.6396333192,-539.856873964249,-42.7682878274287,-894.129733671489,-519.876900897956,-534.64791406555,-1239.01620558966,-715.212295633048,42.1448336434929,80.8457607120297,-1011.07372859634,-239.300661969631,319.400752418146,283.99440752238,-352.761413510479,-425.675437500724,-53.7730215713954,453.581109876989,-376.184915363996,11.7193867217864,6.83753896762938,-427.571554784426,-327.802248472685,-247.472595095138,-398.368074183192,-284.1212158794,-193.223049567438,-351.466487861903,-235.317294247837,-275.144755181422,-287.229949235501,-243.836411353621,-213.614302261056,-247.876306737832,-214.007848756225,-254.7672371893,-242.097012334033,-238.578060399546,-203.902776904155,-252.239116042212,-215.572660958787
-208.780446276582,-219.132606072252,-220.583542434019,-210.60766340976,-211.105967538854,-188.664465312818,-234.759064208069,-205.86168171962,-223.663950538219,-219.488065241501,-208.504172156075,-232.546776297025,-222.011096277434,-233.343735937699,-209.951047926477,-250.071467079599,-145.569998209866,-276.303469624579,-333.79666176145,-232.521750648243,-336.111134195159,-306.115545990145,-539.375586432359,-321.710384907639,-491.004587009185,-323.630837355946,-863.22080633981,-499.372447683127,-729.590818919272,-1015.66438298027,-963.625980681957,28.548630911972,-4.92218712236398,-965.50549491967,-295.305144197956,356.87773968141,150.487483182067,-352.302894640349,-363.259549874926,76.6393540209864,427.737177210151,-425.599888206368,148.919167606236,48.2182507162984,-413.066982634926,-347.900863215071,-216.655489238622,-401.539720989036,-268.820874225136,-172.422409837484,-348.83864083918,-229.936986072352,-275.864317101468,-283.169208866693,-240.251684797421,-197.996225568322,-232.604833323611,-210.459469319152,-249.502096807077,-256.576140619006,-242.751098555042,-182.286859714108,-250.47394612823,-206.43390824951
-188.716501532761,-194.230522782966,-200.849566949355,-187.951757168297,-184.537419292292,-171.294028895394,-214.825636281836,-178.15817867738,-202.576897294729,-198.254262686511,-179.674725277199,-212.8636919694,-183.78523753722,-197.608881593149,-221.144179190058,-178.051927242181,-131.029181923856,-268.99536857221,-230.03380503866,-217.071946374638,-300.99085014367,-212.021515662794,-518.419302772603,-395.393861739161,-407.911007462937,-585.644262842969,-674.367374334326,-431.699534984831,-651.397499756756,-640.272579317547,-1053.46327050924,126.310173965561,-29.6655474378404,-730.339871080616,-281.86159493994,342.18766510317,88.9579392530665,-351.638148378123,-279.347983887403,179.181243011646,419.797035137604,-460.742197762695,251.001702390983,115.07069926245,-340.668328002134,-317.179723958664,-155.173427113511,-345.531157365886,-239.21713809083,-126.308331580178,-300.292087987416,-198.739297358455,-236.839854752054,-249.442589931203,-212.98906166457,-162.833342037166,-182.404479930328,-179.875194031405,-225.265395941305,-241.051207579124,-217.619495191606,-143.643849944297,-234.063144427924,-174.550701885863
-192.808264899329,-198.445095699663,-199.168134738347,-187.331897356366,-193.823126578779,-167.413354671455,-214.925684613916,-183.224357618557,-199.398161975636,-196.683373065357,-186.85732604631,-207.271610392364,-177.24387739067,-203.40046772497,-249.752741475343,-148.318120378173,-126.747305339987,-289.686280732562,-194.859443481159,-233.550068178792,-304.81190118206,-157.532885942027,-475.735007603779,-378.78203478204,-287.730648048538,-709.527072296786,-496.663666313563,-251.96535764221,-476.18598158288,-382.100300675508,-816.469711062633,174.930864384463,-224.198835960568,-502.924026575692,-221.958114853254,219.456496202624,-100.735753486669,-534.546484725515,-265.63281429437,168.12079668508,293.034817458042,-602.425879073211,211.914525092655,30.4376852250652,-381.787074754881,-314.156858331744,-146.557107691266,-329.071461059229,-259.049687323696,-123.736449964431,-288.943916742289,-202.802152612517,-219.222013929428,-248.37727249728,-224.058281068596,-167.861288327096,-170.075828276641,-180.364001963228,-220.750851398689,-253.541162863291,-220.062736836458,-153.011253198602,-245.132450559445,-177.157092205039
-219.479286622779,-231.993234787277,-218.264267301533,-218.052975392696,-234.537366357453,-186.726479053429,-235.372913703293,-217.549391927228,-213.479440611185,-222.182970501402,-229.981617827818,-205.922875334234,-202.862400388467,-250.876579723607,-296.080343563474,-163.15922120429,-153.60479961668,-323.633498900558,-227.490501640896,-266.818954770432,-313.923499559115,-142.495531777215,-431.93026343,-325.486444218819,-162.664929522762,-668.009263544503,-383.148263585573,-31.8397449749752,-452.148971552109,-217.88216753564,-433.256648569741,-50.46561648559,-630.31337276554,-384.960032580697,-133.228752523216,-0.995446829107087,-433.562811670371,-874.042155972334,-284.145488435113,85.4394060927703,71.7745307270571,-779.197822427024,102.647196623247,-172.877244356992,-546.176983383209,-350.974551856316,-186.661119777895,-362.573061839507,-301.40433904056,-167.547846669715,-321.776542904616,-237.692741289914,-240.049513308344,-284.641542269672,-265.061695364086,-205.524640815912,-209.833931862061,-213.988380088575,-244.280208668768,-300.37511621271,-254.419734144457,-199.720396461739,-279.959415992975,-214.373279799606
-239.710508371976,-255.057461634179,-231.973423860538,-243.890770232872,-260.719116307759,-205.710060550522,-250.130918138028,-232.643047089009,-216.227935438197,-240.621179771254,-260.177527551985,-186.983933389893,-215.813196218676,-278.968751446648,-327.93644985046,-187.189968659392,-176.378713854015,-336.82495899484,-267.548532145622,-278.592502318708,-293.935407771665,-136.82271790778,-370.220405308452,-319.308229065119,-68.4283550886569,-588.833125455149,-229.841322880311,38.8718827978117,-600.926529551535,-65.3476144710745,-271.734709197675,-467.799585852875,-992.623597641841,-348.244330214632,-113.820952570387,-232.362393597715,-688.97425279347,-1120.20464968075,-278.156306721049,3.22240380879101,-72.791208934576,-823.408062077049,50.322726444892,-324.79036311611,-672.740261836075,-384.992186469436,-216.222277237085,-384.985773288015,-320.313462170697,-199.85553569232,-349.36959059542,-259.645345579652,-281.585629753798,-326.867259503935,-292.498672812623,-228.680925694296,-262.7978990324,-234.416346997178,-276.658108753022,-336.872448997619,-274.811833026777,-229.486083490791,-299.149815356864,-239.740980036456
-234.811601466328,-246.744693404637,-224.602315510977,-235.703126499695,-248.43236137326,-200.875195831417,-239.721015310957,-207.942852616523,-196.451830285294,-226.37978425862,-248.310230349378,-153.735290425468,-192.559345928171,-251.635403919384,-304.633767025087,-203.85836279593,-173.795905800695,-322.19865114743,-284.555305253349,-269.082833009608,-267.519863141675,-132.323865983464,-295.146188213967,-345.78551690314,-4.00448774362523,-567.277837183824,48.8544119346797,-113.009203733484,-707.639434156513,53.9738742009477,-362.792414280031,-719.08695123067,-1033.82478447539,-295.693135702194,-178.323742084773,-363.113742920033,-700.068104501341,-1091.14926476738,-233.247578368059,-27.3402289119857,-48.7888112804311,-701.070689269697,103.579807473456,-358.081863358894,-647.392015796219,-390.596235920613,-213.11606564966,-371.531471187409,-310.681455104386,-188.601296156118,-357.755335878824,-245.079099735978,-325.905866562663,-350.322497605902,-289.29529976548,-212.92270737042,-295.209273247142,-209.376444217762,-292.512200171965,-334.155002511137,-252.094199754249,-220.915101364165,-285.129378430976,-230.098968111049
-188.582595790755,-196.568608907684,-181.096878003181,-182.810941819933,-188.380992420932,-155.298213185503,-188.175364305659,-146.230220000371,-152.215557184688,-164.323568859774,-179.847129122805,-108.094346336761,-129.740851016072,-166.964470158713,-213.579640764539,-191.887442320254,-167.168317222223,-274.514250184822,-274.570188408091,-232.902082333771,-236.389943036411,-121.592278315777,-198.803308014943,-306.295586847298,75.909606800429,-506.383536288041,404.267133682751,-293.771105794813,-574.203746034681,163.973285416444,-371.435784002374,-602.596780812864,-731.283407875527,-108.304323373795,-175.138724763431,-335.943328784954,-487.118012769416,-832.273672407268,-128.422108344872,37.6028133892785,89.7044411234548,-470.372233926866,235.849332187825,-311.049930129259,-496.171883875129,-355.516337616254,-169.132356580858,-324.540631213715,-251.433601623546,-132.233637638075,-337.030214725474,-170.08688228674,-328.247182526058,-317.1993116997,-235.850295793197,-137.130629392209,-272.927359129461,-123.253186338046,-255.561520775175,-279.696256875962,-182.923812524789,-165.952376109826,-235.304176055679,-181.738462835397
-88.7712989082037,-93.6408681865954,-86.8023687757944,-83.4029149389518,-80.4956810976146,-64.5464647944337,-91.6969853650826,-47.5755372895676,-73.8777638937085,-54.5735317478512,-56.0995663469583,-41.9935799343786,-32.2366791028577,-41.7924339360697,-99.4964626551699,-109.678059646765,-174.842799397448,-181.35286456266,-226.730203830811,-160.214300345882,-154.835398887059,-88.6047758361584,-66.142449807425,-198.848193585324,209.43725306238,-318.520069771304,696.629122812069,-265.920766355775,-248.954247839225,327.393976514716,-115.447005690876,-256.09670578815,-296.706688227507,184.592454074012,-43.6794469211625,-171.384759200107,-133.930053506691,-495.748677622593,25.8596658469623,176.615963769736,258.986517379012,-189.630678828937,376.612826546056,-192.025926331678,-302.129688687134,-263.509740092021,-68.478065799859,-216.418523114925,-116.577390783116,-32.9860895187102,-234.007926165476,-17.03747731227,-225.402654418053,-195.450988374707,-108.823277356403,6.71821106099175,-165.255324429929,17.6912093924035,-140.126238449663,-163.273375231445,-76.3593644350668,-55.5167130764633,-135.880440071575,-86.6925458111743
39.027899199137,38.1219483555191,33.5390674750373,37.5930311582288,43.8711770779471,42.8035587687526,19.5699055662752,64.9580847079143,25.359455555959,58.8160142252146,72.759066475546,35.6094692295029,67.549980878071,74.8343530974601,-22.9451294356438,26.7844673236589,-187.068745392334,-74.7059757227256,-147.020104657548,-99.0480223587299,-38.0070157256378,-47.2618538084443,43.9578023113631,-133.603781939217,355.235780331174,-107.238963247458,794.58925381233,-35.4132233458046,20.5480297773774,478.249681719009,213.729125579821,52.470139660579,44.2631548729503,386.599238193028,89.796451718023,41.0229580051472,274.291337609194,-183.171929209966,150.411245486505,306.296201328671,416.09787887785,30.4540987194287,461.685224530491,0.962171684274623,-122.496531260772,-115.114254047434,64.0529570787176,-23.1392647050058,44.4601257110741,85.5850432973777,-21.4556272588603,163.767319685334,-16.2736347010553,-18.8891954944898,57.0965571044446,158.426647287749,3.07683154137887,161.081576345048,23.6618745407336,-9.79640546820293,42.8329221742611,78.9607414790631,5.7854407701241,41.947148956131
146.186524042257,150.135922413309,132.388289149548,139.771236321624,147.600003733092,131.255174668227,108.443843372669,153.847654637948,108.995804638215,134.092927984486,156.455557629595,107.753490186985,136.136259296379,147.239921726948,23.6962039039064,134.396477456296,-203.014518535265,12.5830851176201,-50.9712458262275,-103.387453652155,34.0858460824478,-51.9315403130295,51.3219754364618,-135.883514621543,391.395303182041,7.49298509850008,662.495923140259,205.548262383945,46.8025392320797,483.908488414267,358.701851046091,172.664735736058,223.181239479634,416.434770054778,136.392000673878,175.021079624801,614.549110835016,84.7642021342171,194.275989005295,396.567109409624,546.551626492941,104.38964669046,511.976869280278,207.11134971149,40.5437812349518,67.3314996191573,171.813280726007,209.746409442633,151.12493144614,182.334995329923,232.195265238282,275.8962212859,213.355085994746,134.452000918138,179.273114300983,239.692955750539,155.228878896177,245.961178876689,164.715023360602,124.515379135392,145.936818406717,180.510037440434,140.145927578036,159.449084010887
216.463110301141,225.95294486325,200.808316035413,210.67606536149,225.913375831806,199.508913786502,172.42264095753,216.037165865238,170.699568322807,187.473193156404,211.514975319789,174.314682584178,181.689609558545,203.02213417392,90.5801251466818,164.189656969814,-238.765166730607,104.295097959393,75.2732342748696,-148.922488065865,52.2438350804747,-141.068280428334,-14.2769745210063,-111.809445720435,230.018998306598,44.42638395634,383.064011456693,323.226207798144,-107.104158852133,339.972848242484,273.598644047482,153.864048717814,302.573877697042,393.340320372584,129.650674630104,172.895226501553,758.010785853648,297.006665801668,185.153022263414,480.98652269431,631.826195803932,106.578663250004,588.810875633869,359.649081612831,204.264330473017,242.353030856598,232.949447984282,378.395926621744,197.202526517872,236.910599459901,408.670568711136,283.063791584513,368.351947113355,219.696928051238,215.620955872637,252.437247431328,237.240877285844,267.413427889902,241.088038860365,210.350647441599,212.900325108707,230.331735051982,225.2060722784,229.400050282757
261.675044631085,274.240027223311,250.430903471481,258.443991171051,279.890735822401,251.226816599704,220.384366459046,263.24423350713,225.512798085588,238.737438420028,263.5668106172,233.69767107093,218.419411794359,263.498717230127,165.159542259185,139.666526727891,-260.344481196997,192.347934054391,227.174928706827,-189.164578098792,80.6215227257241,-292.988846213052,-58.0872231996292,-43.7995097151597,-72.2149835508688,51.1699644269127,83.4714491308809,301.544145394907,-202.718967808598,164.662636280437,83.8312899177525,131.335929057566,343.933906302276,393.940369407311,97.544113163855,94.1761019584003,665.243411596618,410.952543241225,150.9458218669,544.922377927252,625.623454771124,146.719623142387,658.10243957342,447.361457374237,337.541475503736,354.004270291972,267.454745537042,408.805031296503,229.795193628929,261.114369103942,442.596353169061,243.316510720853,414.739430162993,242.900930837761,200.753374090267,256.251112924895,257.141918747576,269.67473241061,262.374244276055,260.07384138914,235.038304971778,249.009726911162,262.48509411122,252.274757624791
270.083262733305,280.072126503339,258.028601527854,267.831654108102,283.623823165833,256.836615241398,228.157234582725,269.849799798257,248.569685663624,252.992804824456,269.786147776256,257.002746414331,220.102164969126,272.653585678462,186.133252005229,97.7456399919314,-193.543392255584,205.947491104217,320.436057705166,-229.227906745651,117.953846060701,-444.302086554156,-63.4445886693399,-38.2510990144766,-363.783288227515,19.4578470920329,-153.10465256366,151.2712509023,-127.581765754885,46.3731578718233,-67.6294333119433,137.610479418766,342.706014373405,359.980408915573,22.1013838332524,4.20266115679252,417.296147135338,406.502409630399,92.4565913356495,508.897884281576,493.083268870216,195.898791856431,617.10435912959,464.718595840809,375.252420216508,367.165594830413,285.107817294066,319.009409290424,253.734903410039,271.400374132437,359.97614327759,222.712774570753,370.038058955401,223.357990222338,185.310357758595,274.834281609615,247.170597203406,277.828191202128,243.605936585063,285.076441456778,218.089303338524,245.193419376008,262.630750117411,242.177127603844
217.856418953559,226.616767824435,202.197688815217,216.477735370927,221.401601849889,198.115768289885,174.115594295155,208.468647289979,206.595763552349,195.386028458846,189.646562896384,224.255391340539,167.077272697009,183.571710376294,161.048666851644,59.9999503374743,-53.0413757928052,145.235760357289,278.428265783516,-258.596769892976,100.262820390038,-520.921114309012,-74.3169080240453,-137.591287114706,-520.452709991735,-40.9005167262146,-289.510960444489,-66.9424280218998,-29.9859285435438,-5.02056029684335,-105.589393381267,86.0105537715373,250.087906302264,269.583980398128,-90.2636315392664,-103.665601266378,126.390706647556,320.290319685055,40.0019672326726,339.8825192219,271.196918342821,164.480323642507,448.986767444994,386.422872046893,304.770284685109,297.313064486781,268.532067998741,188.227259094503,229.337686629521,262.169797650536,231.353239168021,218.2466645352,272.183719549074,176.965756194704,174.849531081363,277.639952910971,225.094416411719,273.480733586992,186.061937172859,275.413290878885,176.584807186066,209.101465395324,222.493569271782,202.007304666813
130.520977210222,142.201914346161,120.833755632219,130.5583069882,129.589332853885,115.840755364319,95.6484781091355,114.496429372814,131.582366524267,99.7781604281658,75.6677861986374,168.596601719087,99.4360359457309,56.6450424807401,162.557575718047,49.2927107163067,47.3369625789748,101.884989512836,152.344335289212,-216.427528327261,28.9396751583857,-477.421956435107,-90.683439256303,-244.275143594395,-494.984310783374,-88.6790994641558,-302.206899295849,-209.121001202158,-59.1545867324482,-2.4447293604292,-55.4171992654825,-59.8311291925704,37.5395892635453,215.748163603872,-191.798867390863,-243.563789807744,-151.657730027669,201.799048295813,40.1580881103574,101.160872306754,40.0393674162892,47.3897534091978,239.731714162591,224.307205155205,187.86220428235,197.782096865465,215.133022604156,85.8800079164559,155.630612094612,221.98526037077,118.476835471415,191.931252852074,176.714326967688,127.829994806005,149.588405713689,241.232270474896,200.367546521425,241.97345507364,108.522633189159,223.814903280734,127.294030143118,154.698938799729,154.52500337981,140.812291097752
62.6982440393157,68.0410055939459,65.1294106603715,61.5623310905672,55.6135961814607,60.278728625667,42.4427649280379,44.3288545098006,78.7571563332219,28.3466257670444,-0.301660330604288,128.957536936245,61.2849968754347,-25.3186171669042,192.433881772836,63.2257124699029,68.0321033118219,100.264722552901,43.2683705321098,-117.891078216922,-47.4824513637797,-352.610911534987,-94.6037466700366,-281.391550015213,-346.79370068887,-140.199020680157,-206.482407524051,-212.26719413613,-168.07000116755,21.9281498110497,-28.4050363910536,-221.107257661506,-248.564044427772,268.053464992668,-255.255162653633,-385.946472780246,-400.952338676521,71.9269941722857,73.5808000862262,-135.190825141117,-160.109100250656,-91.5466796849198,54.8663427614257,25.9368062731293,75.0888074457566,111.184160383407,155.799737370869,24.3437867260864,81.3285308647406,164.452350733798,45.8494174767722,138.087118373405,125.125152215643,89.5507273700748,100.383924821994,182.242446877812,171.041357721318,189.810927069916,42.3741742053022,140.050604518498,79.1196203794566,114.079260982672,86.80112965152,81.560005129409
