10.8744656878941,8.91706186407313,6.52467941273644,8.48208323655737,8.48208323655737,7.97460817112231,7.39463666776796,13.4118410150693,7.46713310568726,8.62707611239596,8.33709036071878,7.17714735401008,6.81466516441361,6.9596580402522,5.43723284394703,4.78476490267339,4.05980052348045,2.68236820301387,2.97235395469104,0.362482189596469,-2.68236820301387,9.42453692950819,-7.0321544781715,-7.68462241944514,1.23243944462799,-8.1196010469609,0.434978627515762,-8.91706186407313,4.71226846475409,-13.5568338909079,2.46487888925599,-1.23243944462799,-2.24738957549811,0.362482189596469,-27.3311570955737,2.3198860134174,-3.84231120972257,7.53962954360655,-11.599430067087,-25.9537247751072,-5.94470790938209,8.04710460904161,-18.4865916694199,12.9043659496343,9.64202624326607,8.48208323655737,7.97460817112231,8.33709036071878,7.82961529528373,9.42453692950819,7.68462241944514,10.9469621258134,9.42453692950819,9.71452268118536,9.71452268118536,7.39463666776796,8.91706186407313,10.1495013087011,9.2795440536696,10.0045084328625,9.71452268118536,9.78701911910466,10.366990622459,10.7294728120555
47.3218017753147,38.1789581608937,27.04464731989,35.8975051826338,36.4774766859881,33.8520297636444,30.1576245180241,59.5065826940824,30.8641006517043,36.2230108812047,35.2095172944664,28.9081533720152,26.5357157103231,28.3836466051992,19.492355707298,16.4689066484641,13.1014636455465,6.63807514587574,7.21659010509826,-4.29723462688295,-19.3249517817521,39.934447828206,-39.2396240475804,-48.8602489570701,2.07808227761941,-40.9197041887096,-1.1258796039468,-45.2836090769845,15.037466135591,-64.9793354849231,8.28846151663856,-18.0997950577833,-8.05394050149973,2.08245191001491,-132.150595808806,7.02050212511683,-19.0291398535476,36.5728310018157,-60.0412852698212,-118.510059955125,-27.627531911508,34.3410165835667,-85.4710661658421,56.7361428959001,42.3438619809236,36.6224695618267,33.7795333257251,35.4995030461435,33.9615026925893,40.441922893641,33.2010183665026,47.8832850331563,40.5144193315603,42.3978701733301,42.3253737354108,31.7525461522486,38.8314261021674,44.2443445240743,40.333906508828,43.9188388255034,42.3253737354108,43.1043463070103,45.7838014217605,47.3587782663403
74.1660835342166,57.1868933287154,36.2309546622556,51.2541975880675,54.4411277682528,49.0811614363253,38.1716168692671,97.0014689862017,40.9137788151898,50.4911657498679,50.2247632679294,34.7980227396968,28.9110021288403,35.1543538026402,12.4461286417036,7.21521445221463,-0.270331407406333,-11.7358637663754,-12.6634676939074,-35.4749449260281,-64.4847892284338,51.3142814155481,-102.657352203797,-138.031772298193,-15.0822012805594,-90.1690819549323,-12.1924234551063,-99.5978723992319,-1.28677294796214,-121.821950184653,-0.552239315486156,-77.5421446454537,-6.47230749190056,5.59849140331114,-259.97149900852,-2.15873205071502,-40.9959548635251,72.103791367641,-133.203995534643,-210.463262099706,-54.1716324706117,51.0088308637547,-157.562246889861,86.9662106805454,67.3689260044676,56.2165622252097,49.5346283093538,52.3257034234572,52.3431355665428,61.3343650056596,49.8822607335315,76.1477611540525,62.0408411393399,66.9426460157178,66.7436449474726,47.3344052733329,59.7753637600336,69.5064422093159,62.9843858002718,69.9794882958386,65.2212197511674,68.5973613928509,73.1685655464321,76.0691135894802
34.1523026869677,19.0773075829631,-1.5387253556761,8.94293886914047,15.6321148796308,10.4659367206912,-8.83943785978086,54.8298707543211,-2.79621858944575,5.24885333074607,8.1970194667999,-15.3951464852974,-21.5107007245949,-11.3679072103091,-47.674584746617,-51.1098667414863,-65.3126080141527,-73.7950849722558,-74.9061659226073,-112.634869828105,-136.090928185582,-26.0115173215867,-184.513411265441,-236.243709761509,-75.2749217539013,-132.307206017721,-35.2345901184479,-138.202516093268,-82.0076363735047,-110.076276721366,-54.4557486137841,-169.014640490905,7.96133437943899,3.34438328881389,-274.951812489485,-43.9973327577354,-57.8028981456702,70.2566422689274,-177.010072423437,-177.453610149249,-68.9645717688192,13.7495967675716,-150.154284496201,21.8849760553565,33.0570640759412,23.1988906814906,14.7501030764128,15.0732598683807,21.0522033940647,23.9328646743035,15.1391327358349,39.6195545101937,26.2400479927113,32.5289133273468,33.209659120879,14.1845033929809,23.6941868663367,33.2380952114079,29.2080781839315,35.0487299080334,25.8407934192831,32.9772448089094,36.765259753867,39.6979227347783
-44.3702979529639,-49.6546991231651,-61.4905978362654,-60.9287837948835,-55.131213819532,-56.4250799103845,-78.4631531037132,-34.5385300531655,-70.5106486058889,-67.7126509870603,-63.8570497512665,-90.2248072565984,-90.6636283743085,-79.8341924055939,-126.265702017222,-125.472678806292,-152.160899004763,-154.338340933631,-143.87398522004,-216.592267225432,-211.104240405738,-169.941406675643,-278.34188405039,-289.47968703997,-173.241478497766,-186.460585640048,-69.4989887377412,-169.484074047688,-202.952107337109,-61.6181410326244,-156.274962057178,-239.424904406426,3.1344616474142,-27.720449169448,-205.064019829263,-112.425328742858,-80.2576840416066,16.4508335269073,-185.875557653506,-77.8319496531588,-90.3546679804638,-62.009703227788,-98.0361442073174,-117.190860836329,-43.9076869152386,-39.4036876993762,-45.4865265975515,-51.1171330358151,-39.6841187887327,-43.8670185046862,-47.6094280785001,-33.3870215671891,-40.1777486505277,-35.9762146855662,-32.8755342390597,-46.1412725080878,-42.3553447691135,-37.5452529315637,-34.8224547518844,-36.1706656811981,-46.6924685020939,-40.0558208287864,-35.5108346406638,-34.8835593469388
-90.3597937534097,-91.0817948842025,-95.6436119937384,-98.4108776420289,-99.1670371398638,-94.516006618567,-112.54608210189,-87.2236632833383,-107.983215446764,-108.209000509282,-109.443841592467,-130.913186282841,-127.474411700415,-116.922775669982,-169.608316896984,-167.129472247285,-207.469927671893,-211.108709670245,-177.652790997303,-300.343765857344,-260.782854491853,-292.005271564499,-357.280122771008,-281.922382188192,-269.403429013742,-265.629063163795,-123.226744669031,-218.165724303672,-298.072773247492,-83.6719899007459,-264.0370090697,-278.753029127993,-60.7824047088183,-103.429875473612,-186.288333784813,-188.91319223662,-129.366166176969,-72.4821286819046,-197.345692492696,-60.4031097790915,-130.60984902242,-136.434046279554,-94.6887112884121,-231.794203592634,-121.909260483892,-81.3033696124801,-83.7604626785677,-94.3169434287496,-81.3691741165441,-85.3499836782013,-84.252613612717,-79.8321151608092,-80.9918006620875,-78.6167447324867,-75.8136787485561,-87.161004470461,-78.8344671298401,-81.849059541885,-71.6544089117248,-80.1677881144967,-87.4547273001008,-87.4919291315356,-75.6807890929102,-81.281596094051
-104.397976260197,-110.575978997718,-110.934131570848,-113.239491814466,-119.737128478984,-106.398534467132,-122.659991756013,-108.929498540701,-125.301393933125,-126.798203335711,-135.020687307426,-143.255060087324,-144.188726681513,-135.233439569092,-184.330032696889,-180.909707100949,-228.53788372725,-232.243625575703,-183.89416615689,-337.473823785243,-262.146804337256,-374.756257065133,-353.443696968244,-214.891030312883,-332.538374977595,-306.002840036523,-190.200562564125,-252.895982736805,-319.356713701159,-168.066615889795,-320.289994023822,-318.025337792506,-176.332691915651,-197.009137596045,-205.257034783399,-255.157064085568,-199.073536361516,-182.405650594223,-205.610205473258,-110.012463268447,-161.891608179451,-210.601176485881,-128.96722680336,-289.84093077894,-206.164609867725,-107.484223963074,-108.758642419857,-119.823320329375,-107.980404250264,-110.674776436475,-102.024392626884,-109.054855971951,-101.930823024473,-99.9260146012054,-104.692444145912,-115.624855970296,-95.909898435175,-105.755573498651,-90.0743561717233,-98.8443861444069,-107.051864927259,-110.44685355937,-91.0113648612283,-106.031739068333
-125.267289410606,-139.275028387178,-133.933478151777,-139.484312884602,-146.865257984827,-123.827864946303,-144.910358937343,-142.122775292363,-149.713880409442,-155.419079504987,-166.58817310062,-159.064409710523,-166.615269818372,-163.012103692808,-198.79217309683,-191.098710157597,-237.889075298053,-225.798918716912,-185.548200938883,-334.588218612143,-220.084951078771,-441.710896493966,-252.091376677583,-112.920451936292,-352.077688228072,-260.706502129844,-229.566483431511,-233.548749243832,-262.605985572192,-218.208546941728,-302.902738104084,-344.728859798657,-302.059779174207,-256.294764180202,-183.261749838778,-288.026027829778,-267.436809553283,-294.855729595287,-188.829814869588,-139.199264702586,-177.9100778461,-283.443096824841,-148.592683517459,-319.540258350951,-290.273484717996,-138.932314147911,-142.953909067485,-148.963747901057,-144.660928406627,-149.323576418662,-132.459195451682,-149.392713367701,-128.465714663501,-130.4082763217,-145.137804375341,-152.512569275486,-127.494383196126,-136.480194846392,-119.393780652358,-124.95777924857,-140.368559219402,-139.549284166163,-119.622190258275,-141.330861100634
-154.729655361247,-171.805638068237,-157.546225648095,-169.082705411046,-175.678514621776,-146.267250437555,-170.769810463503,-175.857891680709,-169.238053963555,-183.35815577231,-192.255089134834,-173.525989316573,-185.583865083607,-187.498488771007,-208.931354494805,-198.585628904303,-230.118070167274,-204.773662501638,-188.704695370843,-302.709268753887,-179.593414813213,-448.176020387179,-145.697473689052,-50.5299734809278,-318.513493019059,-183.749494737582,-210.199928606802,-180.14506839079,-186.134899539215,-215.319719107718,-245.106158252631,-329.08460342945,-410.181040095356,-256.154844289503,-147.000675015965,-282.042545798237,-323.461161699899,-391.370417659688,-163.799359202584,-148.824265536706,-202.289490036209,-329.283067906893,-157.153279010533,-333.022645221623,-342.131656018242,-167.446516874867,-177.705079318088,-173.896203754215,-184.147788201168,-188.88874057618,-164.886823395539,-185.480424238819,-154.043723415599,-163.522248373543,-181.445886362069,-187.077416770048,-161.019031285954,-166.230098155329,-146.522321025244,-155.377978685021,-172.129503660818,-172.186348657412,-153.04794815598,-175.092159352498
-171.615916142092,-188.690340851604,-166.302787265831,-184.237573456394,-191.164478302165,-156.865043266318,-179.434997559787,-188.608465820101,-171.54907540016,-193.13598137925,-198.994659963808,-170.784224083458,-190.246945704645,-194.628628731086,-200.197267326006,-194.424627927288,-195.138629500064,-185.234561527716,-192.626332615502,-244.10400383837,-175.869350937555,-340.877805066722,-114.525822319509,-71.6761281085453,-240.488811425685,-139.856911355063,-154.24901087491,-135.463146551711,-161.833181632487,-207.572921490208,-189.360193521986,-285.187089895441,-478.395238542874,-215.095364610801,-138.868740805304,-258.68980858975,-351.612433521088,-457.033464713389,-146.410091968719,-158.896599106615,-221.24649280784,-340.278873159615,-162.841637030682,-323.828067692908,-359.943791701351,-182.730356977672,-198.630573132605,-186.293925014113,-203.648220911545,-206.707346052693,-177.566078269812,-200.614449399417,-167.698795029469,-181.396521631708,-194.618979312304,-206.253875461373,-172.894532190969,-184.27791043584,-155.869791936924,-172.382972475352,-182.418479907919,-193.680780228615,-168.834382860686,-189.073639719088
-172.36869423664,-189.351482940827,-165.753198580323,-187.890326267886,-195.109817363378,-154.856284709533,-175.721089569363,-190.395627206035,-167.254928846393,-190.958727345422,-196.719995101137,-158.14039826279,-185.872472220579,-193.432202513854,-176.54195195158,-179.892367516149,-154.552552061092,-171.503904121025,-192.289339323188,-170.71675316283,-189.844922780942,-173.80110921484,-130.806072443108,-118.151099914525,-155.532211573955,-118.883958813781,-104.36805523139,-99.3398069993555,-182.722733604117,-199.526600139533,-134.564219805807,-231.21799894544,-464.050409549639,-164.451548236391,-132.59167495995,-227.347722058235,-318.652278399645,-458.317529696581,-120.77134171165,-143.588971701273,-197.742981646702,-320.242005038584,-144.033379717551,-287.928899972723,-349.64743658968,-186.043389989428,-201.647365514075,-187.910883865569,-198.163512364753,-201.268211942995,-175.313588343238,-201.310427422609,-172.358464076021,-184.060094446462,-190.367378210738,-209.554611793085,-167.629863418859,-191.584867372191,-158.405972555852,-175.759785807144,-181.200327625466,-200.997694824049,-170.045879952383,-190.284808089455
-164.557622130646,-177.82905456008,-161.238957190724,-179.030197733623,-186.005876540801,-145.518339159899,-164.366158951032,-185.826027198548,-156.587817116222,-179.283159712022,-186.367625550118,-145.708987657182,-171.771512445009,-184.028743081754,-148.741899132838,-160.543464358391,-127.753223505723,-150.76169280638,-175.547239937528,-103.789437060166,-181.123388326346,-43.3442096676979,-132.025507922991,-111.368285477498,-85.4049955012498,-82.3027527933376,-79.1764388468398,-36.0198038427513,-194.883799629432,-153.689633453346,-53.826467330512,-149.373366250701,-348.348644601616,-113.404994833476,-101.208672176529,-168.319923883897,-211.518980424822,-371.174425263025,-72.6444496666143,-85.3306144852113,-133.644226665531,-255.180287866089,-90.3655575073318,-218.493480156386,-292.365292482014,-173.308617193078,-183.323522662803,-172.590015627421,-176.510244109198,-177.785563293814,-163.306744194301,-187.321516721053,-165.568558055216,-172.940739052714,-173.512413942256,-190.875082464532,-156.104219082317,-181.326766752497,-156.064663374377,-168.10018452189,-171.042432652741,-189.241734265262,-162.273766354001,-181.441980543559
-138.139363188839,-142.653962525718,-134.580944131991,-140.814627967614,-147.037008246934,-119.301440729949,-128.534097595226,-153.073606983868,-120.890020247154,-140.526148939072,-147.891782450184,-120.716764358302,-133.700525140798,-145.581038937505,-111.620519426225,-124.391048618628,-93.2467824929,-105.651190686362,-127.244781752246,-38.5415984972945,-125.445872936639,45.5195876182609,-96.2669544966135,-38.9339397173603,-10.3436329234055,-16.9374781763919,-62.3818227783961,68.7321918556373,-183.501846474936,-54.0185682119068,64.719857642923,-15.1437074646844,-169.001517430845,-47.5031603579216,-40.9792226719085,-62.1660452522698,-54.0291686197849,-217.671957786541,0.69931352266938,9.78746615004506,-45.6791660379356,-130.728438432683,-6.34437814260471,-102.339418505286,-178.896897326219,-133.520875263718,-135.326484457193,-128.650598631114,-134.287088977844,-130.186772855339,-126.548912728521,-143.134826602086,-132.355560286658,-136.738447732973,-132.393114349592,-139.333771416666,-128.575472418944,-139.24472296447,-129.121633710401,-138.125140786533,-133.599057379583,-144.245205989068,-133.514661158559,-145.171013854829
-70.9244945543629,-66.9799651212628,-63.3420381747641,-62.1014564034755,-64.0162076806431,-57.750372089733,-52.5331641673401,-74.8311905364126,-49.0552939097394,-59.2198043485576,-62.6802487966097,-59.6301447050831,-56.3075216060219,-59.0494975683991,-40.3066217249262,-43.2089524946422,-18.51032349244,-18.7396067001896,-31.2563720724267,61.8316457938798,-8.32523172056722,156.862470488206,-12.7063456229844,83.4200482030902,102.446268098157,82.7245977228368,14.1475410575732,195.790159472527,-126.851538727477,94.7500867759338,233.301160851675,177.097705202881,38.4860669766195,56.9839049375362,74.0069676400331,95.7328027287258,139.186327020698,-22.7388495309488,115.656021753844,149.902518232972,79.6123657694604,46.4293288443722,116.180058925853,65.2666226414452,-21.511660556886,-56.6841197752652,-45.0920016516908,-47.7106425647399,-51.0972463445989,-43.8247409895107,-49.4598306381648,-56.6067283635582,-59.6757778448695,-61.4346154013106,-54.0345459626342,-48.8329253904913,-62.565055782323,-54.963799256433,-63.7537662657925,-68.3068520847065,-54.500767241706,-55.2203599331222,-68.4903833953625,-64.9715016373763
38.9192293421603,49.2568591272688,46.0782973734024,50.3069363655234,56.2612176488117,41.5543757457655,56.2603194754553,38.9445581325871,53.2246597938516,58.6732374862211,64.7174568752434,42.473287506482,60.9499410750566,71.8506413252548,80.223028624067,90.4054190199862,99.3874293274157,116.026428070842,114.375900108218,213.63451258649,165.37874775193,312.838431176277,129.33652061357,246.077260747763,258.715433644694,213.234092165084,201.015188523281,333.715555684778,36.5936365956338,279.172887110162,463.23865477948,404.214709236736,260.294889114541,205.631585817533,258.514473268867,292.010693780093,364.093216087129,210.465511168279,273.186701535034,334.408145583477,241.979366731279,246.507036371251,274.174544269619,262.148517661848,166.972711349001,56.956354845428,86.3051135114004,69.1733643303554,75.884555461385,81.7461028486889,62.8019019365899,67.8663613629672,48.2819967452785,50.6152774112541,59.3078715579544,77.3490513717338,44.4549577392404,65.976747866134,34.5892602056337,43.8694117151502,61.199485965378,69.7982407173766,33.1260807834384,55.3528512508056
153.390942947414,171.75586264551,154.232217622807,166.262808202499,177.918247280417,144.662379558428,166.249182187892,152.441856283229,160.818327974934,179.429690011465,193.950440233759,153.168792093916,184.401277544872,205.920729989806,216.052535365248,233.418259511165,226.559026002323,264.925457795834,268.290392998474,371.492881597462,345.206447314598,461.145867479948,296.269494820548,406.254393628414,424.479735295096,341.550417257253,395.646676577478,488.855323709329,288.150871566237,436.042288666684,687.658379312233,600.796339156886,441.091797382117,343.669875592966,449.799266857814,472.613341837189,564.864046658768,447.83461895724,411.292819872645,504.470998517878,381.22253606024,414.278190089519,415.174999020731,433.461507144619,352.128794530121,173.888318820495,217.254647449232,189.9069151209,204.13024563556,208.064275765323,174.260051129498,194.101416346761,155.988646172439,163.781444333882,176.522238066712,206.557116811429,153.319396436997,186.852311551104,136.542374881673,160.337039182866,178.540727495005,193.616520875242,140.884668452094,178.602782987562
218.95800092209,247.278613550704,217.71006785908,238.468476473661,253.082102930428,203.530126180954,236.345591666887,223.473487847541,231.177197594729,255.808547839379,272.558388702562,223.654857997553,261.987525294155,287.489629383123,307.11575114167,325.40651683725,314.361965411474,371.653240102987,370.392427386686,473.587292578315,474.394465436521,539.611709002019,433.291443350528,509.943682344011,562.042708704606,453.039688231089,424.451700500416,660.809562096286,501.843019143794,477.036047795475,762.75584737463,704.295843375048,504.000844781156,388.965858467897,567.966890793522,568.034417242331,643.454759502706,628.184679837316,458.793463170515,586.131519762371,438.535158393875,497.331083597572,476.320841071225,526.670911150642,474.794786358424,240.618921569456,291.467063792103,260.647778573078,275.375839646991,280.566330376272,237.429423716453,268.657616456998,214.598868940358,229.669160356146,248.99861710115,283.259737212895,214.520062670319,258.055813552427,198.142439495833,223.799396170893,247.176808599847,266.297532287711,205.659483103444,249.469112536525
224.237790125799,259.884701543874,228.080066840787,250.803836365354,268.846451101653,210.825340961585,253.435833383014,242.540818867038,246.615557008938,273.507989359764,291.110790389384,242.979089888128,282.49103990365,308.070552616086,339.399935967279,357.32256211263,348.265350733399,421.520792860819,415.884182493701,517.925001708461,553.44958291789,549.953816622603,539.737961074598,564.734008105848,655.400530075687,569.525725435713,270.662294512092,801.083393673556,607.837464207557,403.957502813372,628.652983341949,724.262804560844,462.326501913366,332.47416622463,610.14126973141,571.706830410451,550.734012305066,735.115747576643,422.364170258983,575.653497410289,422.7913012449,495.018844889516,454.076280610307,537.114836434556,518.51901603562,244.706912709821,300.046482566947,266.980226108127,280.412153832991,289.764228727578,241.711196359482,278.388719108541,215.748983008369,239.03556794547,261.517009783065,289.57583489672,222.536844276834,267.825917146894,205.944828421727,223.611681405306,253.613917711275,273.457151285649,212.579038462847,253.591761181332
207.915978612458,245.116832600107,216.609183566605,240.433442145183,258.767626361534,201.70227658853,246.876801137156,238.733160706256,238.977168542295,266.23100841917,286.697113852587,244.86624648456,282.683041296084,306.50111788602,349.189014753771,367.94402138775,357.488783052536,445.622082858082,444.401254054193,539.933606402265,609.241673968554,539.713530363557,639.91228323308,601.151100921934,659.12108961643,666.928042495211,79.8628632972921,739.400280509203,651.091689845378,307.277778810993,401.357370325533,708.397824444467,431.326204925334,246.106118092457,594.983538472979,536.907992601323,343.217544326671,784.468941746533,360.601465443923,518.731500035206,361.649413835082,457.036692832096,383.402610403272,491.268414638972,524.869099430713,223.136377616575,277.017584913541,248.359287484274,260.330915843986,273.43030067243,220.590957805613,258.693432603821,195.925007397273,224.405590860244,245.822830469641,265.037777579032,211.002603362241,249.453014190885,190.730947722161,202.162668070705,233.058602182557,250.740993509894,196.049483128139,233.592895080783
198.587611578532,232.323051068187,209.976134997897,236.830133916666,249.945545505629,197.135509537535,242.427025072028,232.459656168979,237.21926168884,261.549072978997,282.438910088889,250.753291170326,283.27102843656,302.146196305837,353.734468672517,373.690531927935,360.185924252932,454.586777479555,456.272171699783,531.042765146302,632.373493982053,508.301742441161,702.077719106732,596.021309085158,494.118421535318,671.811151894224,-23.155408229003,291.010685723204,657.282671451955,223.250016923793,223.290764709285,656.310619680223,481.123998501259,182.489474358568,499.225426452569,487.383607925319,155.631719739037,747.224853203527,300.799990583185,424.861494554634,255.761669202407,431.404617963957,277.701043576319,412.299909025451,513.242161364913,203.600869531929,242.65017157505,233.734861584105,240.189413986744,253.792221829281,202.548186346118,235.752435756572,179.855837439479,209.06558263876,228.165717536554,244.051573559512,199.520375546533,230.556288460819,177.708241531135,190.768419961343,215.589103297222,231.631089173199,185.442347454361,223.732729896474
186.506590636539,213.710495150026,202.028177093832,223.807735602814,232.714362068564,185.851365617339,230.762530076607,213.701051483615,229.80566502435,247.620543525827,263.582100625388,248.312134154024,271.015238406618,279.95613089853,338.580350374113,355.821280332009,343.799914305857,428.104099679675,420.843194429396,459.256907171136,597.951792492123,399.370402162271,687.233743939093,510.957870235084,194.480320361194,558.920400116857,-24.8310108354362,-383.98480311103,575.802647599927,109.662816573439,94.0626081035386,515.751934181808,532.128842012258,125.086341275397,343.156991481469,383.17241767154,89.1209674956594,556.89977745641,232.698933204216,263.678709519905,134.705854605647,408.166420978096,146.358234957393,326.777601084584,447.607963624502,178.790616122187,194.484994982282,209.393655479286,207.798878372574,219.250344009679,182.114815032544,202.612371228671,159.303967932776,186.363137158891,200.544757692027,216.202732426635,177.554703891221,205.008444018661,160.068426330067,179.748317894647,193.627847277395,208.666226110608,170.970457005669,209.575693832179
157.117179615266,176.857348674228,179.770276892106,186.082085392767,194.868242063079,161.081441897837,200.044342582609,174.82087078118,204.172461377613,212.724604026609,221.233998845889,231.452311057794,243.356185685624,235.014099298402,307.9434944312,308.655996061569,311.077327009403,371.056676843298,346.346283652405,358.220450620092,507.932090551059,232.459168293384,616.434483114289,351.603761252005,-38.9184886961481,346.284846847604,38.3403944650083,-785.901992042833,394.681557204204,-12.9706210531981,-63.5814391884775,268.560514118165,472.730056425426,52.7288253390761,223.51519827379,188.994856643949,104.608941768985,206.514945138925,159.250619035077,39.8942889208846,62.6378052775561,314.577556802514,22.6574821520891,247.98218686919,305.942739995222,136.587478168619,135.62549727826,160.331764533665,153.0510070564,161.197480883696,143.589100595469,150.786755088995,125.494891346828,144.693496249712,151.199799002413,162.362720516312,137.325881971477,157.61030945682,126.962323597954,150.179560292144,150.50266308468,162.238437468822,136.720925279833,167.865670288343
116.309709891022,129.135647233254,146.165948567036,138.971978232642,146.439063602755,134.088979840677,160.204991061879,129.752091012517,172.264192383384,171.410365656793,172.318011359809,213.860073851957,213.395037017421,185.288615305866,279.63635973901,249.747325745834,290.238206965725,313.439538132747,267.92485157578,305.08488332127,382.965451263542,136.283797451106,507.638485228576,160.519160302119,-57.141765231884,59.7780790141012,144.352496470369,-666.635340358709,208.344329442338,-49.7088510077505,-247.437190409777,0.0249648022650497,322.06858538422,-7.26661543899525,187.78742650205,-39.7719000246026,90.5079997293863,-182.272318748386,105.681602480147,-170.595375795323,43.2819825399033,119.833213467361,-67.0816593832351,150.779255935175,132.16652923033,84.7942315893761,77.6650379018896,99.4417531157183,88.3622438602172,89.9720803921216,91.5510184285428,91.2545631843576,85.2176008817049,89.7755300139835,91.4865198846359,93.3329463793529,90.5410271368577,92.5587083902939,84.229959374085,103.304867077323,93.1785568000135,97.9848830137698,92.2495328416627,106.87793084859
78.9907972804706,84.4532636292487,110.726562475926,99.4593910009993,102.006500330442,111.807235432819,122.724637093809,91.973589908341,143.879540745397,136.398581084805,127.415129431604,199.281382796545,181.360580461276,142.810644566766,245.180568157225,193.136236596249,285.960722372778,261.650261564265,197.733823061105,308.419843834279,250.375316012086,170.108093254984,354.466522617714,4.62411959266763,63.6929147134925,-199.154135931797,263.275885686276,-305.665929886362,109.330094758665,6.7963593508099,-377.720990795282,-167.987253449592,186.018168859588,-27.9369561843516,173.736069953213,-186.877635480166,30.5813086421913,-430.535370943998,81.7098925435451,-288.830579545163,15.0478319053161,-86.5779047656201,-122.130679289257,21.3676124655237,-8.84508817359827,40.3247325808749,27.7073705361339,47.2123724251744,33.2577477314905,24.6998155130661,44.2639254657852,38.4428134387654,45.4476479869324,40.2837592078119,39.5640784205106,34.9752410324452,49.7190101245384,32.1952764170712,44.6175490031443,55.4477177911537,42.4305342148395,38.7014707018059,53.9611039120647,50.3364904593285
45.5577513157845,43.4200530607591,75.6312436850716,63.1526134226665,59.2476581234816,86.2876929904822,83.5570082342234,54.8351156719478,112.240357351684,99.5623085376666,77.4643800606224,172.160186591379,137.737167216031,97.3112648401457,186.924252920601,139.02003074557,263.730044411804,196.414371206958,126.460986670906,295.899705065342,135.935917411681,235.334429065584,193.21126804783,-67.2829123391417,152.389096287983,-311.599284139426,332.927061105888,-71.1047725902334,69.8852794480698,46.6442374311904,-410.192928970406,-202.299261614109,94.8852526905009,-37.0105216622795,98.7330357408913,-213.224436226506,-16.0750335023804,-482.274360710783,56.9349077052605,-323.472532176119,-53.6899263245086,-227.919700496154,-160.276640070495,-111.912961331052,-105.59015061284,2.34422531925233,-20.121071803704,4.27802202690424,-10.0983792414315,-26.5378535731595,3.28263241662349,-10.6220838186077,4.2808353100202,1.35884465739624,-6.31129643298097,-10.6170409082852,12.9839477357652,-13.358752024673,10.1075029829301,12.9664575853657,1.87028076674102,-8.44936426101055,18.3789701792912,2.87844694265181
-3.40042247371426,-9.7218362656468,28.3009961914117,10.359134337781,-0.735506256882672,39.3584036896153,28.1927873613777,-0.782436922941835,59.9422727265421,41.8993970874488,9.46952811278996,110.364319796142,72.3804848200848,29.4711126888673,100.909396580925,69.2892761961257,187.426657726974,99.2738059850596,39.0650289633956,209.119619902914,31.3063731667698,213.522725677077,63.6303927941741,-96.1131981504081,130.154132861984,-300.58890742049,303.40830219134,-42.9162425292622,-1.59452447828397,-7.82500150607046,-384.704585853715,-161.629439454242,-32.5144004524957,-81.571080816286,-54.9901792611689,-196.288199851999,-65.4216688745835,-454.759512360053,-12.9535131117256,-348.362733840409,-143.648415681737,-345.965380667372,-203.976338088187,-229.781062512309,-202.908003675975,-49.5981253513578,-81.9887947252388,-50.5955092608459,-63.5379019774589,-82.2384532041405,-49.0603153091823,-71.761917173958,-44.9868994252174,-46.5107546708888,-63.3469732919258,-67.6974910549667,-34.0682108896441,-65.484808870075,-32.3455143466254,-38.067409148454,-47.8379133893296,-61.9886936903535,-31.3145211565284,-53.0488384614217
-78.1858152248961,-85.2070511415726,-45.0591177492164,-68.7984826846302,-84.3115834077959,-39.3845410309357,-51.0170929948267,-80.7547696882594,-26.3977643521321,-46.2634896225846,-79.1054674433205,5.00436669120466,-22.1991997446258,-64.3479176026288,-13.6685159857998,-35.6089429737838,54.8578241215813,-32.2646237039238,-75.4319573277684,53.5988339207094,-95.9084277983573,78.0420204790674,-63.9395324729131,-165.836206500332,17.6540833147049,-268.61664051449,191.59000188713,-112.242437981405,-125.827197634473,-109.935443837742,-363.649609950548,-122.894964598211,-237.659498300662,-152.455130331121,-229.896244814926,-212.508841110566,-167.102713881708,-453.449164436653,-122.109973460901,-393.330445793497,-223.899135472441,-443.302557112535,-245.713577267001,-327.99541668245,-317.619009931118,-120.473616010479,-158.086467396205,-126.559951559879,-139.087061873829,-156.827465388148,-117.490069439817,-147.13370179444,-104.898742892926,-114.858983379525,-136.012883698273,-144.547940539344,-100.968627859173,-140.396521185046,-91.5867840189714,-105.307963554795,-117.671082917482,-133.792302563616,-98.5650630317482,-126.508240667423
-157.198251669682,-165.463088671012,-130.544487405527,-153.95806025768,-167.174252440979,-128.499562139604,-138.205717348344,-162.447188357892,-128.986453290709,-146.569510751119,-170.842830383867,-114.002261069733,-130.635625426532,-162.481625274483,-140.934515598634,-156.009150718205,-94.7196498095142,-173.584782009145,-201.264616934411,-124.585280577035,-240.782071684797,-117.896699657578,-217.514096826919,-277.740985165572,-130.435544466936,-258.122481502591,56.7876310963933,-169.771462596879,-239.143846749668,-162.82554610111,-351.100173656252,-136.2849331838,-413.763997008063,-182.937054044729,-337.32749080184,-261.681057835306,-271.714183221832,-440.096057654366,-210.153025865485,-413.309979992214,-275.963198014707,-422.948393176568,-259.923144509793,-388.63584638874,-391.428603294833,-185.256087149453,-221.176386960209,-196.388726934281,-210.365677494106,-224.047737214267,-180.670137687209,-213.637363440233,-163.622485286349,-182.553413013782,-203.062349540849,-212.479924761144,-170.58822715535,-213.436759971925,-153.832672846449,-171.224122603154,-187.457172852391,-202.402570915327,-163.58365844557,-198.26806341987
-210.943418659008,-219.288786607893,-193.870898915549,-212.566770501359,-223.640779929107,-191.791311390525,-203.442863102733,-216.772091935714,-206.341409015741,-223.077885314259,-237.316217206795,-198.017546592246,-215.889281881532,-235.153757528277,-239.206054935127,-247.689713659409,-210.737829312625,-283.361215526158,-299.330642782084,-271.982315290223,-357.081342472287,-290.854612914281,-347.939913999116,-358.119888336385,-253.142672193604,-253.595922083268,-94.9145183742519,-154.868916569187,-273.182949842032,-147.814930825923,-294.683248928238,-184.616625807577,-443.706627823678,-142.336209078997,-335.257391631645,-304.95069547146,-300.376721480216,-354.28287890371,-241.170889902053,-366.916633812505,-309.974918656962,-294.454901726831,-253.578566962093,-407.51942989808,-373.739425729536,-222.08768182284,-248.970892747921,-231.532156311801,-246.028418280876,-251.208858345088,-215.768767918871,-247.94188226254,-201.423217942676,-222.891269202465,-239.385637933712,-242.530456504533,-212.935206313451,-252.04782397566,-195.407342311878,-215.158455475403,-229.591831394876,-239.221595529575,-204.147482877417,-241.511164600176
-229.731432150184,-233.855954936723,-217.866308807985,-231.430378812187,-247.304147022358,-217.98997191953,-230.209746916952,-236.38281786354,-237.502500184807,-253.872083576465,-261.890903152325,-232.109074626781,-254.443213793304,-266.926298141054,-284.655022834241,-292.745484083265,-275.236003322397,-339.41667883166,-344.92761366891,-358.954812481294,-414.536693025757,-397.412658769849,-403.530520596221,-367.542993946982,-316.056800335408,-220.636515960198,-324.345346549183,-69.1105629543911,-210.145749870962,-129.323054392742,-175.656788551335,-203.933800103072,-362.064158396839,-90.4102111898815,-266.454611939161,-314.417152280077,-263.686076951273,-230.23235238465,-238.277575618538,-276.411539120722,-334.939148000554,-197.773628925899,-245.416031361571,-389.300270920639,-288.349465663621,-229.972358924005,-244.139682265268,-232.690579854144,-245.611223687873,-243.847128266339,-219.428299574463,-247.303387647464,-209.353184179577,-229.861696211519,-241.106701739751,-237.028970236872,-220.320868819774,-252.807466541924,-206.533044515679,-229.007071230907,-236.501583164162,-240.839451325672,-213.886444704286,-247.149196534603
-222.423561074107,-223.662231688456,-215.103611714086,-223.579442563672,-241.431723640054,-222.157917484204,-228.28080244965,-234.933467398467,-238.379000487396,-248.967719535279,-254.956301281935,-239.876505826319,-257.792534449165,-267.36801393813,-299.874153357805,-307.182224688137,-309.476933051101,-361.681094643316,-351.328527782313,-402.498871416112,-432.927864865232,-462.245845125465,-417.227703313896,-338.731542693628,-345.815462513813,-159.231605954717,-614.943280331934,13.3691277992802,-116.22659007037,-159.98557397505,-69.8625383210433,-204.940342600686,-284.80737623115,-106.305073371083,-214.802250948475,-307.830439764765,-222.376878106798,-136.619284581821,-247.730701982532,-209.949596263504,-338.079862157896,-188.801345355732,-233.60391206239,-325.000354833833,-186.346523862084,-215.346828673284,-221.637353120436,-214.442484360489,-226.072910662112,-226.833173368874,-204.758856778055,-225.203632272107,-196.005391892677,-214.224099011552,-223.264188079031,-215.889207533132,-209.246958252249,-232.307749020644,-195.898659353807,-215.529517568862,-219.825861475015,-224.010007915408,-201.070261475192,-228.363484093636
-209.859250328551,-214.282626379462,-210.006180369528,-215.836350830929,-224.285690139581,-222.593672875134,-222.492981442559,-233.046209953391,-236.620361793458,-240.231017785993,-246.895700158561,-248.444384595674,-258.838330285003,-263.359883762526,-317.170209144171,-318.990385027175,-339.684877896763,-388.55406164623,-359.480391844745,-443.561631880218,-458.790985215894,-513.344071875086,-457.322840118203,-335.117976816204,-396.444203026699,-138.486967303031,-801.57824804069,2.29765769713296,-110.605759859387,-249.552982974417,-76.3698454849198,-291.481079739443,-273.474890316917,-193.338004215249,-232.647466052318,-338.259855139702,-210.528190990309,-114.974436021025,-299.075181724874,-213.721590146684,-336.429183551213,-213.711473986359,-228.340703467463,-250.394290777687,-114.797601513781,-192.428700786876,-202.553533967274,-196.954027922589,-206.236732892071,-214.567406511471,-190.985642114366,-205.309646866718,-181.175056013043,-198.864443016909,-205.139161625385,-198.84545291676,-198.080429291663,-213.703119627863,-181.962275074546,-195.194326741129,-203.366735492245,-210.401952369554,-186.115926815331,-211.752485919641
-212.524347641605,-222.891871651084,-217.175376720392,-226.058956151764,-225.880341419494,-230.306696566491,-231.054341729268,-244.709265735832,-245.914398632254,-249.378164589105,-256.972960678968,-265.826682257177,-277.782073271849,-274.765376352552,-341.615432587369,-344.226497091598,-369.465351228951,-429.685991372066,-396.658019623859,-495.664991787635,-512.15952379451,-541.125591668775,-533.603612445218,-393.185627392773,-475.423988536575,-214.999156527334,-764.261190176619,-116.675160786601,-241.351512321665,-386.778100226268,-231.811421189142,-488.20292844069,-315.614232684035,-286.906262221814,-309.322109216517,-428.810515608852,-222.098315399601,-171.601012720499,-375.837044316978,-263.750294060492,-371.349460539634,-248.322090454002,-253.667006526948,-242.844754192233,-114.026009743535,-183.581355869605,-205.667225881735,-201.29495671413,-202.520904979281,-214.292194963094,-193.719260736451,-208.055627049424,-182.163539194591,-202.913137653071,-201.661585962028,-201.031316393166,-197.355817607811,-215.59542618206,-182.910129720473,-194.313051899757,-206.606003019845,-214.166036440982,-189.877045966607,-215.235368936179
-234.903859602381,-248.839770583527,-237.467847506205,-249.259267763414,-254.154795808702,-250.67786057808,-254.817899729202,-271.541774621166,-268.967848152391,-274.454640307105,-279.550550287694,-287.071674337625,-307.483036433853,-301.99488561303,-366.308235386284,-376.604677118858,-392.334470086248,-463.295537830792,-445.84530033117,-539.276473973306,-567.54534667043,-544.264984464705,-600.436933177835,-485.345783269851,-539.042553183074,-348.00944922646,-588.493325959281,-266.750865925325,-429.428299230699,-517.058943025602,-507.025252631261,-646.798392890344,-364.023865095934,-331.940996015772,-390.47001411331,-547.038514384777,-248.942465029777,-255.283036648338,-422.173383163014,-307.579602797494,-437.706688050738,-299.414774820507,-299.768045227921,-310.904277950665,-169.228653066679,-198.07733956671,-229.250928609319,-228.211774313452,-219.325939671802,-231.720454099342,-215.546498769594,-232.926080043657,-201.61643099151,-223.007448102145,-219.341138437294,-223.843969933085,-212.058371949912,-237.288268494409,-205.958334688766,-217.670124263524,-228.393279388924,-233.844234331456,-214.634808381453,-236.614446020657
-263.600560121533,-273.988208096868,-261.307754790194,-268.91214371253,-283.414922991342,-277.197981706208,-277.851655371886,-303.088992314399,-298.099404822419,-300.640363786443,-300.392363294252,-305.457543398727,-329.272041616056,-327.767279900951,-385.401999869383,-396.463049933555,-403.597403323403,-470.616109697433,-469.571327198232,-551.524696032733,-584.777333514007,-536.546247156872,-615.013991186925,-538.219347916734,-542.400048081959,-436.143374539725,-412.140387188383,-338.746364048195,-538.524814413685,-532.682632374462,-748.964561549071,-600.597473653471,-394.65850813753,-312.875704590983,-398.442240548607,-613.926550144012,-304.330769387532,-295.510875120994,-383.101386405082,-315.220724667781,-479.717723863614,-336.834233208821,-318.047780220077,-381.86222489464,-213.922943946948,-218.503343874837,-249.897308104397,-251.628788186684,-241.595674914701,-254.822868261495,-239.319698601513,-258.170277191257,-226.70429416174,-243.119066142075,-246.127108494248,-246.790643251294,-234.777298209778,-259.474917299719,-237.771734086122,-245.829020807901,-252.018874372372,-255.228919612372,-243.812203046193,-260.144664658758
-270.544950413714,-272.252524128856,-263.992907653753,-266.673766859423,-281.131549345452,-281.574339617393,-273.172813794306,-312.187802804645,-300.652664197896,-300.956297631595,-299.321958472547,-302.726677050184,-320.045434894092,-320.299370231562,-374.952795492531,-378.844019076582,-384.111935960182,-441.167418078056,-443.125704111466,-511.012673472405,-540.96367571352,-494.178162708869,-554.386689237649,-496.724170537063,-460.777376500773,-408.160312503612,-265.370557894176,-265.032658665504,-467.983249259007,-377.103774362511,-705.199745626371,-359.026889113173,-428.628547053086,-257.642574079513,-277.673477124461,-537.470339390971,-366.663216247252,-289.061407378713,-250.995802403958,-265.975369879771,-443.036206242155,-323.525694425155,-268.498795562844,-394.214850318102,-213.297502118895,-212.627296491943,-236.941634924308,-237.168971616404,-237.152943882918,-247.568037259038,-234.453528831039,-252.858250383941,-231.673007477402,-242.387435250564,-248.355096402077,-239.087912879829,-237.063643360118,-255.363889572178,-246.80485460511,-248.579997484632,-251.338862560078,-254.160095361162,-250.490473899317,-259.456741859144
-229.343914411323,-228.383199019246,-223.263338572892,-225.831352922586,-234.213164081301,-236.378553529294,-224.481670998156,-270.547121897843,-248.615124018763,-253.443871569694,-253.054568905573,-256.690614410908,-262.469066234674,-261.096337165043,-311.177672974202,-312.283507441834,-316.7505674904,-369.11073179088,-364.20236623739,-413.879226575029,-441.592589265335,-388.248706600684,-424.214667342359,-372.479114728703,-309.093749217837,-279.318128001086,-140.62962272451,-100.40399554994,-240.975430385923,-145.854672574412,-348.728602365492,-92.1921537173759,-457.625875960437,-235.283230851412,-85.1574509411222,-325.569700422867,-369.075860919177,-278.508876042689,-90.731282215002,-169.268355548265,-324.384948976889,-262.557422967728,-166.649030859699,-334.860190984894,-191.455663840229,-161.75968419192,-176.671726416211,-173.235358219353,-184.097358459963,-187.955727866054,-184.453234241308,-198.572085225713,-190.230095580603,-199.044298493678,-200.806155179625,-186.492010841838,-192.647336031512,-207.189743018172,-207.392800208922,-204.867278094504,-203.694021853677,-207.455212938771,-210.976570684055,-211.79238875318
-150.900481365851,-155.822639338025,-152.670981859518,-154.843625965397,-159.729477493265,-156.43910838927,-151.759426925138,-188.907466974502,-166.638672381608,-177.450551464056,-170.874705087203,-181.77531715878,-178.088831325322,-177.239876861899,-220.852600137649,-225.141310243111,-228.804384299401,-279.068391367257,-266.743773263714,-309.18639729082,-324.727362765274,-267.329876024703,-285.274469626571,-230.698908807819,-162.776441414262,-130.119858254252,-59.1736336930236,5.04750214623835,1.59655441181887,13.1689353490412,12.9537334516336,65.4164780438077,-425.841524724489,-260.890782751336,36.5762977446695,-117.831728297089,-299.268212569553,-265.861432545567,16.6849133979227,-100.23777383225,-176.898054262968,-185.919944322367,-73.9656819999334,-224.367384064173,-186.552419656843,-88.6687307773622,-96.6806989520034,-91.5483866037735,-105.878433072813,-104.82257203037,-110.485620640048,-116.386074463612,-111.711890240112,-122.921513956956,-122.122504446535,-109.629898367204,-117.921992553548,-129.211877785235,-132.355988450877,-130.360286008375,-123.143780554641,-125.149345699121,-136.144051297477,-130.420351544118
-79.4327844935713,-87.3140113185579,-86.2335026514792,-88.7839466655017,-90.9610263437715,-86.3405113320826,-93.1754545171698,-112.566374812475,-101.204501293058,-114.288886742954,-97.7045953231693,-119.434454051326,-113.089955413059,-114.072842047317,-157.66581852669,-161.31835408971,-166.753592409065,-215.188215497256,-202.896544489283,-257.525428489249,-240.36450995292,-205.356398797928,-214.308701108962,-139.119023957623,-97.0827071695426,-26.1600467771451,-26.9674152694587,-5.88315336226719,147.041390971467,66.4310879575442,158.990736366324,132.298477211662,-342.432164509091,-243.561357979012,39.2259282312915,-21.3064711717844,-227.353942341676,-225.855902511525,57.6254640761766,-116.720626365408,-53.3524852604854,-124.120669804417,-28.1771552653786,-106.790524680445,-206.721920180282,-43.1067762514285,-44.6611990173134,-39.6469969114339,-51.0421227691124,-48.8800464210332,-53.5263059105531,-53.7133649615445,-45.0797411574008,-58.8307396022716,-58.6430004524495,-48.4352995225492,-58.7201882094702,-61.1600406744191,-64.627036886154,-66.8326389058579,-55.5500768077734,-54.1263402167198,-68.8822102284816,-60.6987901572626
-29.4817960259958,-32.4505800431344,-29.3256026860931,-37.7847338711274,-36.9710031199972,-35.7707707397719,-49.34172561082,-57.0018763869721,-52.7172713504517,-66.0274639522496,-49.252516783444,-72.1752079747707,-69.9358705166454,-73.5181354309849,-120.314723332052,-118.01766561773,-124.801981492221,-173.562487773661,-172.932966126184,-234.641599556148,-196.082730173753,-174.925957667511,-207.496771177358,-123.606416357702,-84.7985001756163,26.9921208814083,-20.3346022333567,-10.4873866479542,193.275244792421,82.8767595923347,182.486866480602,177.704859619579,-271.374324056717,-123.244487869845,27.2537956446738,5.07686852052188,-195.939700317227,-166.48226308025,78.8199533775536,-164.805921392567,45.2701912277784,-75.2767927001385,-4.65648569030854,-11.5164272317687,-212.556691080585,-34.1323932776904,-24.1374687132122,-19.8273827739537,-25.5126277566282,-24.3416570892241,-22.2919072982689,-21.0586818503187,-10.3197063486785,-21.3473699128574,-21.3357143906839,-11.0874454403862,-23.2352329338507,-16.3685408785404,-16.7977538744432,-23.4082577475788,-14.2524826502939,-14.1753758302926,-21.8177031159162,-17.5090162690477
32.2015051427605,36.3110416667855,40.0884618066012,28.1539068402552,29.2718864939932,28.4306408322241,16.7744463092489,11.8175890784389,14.5090614353042,2.76885130213663,12.9414423203711,-5.75274580970217,-6.1149807839039,-13.7839692032124,-54.1204861808981,-49.7974499975318,-52.5684110873425,-100.2361638185,-117.676111717643,-150.690802371339,-142.968946495515,-82.2551718343082,-177.302667961201,-145.568000887527,-18.3602413421707,61.2529710358603,-28.913202876464,110.18523228622,177.027036532623,133.227591424305,212.679974669163,208.362116217116,-165.015756660917,43.1605343964885,88.0037208525046,71.565191259005,-137.630773980689,-101.690444079594,127.489139179102,-147.74243556756,165.26600312663,-2.14104569721238,47.9991165096858,88.3480570709647,-152.216224684812,-2.12628010606724,21.8737223518057,21.7550792098889,23.9610371690955,24.5630997991016,26.1738724783063,30.1616017505936,37.8012435132305,33.7865313069318,36.4415047055502,44.9989879252149,32.8843715606717,41.0155493890462,45.1434117537004,38.2081807040722,43.4896631129767,37.9972193489751,41.321979544819,40.9900645387771
126.179953878961,136.889896299325,128.558514640125,126.297824674792,130.003735591303,117.305321077377,116.100718018093,116.462402421052,109.083277163907,104.823280371502,117.940092753624,83.3305508258283,94.1397398779021,89.9619723266484,58.571290782217,60.3971531465138,58.2288106231882,24.0885412895215,-2.83745078518509,13.1888046937387,-36.0596878036213,73.9077106789387,-64.8111742546976,-126.043308445053,147.698521430102,106.101253228638,-50.1093535730579,282.718040152987,88.2845348029314,237.984213977048,244.538911291426,214.389348569798,113.856480295311,185.063504778458,156.169256378453,246.059064793366,45.8869419246406,8.01030041645612,216.894852163478,-44.4768898219756,346.776492448679,131.1062710314,161.730181956401,242.861308441572,-10.7373559301236,109.245614913592,141.337747350764,128.214070605009,144.150573556047,144.361313246806,132.412074301617,144.792264966976,140.463233694895,144.027377741611,153.007725605917,158.563283099883,139.684369398517,147.693778566912,140.86451943125,143.09481668912,152.769806567749,146.628551321427,140.801890371476,149.348755521444
233.312111544428,250.647046970401,219.982693674887,237.861474659929,252.140931874644,206.003350558854,220.27055669979,236.512746131767,205.06595443727,217.497258928799,244.063085655781,170.04795394719,205.618257527592,219.115258642887,176.427945208322,185.584350914318,162.442202164951,161.892370031135,146.597810316457,180.478476095525,120.035570823856,199.010686221599,106.277366991407,-20.02283264383,347.072191873638,170.939890503157,-27.3741235337646,348.968561728424,-103.033488652255,348.970881862467,292.569030268199,215.603996960908,562.910658869894,291.853950312264,124.672334125545,503.548810357667,340.578759294148,200.854557831477,318.493939084432,105.136204189573,563.588644257242,323.498627422947,329.857764644045,452.098399810797,187.093396128839,277.065127777785,310.223524314979,276.362029172091,311.062345498357,311.635210510463,276.828139460466,304.762863234816,271.16821327666,285.489503306738,301.227064145245,312.533239078697,268.618171667771,292.505498534411,247.693057353805,266.489332667098,290.341680706034,295.274332448591,249.267337350383,284.832280522904
326.670699672159,349.807907649533,301.203703983182,335.348183798173,361.968414751962,282.095859259083,306.622362129287,343.217771562426,284.954610525027,318.308362437612,353.216387650617,248.952291690759,305.264442712306,338.728816478708,269.980014398723,299.399689698214,240.683999017332,283.515770290641,291.316716436139,303.165692840313,287.5203771874,262.348102855702,289.367416729575,132.810051503591,510.282334168184,243.027201092239,128.06528386284,301.733804933666,-303.19056375811,437.554135243376,460.232655963178,211.395859745374,987.021533380699,380.324007717829,25.1737389953963,740.827105269384,635.327453781829,401.217675682869,391.595482470384,285.429143714032,742.838339538208,515.95911168595,510.961635660824,651.657592036494,381.802649593206,423.436634225545,458.523379313724,405.831884075735,449.078024881639,457.523527274437,400.747787347526,445.996150956528,374.452520208664,402.53027197638,424.612382538241,448.804076140161,369.915858195536,424.947997063462,336.573982253899,368.764240658003,404.642783311996,425.980374775916,336.101404844744,399.519978400474
394.18783455027,420.233254564695,368.831728339854,403.571793941687,435.745347914363,351.429018690386,373.819062995739,423.366028232752,350.185094597784,395.223187002429,430.207787335732,325.087906251064,383.608402867397,426.660276574769,348.77854125928,391.30162202833,313.347571665028,390.215905989936,408.49624145429,403.702127097168,425.014640462057,325.772806256451,453.750602181827,251.542586384089,636.870588707773,289.447794410127,426.505573037551,260.158275431608,-289.965045793221,569.912586368783,774.84944418123,152.724463092765,1220.06794675873,474.219041541563,-34.3272389036482,870.707571714603,894.295224894617,499.006710934633,428.750125258149,503.90246181097,854.670387998495,631.911462153,657.571780685723,780.029393325784,508.77552312963,501.736995027184,540.830947597712,483.972131288259,515.090082888341,537.845402583139,469.839684176902,524.599392864268,433.800779833156,468.588785932551,497.417092378924,526.548661800469,428.698743134671,504.253148597127,397.143272206848,435.450700990205,471.565752073571,500.950394468955,398.555998369679,469.838464837673
434.242455012653,458.224398727201,414.036534649728,439.675810016525,469.947464504306,403.511950295599,421.194735614155,470.163136319488,396.321343963213,439.078134842148,476.224097623178,384.69374306138,433.469704749038,477.32029225517,417.28119475594,455.065287059342,383.342778135099,477.397315452631,490.155771925496,496.116623424056,507.959693566074,408.186943076849,572.047227815274,297.62458511746,723.487950954618,292.706756703683,755.877607047966,278.936192662236,0.69124363746819,701.922679330065,1098.2528754185,3.46019774113008,1277.27039181862,583.886354771734,-53.9680290395463,885.460483070985,1188.01607543816,531.863726724097,431.337053712999,721.924217409908,926.980557209106,671.459890495075,738.619172533796,835.434360591684,566.600908599978,518.774530054733,557.558279562385,511.718750448073,527.036913494175,554.767205283893,486.054555610438,544.590180051764,460.025284545089,492.134570554462,521.98793325284,548.518911763764,456.514216053441,526.868369305211,427.562759797794,467.247739076937,497.713017074101,523.622394641672,436.328230462087,497.976458508551
431.922606358246,451.0611514977,413.188457392359,435.980697527856,459.586757767915,407.573387624867,428.253956126335,469.428435571151,400.985760830582,439.11398924183,477.525939876301,398.85614669927,441.733429976632,479.037402726938,448.021433289031,478.412188971671,417.76163290996,519.272254811587,526.403981961582,550.549012584298,533.392439793686,451.877309294364,624.024187169078,290.112870480086,721.449773965751,283.556154142167,947.25154260758,347.884197328869,341.523204420891,589.148879824505,1256.21245902176,-159.609095093654,1211.89545185153,655.583081349822,-89.5042856294303,823.713524070082,1465.62288856658,585.642453917918,359.881420892611,861.287773445604,967.61633546182,672.19957808037,732.684792649517,829.13853133865,582.984760429395,475.246542689248,516.049472783914,479.806079115544,496.14682784355,513.901942441532,446.891502887948,509.571058765999,435.949520975926,464.835948414645,490.059796476653,516.183437926947,439.487710492924,495.200321362237,412.329371811667,447.57214582052,474.428248039087,494.22524679183,424.473660405057,476.280322029101
363.65363830782,380.669133487527,349.824758861058,376.776961360308,392.491158429364,348.557473703301,370.758682891735,409.389563237977,346.519139717277,383.651308731679,414.211243018707,349.039124351742,392.631458378323,415.768678072493,412.185338200718,444.451783734357,384.596753567459,494.671042445064,501.888185707077,539.664475519465,505.79577583737,425.553464616242,611.578227648281,267.257258923623,632.816619265179,294.390615177704,898.496987575429,472.477250872617,480.778744753106,216.177958261609,1139.41544855118,-177.577250638972,969.327031536012,611.278359430529,-99.0517147131997,734.946016131695,1486.31099228147,607.915753369174,194.472176745326,891.978977333716,950.806611527002,592.571000903287,641.649187763926,741.436105707734,530.225747618184,363.211902824886,417.929936412443,377.411375437446,404.209755447169,413.663605627568,346.758833597782,408.483689385147,340.407794828869,366.705069550899,392.919331061566,416.28329560651,352.774518880132,402.919583780324,332.939600011853,359.338167730443,382.308830494013,400.072950518457,344.102899162282,389.002926806378
251.043729623261,270.595588008289,249.862947971254,275.267638882861,287.454830070967,254.723326638322,269.025179711659,313.869516837278,253.923232393941,287.266621199036,311.354292307422,256.163743201208,299.521267685386,312.350861867521,325.237755617884,362.34421629952,297.567139667,417.929877459128,431.230937136903,480.475729582294,437.58504553192,360.406259999686,553.304893251199,260.690846257761,533.820230483477,310.6744009949,675.704221321577,587.767525842532,357.042069819171,-28.087777867251,725.440214622486,-33.0688747666501,520.048592492089,479.477686632523,-15.9989279844389,659.822524204887,1151.78718178139,555.200240570735,15.0694171242547,859.220797137574,884.874997737285,400.148151216156,530.233769945955,594.134802428714,402.291332122008,235.006902004126,301.686586404931,249.187883837122,278.140504703492,293.099259552166,226.996076725435,280.760080344659,218.620266437385,238.038687621454,272.342226598668,284.441058592521,231.344927805189,282.237519134559,218.009339854253,238.528895059581,256.974249326469,274.124785735342,230.731565908286,266.655926054471
162.99251770133,184.627304254388,167.317088892657,186.489122524486,200.572676071447,176.62188001713,183.196995538263,235.930077444719,173.283002636463,202.607655458637,231.711157549083,172.054805090477,213.412743291548,230.358171984875,238.306951956826,279.507582461933,210.159422789536,332.204496993662,363.698035692295,409.243976760502,352.71054284308,292.08291460927,452.171078545035,275.355489300952,414.929356888619,292.269644297535,447.854366975765,506.943298596795,57.1356407296392,60.3183827662301,168.629912685573,84.9740884942434,9.56996511098242,382.001317092161,124.616429453547,585.873787498787,670.603406209478,541.599501879575,-74.8623004173678,808.233934580809,800.726508646322,205.993538645883,483.158783430644,471.578444267834,293.86711696192,171.117366833007,229.345029231906,170.716742224913,193.721430860483,217.754283784922,155.500511192295,202.448285883279,145.956796132904,158.345009229806,195.636303986751,197.987394303628,150.557921555307,198.290994660245,137.166252174251,156.08997077215,172.63095415895,187.950498290136,149.892089783857,181.048386332172
133.833588791587,148.316352062849,127.238452306609,146.311143719264,160.446494002406,138.753899688074,144.128401419064,196.627803818588,132.747264268873,163.834957114562,196.210656399,127.647719590888,168.234429518188,192.482730068944,181.83164468754,229.434376075608,156.065707273298,261.075728168456,318.97475106159,335.477642682886,261.373706605976,234.188858647627,290.84183992915,282.983192601644,152.155590800457,200.423263617415,289.511019956667,159.791537388142,-252.510730485252,195.878621474099,-253.444812398251,52.5225860896688,-353.904235648499,353.543106367612,248.605979961502,452.031164964533,233.077640257,638.067735341908,-73.5551992698132,707.534025438656,669.252387221997,127.204416982393,479.825125004911,394.54965905621,257.948110112815,157.036699667607,192.084190407573,143.492073205564,161.480885581014,184.038550356208,134.868154892413,172.602851467905,125.296449452022,135.999394792495,162.142816391747,167.970130366645,124.757258987681,159.470154577124,114.748220455992,130.287317902228,141.407017388658,154.752180144375,122.492235083639,151.729764428316
128.429728757905,125.52479093703,111.576916014594,128.331630513481,134.586076441938,124.131459908245,127.900233154224,165.011667922489,117.001288915619,144.845002387788,164.163637628352,110.178361583328,144.362028129214,160.730795839094,145.957681169387,191.020934668869,124.190602524729,190.5070918292,267.620939417029,251.711113886833,155.333747857842,196.05889670986,89.4801584792597,262.945796542811,-227.602810746796,34.3424938191007,144.724305685795,-177.260918095715,-397.825840389355,153.684456199801,-408.716294965933,-52.9427175407098,-503.19798527931,300.630018902044,340.563592165255,250.397832576892,-194.564512562367,727.628036087928,-47.0789166446446,493.073255930716,430.525095199591,114.39560974526,398.019421392983,286.926153675728,205.18358560895,99.7181874301461,110.938571469722,91.3699259150875,103.333408824158,113.491197876738,100.205644841395,112.562268777514,98.3586249602447,103.263328180033,107.792273040519,118.833298250374,100.877997397512,107.803891209025,105.197822360191,110.960115968294,107.773477318774,111.758340365971,111.908912889988,121.096573422981
115.039590032034,96.1798564167827,105.534024505152,104.53156944669,97.8340195230996,114.720212329549,112.231730067291,123.207803482897,108.945074981402,118.704223781776,114.421031526851,103.004024453773,119.134262770677,113.981418524738,123.236505746848,143.729817040126,109.02729505685,122.899504794205,205.773381213143,178.807132635956,54.0872715288396,203.181211509157,-69.9728388218491,246.21174550707,-430.269272981896,-135.080491759399,19.9504708627459,-134.560400321423,-343.053728989916,117.367903701158,-380.376041106834,-147.984859605609,-508.867087187813,169.920814574511,432.780735921182,67.1298835317244,-652.975402632683,713.094487443057,-4.96916360520401,207.761873751808,108.131572115837,82.9933756010891,194.287302916265,126.275383941583,82.2645961089782,-9.52808978617192,-22.9033384091524,-4.25406708777588,-6.60562256257602,-10.5633446244924,33.6261726142962,6.76485505692767,53.2201906793978,38.0075954575465,20.021020282755,18.9018825352401,61.3519919747765,28.3853165352378,82.878649854738,70.8255876130787,52.857062621659,35.3370621383812,92.9891990800393,60.7665005084242
120.38325087654,95.6183953582327,124.825278588369,104.008827377851,85.8349608364034,127.924279835814,119.31172520104,108.219293848307,126.650797365322,115.928532801224,89.542807757384,122.250361683263,118.826293369662,94.4161109397193,140.499860717608,130.143430588072,146.090369055722,110.878691903246,189.576258535829,175.830268393961,30.2900185379111,309.36892806101,-98.8574513589823,299.377551697967,-218.523200810961,-201.932100120925,54.4882927034284,294.800815159037,-187.698577506483,285.746905144118,-260.966299625099,-192.202840240252,-401.248569382737,40.7469480697965,558.529017378482,-24.4047143024115,-1006.39478487898,691.055568303174,101.73307964012,19.9820766891488,-182.732663066057,103.300687634463,-14.5804062568143,16.2058594583805,9.76033159500361,-58.9209033461763,-100.515311105679,-52.2657500200342,-72.8699144944777,-85.6921632967104,6.91293778298722,-53.7628175100451,47.2460878168322,10.4897194087173,-25.9947608904013,-47.8257932604038,57.3656974917418,-9.55355303849094,89.6286283653985,55.9223714941815,30.8926471487485,-4.69327455447316,94.9025622836872,29.7178895183498
171.153979062227,145.788538786148,177.420817702979,155.131392374654,129.173845330723,178.431954053449,170.022407800145,150.070694970942,183.055794150337,164.884176587359,125.854140918587,181.687970793694,168.331679676033,137.956895950984,213.99574808702,191.558254400067,245.168662930611,188.628261967637,256.828584863741,261.707392785933,147.422869529125,519.263543373464,34.1705001432078,466.747554831232,268.074835583835,-76.9739579211406,291.439694953228,773.051268462145,51.8833364852245,559.379337116638,-35.0817049822759,-39.4485866876914,-148.820384914702,17.668105313756,704.162075992668,-20.459787224678,-1052.63275746074,771.170689243107,266.89108271881,43.2065045513456,-326.320245322607,287.124668632653,-90.0862120811932,50.8217075273481,99.9473390576941,24.68570465015,-41.2321567058492,18.0188512093724,-13.7855025061065,-32.6311937513941,73.9950439490638,-4.04000396106168,114.30561779933,74.5526906907496,27.1961227605197,-3.09933188920928,121.467707636631,44.7084481139382,156.419239504083,108.34466940172,82.9351198150017,44.2956927675393,148.823286858267,78.1236854373129
225.84628809885,199.507627228989,221.848785879619,213.691037630898,182.766703690461,224.438797507861,222.870487545815,204.397177947879,233.698183052236,217.336891782172,180.859904328916,234.525659220579,220.759357345935,198.562176601578,287.166307498387,274.047693888822,322.499897508706,293.639004903293,355.245366466145,336.937949375863,357.642790623658,677.962798419346,259.560224057951,701.80438899516,643.522633354491,244.871519882878,529.889834406376,997.934204430649,413.425452970633,726.053274210671,296.389704485735,387.248290096884,165.491889125,90.7191724421636,764.679309915772,59.6209591894344,-771.180278038765,860.295528164269,383.129081389875,182.320677231967,-290.544241860968,567.598866633588,-30.9695546969484,170.302364020494,260.037267184377,164.800737744915,85.2910456348769,143.797149318094,107.979191059726,81.8634529907831,179.383443873722,96.3994953462737,202.622131979047,174.028823290116,127.498829388072,99.3379301990125,203.741655706516,137.206664135868,234.553187060252,185.269544043978,162.756392422247,126.400978847349,218.647432199174,156.32370020585
222.704024804145,196.235241666115,207.653941384407,211.553400770084,180.369221949212,211.937161753263,216.798048082649,201.302942992412,221.088334811044,206.373266031402,179.981941722994,215.863612792532,208.74557627993,199.165006366609,283.00454319584,287.823194676158,293.161100803496,324.489895274587,391.703240839199,293.628145160532,514.133490410226,607.844776390462,429.12958267207,859.865268194658,669.622604815526,610.648209887085,555.475702933354,910.770246406507,729.640625912505,690.415894459245,587.49623147336,809.237275103328,343.239372666563,151.467008330317,630.607102368863,146.975485840453,-406.02431555823,789.673281317169,347.049622257831,224.449862162636,-169.973885771389,751.484267085089,25.1688478929503,218.237158396024,315.099631563372,226.77779583945,141.214869164126,198.64082059722,159.927312196561,128.641132809979,219.16603995767,138.456223340618,232.339967704346,208.760293377772,168.632786358071,139.706893635717,226.064938981614,168.5512572289,250.631733562808,206.463140611375,185.504414610838,148.996820700973,233.433606855632,175.322453500096
172.436988699189,148.479099404328,153.488313636264,156.384370291818,131.082993515481,158.32844397377,165.363048244214,147.919105281266,161.347455298943,149.132933398659,126.293446501703,147.745155491405,149.331073207125,144.638424740459,219.408605872753,233.726184873556,202.364519860838,276.200075408501,347.627290112838,183.088719463239,532.45023725057,368.551990392275,445.300183182327,838.148162697191,436.820122931944,810.55240618784,395.789109945265,660.900374033007,777.487126156431,509.901291894656,675.719727008354,886.052875639035,320.355587956396,149.240986240402,366.727487237495,123.053459179967,-178.995909987997,564.729941077281,192.561164207366,88.999094285625,-94.7540786271163,756.307659164533,-29.2638834575651,139.62434436023,247.899983908417,183.659654019304,95.7033586371152,151.740109036938,111.555484588748,81.8456354963737,174.276645261914,99.7270435487819,196.992753530227,166.056847415585,126.628353264598,92.6982629431545,182.480697933747,122.595405154249,206.355526234936,164.052441337807,140.547715099256,104.672316285742,191.283525731173,130.085569739083
136.561759354621,116.205997608749,122.533993649412,116.254527184322,98.1389144480166,124.841602082377,131.434305049921,111.963670732907,121.468446701407,113.010637952097,90.1600445266928,110.965975449268,115.331875115909,107.892724459785,180.544843169342,183.95187990628,156.462711127106,230.996267432752,287.54609889367,131.924225413967,466.891300359319,179.17133985689,355.672973808008,687.738344777547,183.962110556058,776.889975048349,229.210870904254,432.862284539471,623.927697901044,320.587332671561,576.52979583026,671.605730617832,242.651133726776,145.642744363414,164.056194284636,-19.8599674419205,-36.6726541267778,334.972883856537,51.5580638625604,-90.6375854024313,-81.6649508426808,661.301035569281,-136.410304110732,27.4375322981819,188.19392395037,124.981705223671,42.6360591392462,92.2592475721388,53.6547372814584,31.510705966757,122.26687353719,54.3855895763109,159.877622433102,119.774839768933,79.2163993503553,44.3982621453075,139.538755926068,77.9930189298227,166.593990488322,123.275372331898,97.6696754347978,66.8839367684453,157.587665379685,94.8609540421465
128.469842786209,110.281455350013,122.650381706245,111.143317982249,95.6163150810579,120.56390341073,121.886106989281,108.603090625703,116.7336754423,108.073591730575,89.0282586143313,117.101134504509,116.256214227759,106.077887999487,180.868128820022,161.939031446077,166.128362973508,215.230195826461,243.156725308313,146.692468718581,386.760386381041,126.004260663293,268.456677836283,510.66391591023,51.7878902769714,599.594721857305,144.82202818945,275.400240092601,490.855380029895,202.236874073906,425.541058994559,434.893264826127,235.002710853213,177.675843805897,95.0503862527145,-138.146612292136,132.516773852807,183.990374253757,-6.98764483256502,-172.667010874199,-88.6171395824409,539.723286479156,-183.771808078136,-37.933835153421,207.107980866324,109.368678527009,43.7594920670984,84.3904379358621,49.3173851487867,36.1957349618908,111.796456447231,52.2203181091851,148.883642840581,109.507526528253,76.593356043138,47.9057299531319,131.471677946533,81.1060372550622,154.322122805798,116.005899938331,93.6600802156664,72.6663971982908,152.540035765613,99.4167535039199
113.39144415603,96.0090333600797,108.837324678838,100.603560406932,83.2344750788179,106.233858175375,98.3591745353304,95.1493491788149,106.356147412216,96.6933596665999,77.551100918491,113.268311994566,102.375102271343,91.3426698876233,162.655676539394,129.840537127155,161.108932335516,179.879032166338,185.184216627485,137.631771169941,294.047066030967,120.618316583321,212.964981963603,346.28369721138,26.5255981460448,397.648166330515,90.6950116849936,145.00389425239,431.973934509071,117.761645611258,303.080534081911,274.897016822207,263.462212192173,184.873957300194,72.8514633131585,-137.43416335628,266.6445881359,85.158309858626,-15.3826396712975,-171.636076872171,-122.197749932486,386.541161022986,-164.705333701274,-54.8452657292473,252.63458671264,105.787925843929,60.0491947507102,92.1308489326221,64.0707511242277,56.3975221779349,111.030033192954,63.7346526431987,130.581023260431,105.312482949538,81.9761713261992,60.3606408885513,124.811729724233,92.1691722866146,135.469988143548,110.912233973864,94.6861786580015,82.1436733002338,136.657264882666,101.816844813825
77.3066288185231,61.7532385868919,66.3925949695562,62.2780817803736,45.4589263277854,69.3582392115197,54.1341167447067,57.3679589763412,69.7020089523175,65.6722932491623,38.2617637724728,78.3547241366613,57.2623153197878,47.6686335612365,101.792812876061,70.5881107245001,105.928618326594,106.286005965354,105.252037874261,69.8836607542409,185.938716128744,69.4180711950687,145.777449095748,198.976822460015,32.3297495441272,227.719144010538,21.1441676403566,27.4667268788606,365.355818165514,5.47159348510667,189.87626605568,159.245508659684,252.43897864674,116.024854081887,19.1270970327049,-80.0450087575232,291.78512879146,-0.0978869086249006,-19.1786863764468,-163.398660962623,-161.245557034256,211.046090348996,-130.283373682836,-30.1437329485356,261.746513260852,77.3536589385176,44.6035307028767,67.3790803702707,51.1876734659583,42.7392412739722,82.3711949206834,48.4742207605205,85.2513568297931,76.6165255794434,55.2029144384818,35.5258892367729,89.5245311022312,69.3539936895066,92.5826099617312,81.8440471447267,67.9358719342838,55.9720627852015,93.8505761320733,73.6499822653884
26.9887928941908,13.8091554013099,13.4093947849945,7.18734804732603,-2.6369061500641,25.1286340910331,2.3845718729922,11.6950942256552,17.0078534735249,19.1007247542053,-11.3996192683103,26.4130518614361,0.493372735088898,-2.49625593269448,23.2720150562941,1.88069035563162,22.3755539581593,22.490311071991,22.6494192542729,-18.8154067212156,80.0718976913267,-34.6344639466644,48.1940046789782,64.8698766148092,15.187772158105,73.0337223325851,-16.4230477768485,-96.9538187260542,252.74382463908,-128.495904138938,35.9193838711268,71.8026541971952,200.883106068134,0.97455015536609,-66.548901182383,-66.1781439006668,260.690462658335,-83.1339516618208,-29.4496650590611,-169.381424031625,-143.395678586245,68.9523748338693,-93.8163791614688,12.3226110806147,225.396895231911,28.3737732284125,0.0209195277065426,15.227373950314,10.5478192664702,-1.81143605114754,26.8971447190922,3.77021624611803,28.5958396489111,23.7447252068838,4.07761700024051,-16.5702231365704,32.4596936694986,17.364978190725,35.6298141728219,32.7366298065749,14.9338175370431,1.10206038522849,37.5317015257705,22.4060844817104
-27.8533029833527,-42.2383823201432,-38.9471869517614,-45.3686709676271,-49.3892183773486,-17.0948419497088,-49.6986777459443,-32.1208447700193,-35.0612850712602,-36.2380797956858,-56.301289958494,-26.2404070169322,-50.9239170487557,-43.977576343296,-44.2495934467346,-57.9367969615542,-51.1013057718011,-47.4285043179098,-51.0579249916422,-93.782152890529,-12.3097278393155,-135.560619856195,-54.46449889119,-63.1358222751354,-51.5205466127556,-82.5759051509488,9.88863903378061,-280.230110152688,113.648069494184,-236.252861461453,-147.683518847083,-21.3018883043625,160.422475880188,-99.0349591687733,-156.37522199955,-115.261914459366,237.306839485527,-152.58015202426,-37.2434443789517,-183.422588867987,-84.7850986092572,-5.94501270643094,-60.4375965515594,16.6394386672542,168.098974815548,-20.5311812633988,-49.2400727939637,-34.837419733116,-34.3377399642853,-46.1862783150054,-31.2762868197187,-46.3784905548655,-22.8515649084382,-31.9465909672809,-45.7057519882919,-63.231899997231,-24.4318643511806,-39.0029124631525,-23.5495273273045,-21.5517085072361,-41.749729621193,-50.6568421027483,-21.5741476393951,-34.6458922094674
-64.6142817052092,-82.3380845482348,-76.4794997218477,-74.4563391311776,-79.5407221419212,-46.6787282663942,-85.2952913687271,-61.3377702534477,-65.6647262852984,-75.0003352798945,-80.7992593148223,-58.8245523853473,-80.0189529848573,-68.7929719116825,-83.4538753129567,-94.6268053686255,-88.0222368372851,-90.2097116544215,-101.459588191548,-140.938792077905,-76.8164545020082,-178.927724084016,-134.661458322685,-162.19741761767,-161.761074882289,-189.054490407309,29.1100543102813,-501.64678544819,-15.5234287310638,-297.016252787772,-269.768285728977,-144.808477481436,151.48557023915,-146.259343199483,-221.732199367391,-177.980683492773,213.024948881851,-192.013554827985,-34.8662233178762,-205.348570602708,-57.5350764163994,-39.2005907229185,-59.0917767374876,-30.4870701980436,114.953012648455,-50.9888355290301,-78.5514849233979,-60.6856530135271,-60.1694987749506,-65.8095755812007,-63.8402586544745,-73.2208833295088,-57.9333411764265,-60.6449711067102,-73.7983505423276,-84.2511987117615,-57.4366670314383,-71.9419143918053,-64.7001084966875,-59.2869492547363,-71.9636693052413,-72.5397745658312,-63.4536143559577,-71.2677326816488
-76.9488632136336,-92.7857081305148,-90.441314340854,-82.9829270468308,-89.0427471795847,-62.2029135045895,-100.463772727987,-72.7690079557029,-75.8376831801692,-89.2426862457794,-86.4245392528208,-69.8848436395371,-87.7714307678679,-84.6238674908001,-104.379243575274,-113.044313184902,-101.093541872433,-112.576771794056,-127.934435173624,-162.121507574765,-109.263425443287,-174.475229277416,-183.187815088842,-206.194817867119,-260.088201178119,-198.513798478946,-32.1809325352883,-640.498899974671,-85.192731627284,-327.277884010836,-256.920234316692,-223.5719068916,121.554471852072,-148.790160513853,-237.479096192621,-210.202888082573,154.483632240133,-228.365934174565,-27.6401819726168,-223.329741466324,-76.9131658509923,-88.5404090259373,-98.0089820995307,-89.9169044694377,57.3776060786636,-62.7734094213181,-81.951957082009,-65.8509362864136,-66.2538859954891,-67.5276366674663,-69.3943083623189,-75.2300955779158,-74.8488310666524,-61.1754790597929,-81.5966418069473,-87.7784685003974,-67.0928726594875,-75.8156527948698,-79.8245389307897,-73.6448880399195,-75.9654579053704,-73.1160780474057,-79.0315364339146,-79.8733997596557
-95.6040096852146,-105.11548789167,-105.860902310425,-104.073946316258,-105.78735037604,-85.9652244969506,-122.286288157531,-93.3941163210615,-97.8526954986236,-109.984029908136,-105.846689553286,-91.2147142878207,-107.227387646018,-116.088625301482,-139.264773139769,-141.105530367538,-128.828664273663,-146.165277364409,-160.588995492237,-181.36534928193,-138.19811704127,-183.345147148042,-209.111162254649,-220.828404551148,-297.114052509593,-152.949490928992,-149.297411158628,-610.309605256141,-91.5758347205226,-337.159185243139,-132.854782118356,-193.772221730197,24.8598263077058,-152.630489794213,-198.549061858981,-214.478114435412,67.4035271316837,-310.846897151063,-27.3709667621755,-213.506974209111,-104.14667300615,-183.226629087751,-135.782488290435,-142.320673119806,-35.5424329910694,-80.982900940321,-88.5645778262142,-82.7378962985987,-84.1862134822994,-84.3381738871581,-83.1346009563782,-88.1211871748495,-94.2081003923755,-73.1598405583006,-97.5723481113532,-103.751986896951,-88.7354051451328,-87.5871779417686,-97.6991031462971,-92.0274457749898,-93.9942478948639,-91.0539587245055,-97.9952647703511,-94.0932314734397
-136.901638251888,-142.981265728532,-142.108734055978,-149.857891130141,-146.519734302688,-125.621161841777,-161.310020195932,-137.502876188828,-140.397411908522,-151.865521901895,-152.268469215246,-134.423929533443,-151.39669807811,-162.286411041975,-189.765319706545,-182.891516673875,-175.410704504716,-196.306730466909,-209.862941191204,-211.441576135102,-178.551544823014,-233.994294052351,-223.969233427507,-240.424720935424,-288.785766829528,-133.07655884068,-256.884201798562,-476.707907399899,-126.775072960236,-324.210474853496,-33.3932321956879,-137.62387912789,-83.5282226273609,-195.951374947537,-137.348630974043,-222.743333492659,8.54547456288236,-427.363958174126,-41.091546507979,-168.939818660755,-114.104489728314,-292.612654118661,-127.881207530381,-196.366518472988,-157.937136643817,-125.141276797313,-126.530434470193,-129.900468774888,-133.599571608139,-130.943564083709,-127.710431541954,-135.988747893667,-133.291152127902,-120.729831541096,-138.043941488121,-144.811099194561,-138.306199262257,-135.11741236255,-137.01795667554,-135.867878510576,-143.72400789669,-140.676019867823,-140.876565937028,-138.509218935783
-175.372355329876,-180.518906354889,-172.284151762314,-189.682232197202,-187.494318454582,-156.071347095202,-190.855231394049,-178.151093317023,-172.380407398766,-191.396281879026,-194.864250549577,-166.465724577428,-188.374952417459,-194.721226247427,-219.876548446366,-210.032883807574,-206.866324690232,-229.336841381299,-247.428024469028,-235.577484911271,-208.287341502275,-292.773255341709,-232.439936986873,-255.371451522711,-286.81722261087,-172.19174619925,-333.888627338051,-400.295002310376,-265.205184713621,-334.363192962143,-177.424066083078,-141.071647578971,-129.699966691694,-272.472724204377,-123.623271001467,-261.831359032968,15.2939293403189,-521.819612131744,-77.3271053404702,-129.410054130144,-121.80609456687,-376.235540001495,-94.0270694298171,-248.816184570145,-264.425356690403,-185.391564500472,-182.529206486455,-185.566589470863,-189.70375186161,-186.119939123047,-181.485188792638,-194.505504340698,-177.666004396379,-177.905653177151,-185.12402209929,-191.828677983812,-185.130441948605,-191.318760068312,-174.311716035875,-185.00506564899,-192.828198013613,-193.973580610885,-184.781238253388,-191.33207249479
-189.905106766534,-192.773986019293,-169.600188418972,-197.936054953831,-203.247049594402,-160.734637453185,-192.953451521237,-190.645632142191,-177.784556112286,-207.253594149587,-209.579396060017,-165.459126186322,-195.249229956364,-204.717264903566,-216.446393875334,-212.215257335428,-208.380725852835,-232.62815606841,-257.566874713466,-241.18358206502,-219.486980834001,-319.177574941193,-239.415925908105,-258.364185484435,-316.024537358037,-257.6741442745,-393.156191196002,-449.145882603715,-431.292552097648,-439.0212698321,-635.490790618845,-141.558530379941,-144.979557371156,-335.002249049518,-213.529346319859,-320.680984790365,38.8642915171557,-576.820204182373,-141.441477048573,-160.283093946075,-156.375575624487,-435.492321015473,-103.020316210187,-283.988580784298,-326.992070379904,-237.534249770145,-226.375270019403,-223.291338719986,-222.383714048316,-222.121538668564,-213.237386214633,-227.653069761756,-204.62722255943,-209.278636778553,-215.799120504094,-223.816339941917,-204.516085309373,-218.891122973144,-190.11706221973,-210.272221557438,-213.87383513114,-222.613037137747,-203.518799695389,-220.795289372874
-190.42995946615,-191.590459354431,-155.551422132106,-188.410491041536,-198.393767090653,-154.566159866282,-182.621577017976,-184.597704394868,-173.422947595482,-201.580814926102,-209.092045185094,-151.284706797445,-188.271893242102,-207.287112721925,-203.308476763938,-208.011036032967,-196.875287953279,-223.186536739288,-255.657125695232,-228.287436342741,-227.797604390432,-303.621554008454,-238.574932992923,-274.636790688221,-346.939439789042,-353.473330482113,-434.91538642651,-526.476044002001,-492.9941489691,-598.107893524887,-1089.34621709186,-62.6443376049294,-197.729549376969,-338.349691685784,-367.74247024963,-337.617965310571,9.63111478999286,-606.173026385184,-209.472432327246,-254.652675924575,-217.910999303791,-483.287342671937,-175.794979148322,-295.013397259491,-347.621220964572,-262.042707740799,-244.817401331072,-238.058221894669,-231.693096550054,-230.261281266398,-220.181718955826,-231.357557317543,-214.003494841628,-212.110854571987,-224.089979785302,-235.01893366216,-208.28774217797,-219.313898891143,-195.983650283678,-211.685496405465,-216.427876911998,-225.114482653241,-201.553972653442,-223.352630467154
-189.459200407602,-191.946361782651,-160.689350610265,-184.270753264284,-190.020730959612,-157.021059165438,-178.843448083998,-178.56361686372,-171.535087346778,-187.385442472832,-207.451185300089,-146.275661207386,-185.713662276022,-204.497288018156,-191.808514268605,-205.305036888778,-181.26580046972,-202.318156592486,-248.78454873181,-187.930717078453,-228.652730044939,-249.899570361628,-206.818145574413,-306.371082020442,-322.596059997086,-403.873095245569,-433.339810894075,-513.996900233214,-426.975086161659,-659.829015996237,-1109.62718369438,26.4603966830082,-263.228591033286,-288.293967320427,-458.521050873609,-263.296396082066,-50.5984514944116,-599.305862775663,-234.746915587073,-295.675339980556,-271.34739117618,-500.240427831302,-243.858889805643,-285.788219494383,-325.486429346988,-249.674889655259,-232.123649497243,-229.94839706498,-223.116731525259,-215.015233350453,-215.480291742868,-216.229937525344,-215.740790185071,-203.663410688325,-214.684314579785,-223.199540355843,-210.515266701686,-209.853073807117,-203.64909598529,-204.634065053932,-212.921984122102,-212.968758342092,-198.210383313208,-211.933272693074
-180.930145927176,-185.370145575563,-171.133341229269,-178.736462226254,-176.27358672169,-163.127782283854,-175.61445214081,-168.133952215177,-162.418600354864,-167.302750878387,-188.87187689735,-142.640205901589,-174.960828199131,-180.66065109692,-168.107963773824,-185.267557342705,-152.150714675158,-159.313118272817,-218.53205183616,-116.437455568146,-199.449207986909,-163.970148985559,-142.513213332609,-312.322977952414,-224.074035564521,-376.100461634823,-362.821267670171,-410.898640514464,-305.161369192024,-549.915254347511,-704.288678259124,30.5322563446577,-259.498426385249,-224.768608435663,-408.649405134552,-136.592817843049,-60.9436056545862,-531.183457978551,-199.98200394921,-197.06856577219,-287.510178167461,-459.940175799063,-234.629093095366,-259.461533121706,-256.262362256121,-200.882231918043,-182.223527855529,-191.830274370717,-185.178327832722,-174.312948345192,-195.089809290256,-176.342456737173,-204.003047174183,-186.045351420807,-187.021076402393,-183.206524787582,-201.713301178394,-186.081912802766,-203.712914975998,-191.349070656091,-193.480667036901,-187.201776737112,-195.89700409945,-187.063679523999
-165.824414868953,-167.430049158814,-165.800482773123,-161.495280658103,-152.162850231269,-163.32501224275,-164.255541258764,-147.109028821647,-147.778674431397,-143.029247021955,-147.913191126596,-132.408075064574,-148.188792253345,-141.616551533336,-139.101019083101,-148.008481784248,-125.183387025713,-117.591262218068,-171.293445831013,-58.6923357246688,-157.370354268669,-83.7762283341835,-100.466214453381,-283.620642309455,-118.537124451954,-318.192447485789,-248.153904000358,-312.314309440597,-200.285968520725,-375.772846136168,-297.725162826981,-9.68507386952555,-194.060161503907,-176.146628631527,-295.268016446281,-60.1702548483723,-26.0240093372996,-423.416407964307,-152.142561173726,-44.1182664412346,-288.492224511765,-391.634175682689,-179.202542821597,-234.356323093683,-172.142531796304,-138.259420676557,-115.524582260285,-135.113956390206,-125.965538166466,-116.45702848121,-156.957254357184,-117.836565670657,-176.936201807795,-157.307792418574,-144.105608696799,-128.043510397987,-177.558178933967,-146.836225020481,-190.443539447303,-172.267334052143,-159.309375110646,-147.599609424589,-187.638861515888,-152.397981036178
-165.120297254794,-159.928675917914,-164.709763075208,-155.446984438976,-142.868579067826,-169.864727221087,-163.034542263286,-139.528438588347,-153.959399936087,-137.243287629989,-127.635710942781,-136.359029276549,-139.369223019372,-127.257790846822,-140.964080017176,-138.409142467398,-143.332753570215,-127.568031192698,-162.23328893746,-82.4681268375554,-165.934054771441,-76.1880103068037,-145.620351950357,-272.497345029011,-110.89604631188,-311.020592266253,-166.220453649158,-294.846048128784,-125.355742670171,-287.788207172325,-163.840713512384,-24.45774395472,-192.675765754079,-160.201135454179,-241.663401338653,-105.927698065103,-50.979225524143,-352.464095141187,-159.439527180488,3.06009149525646,-333.072117976854,-374.352210295564,-185.909488780722,-260.197989927481,-142.724676383316,-112.850144501084,-85.9436576668686,-106.29175681728,-97.1973639470913,-85.6467816218682,-136.655878431815,-88.5800699506665,-165.005057229406,-142.63848371916,-117.669695450492,-99.5079655758495,-164.872225596738,-127.246869157206,-183.777968492722,-164.224309825573,-144.774125958706,-121.607971228165,-184.588235777125,-138.345236314652
-179.905107196054,-174.440446160895,-183.377879189696,-175.430357677544,-165.237999964097,-187.460149269415,-182.215213433012,-162.427669240465,-180.181537550286,-160.68682648627,-156.455656750696,-162.260155502629,-168.50458065116,-155.492848578663,-179.803560769356,-179.168574886623,-204.199342777668,-193.587273435879,-217.324897669857,-186.00372489346,-241.929833030467,-164.902566045883,-261.23331823306,-300.827082263755,-225.266654803119,-350.101739271985,-180.072331504165,-337.435601662908,-22.4799955464886,-301.338766800838,-200.064674741159,-43.4449426369384,-338.704520870746,-186.579293430365,-239.122130931938,-251.53599692927,-184.143812279988,-363.419755266235,-226.911254184324,-83.9561018506909,-439.462090037073,-440.158321068368,-297.627571740429,-364.038391659499,-200.490569675755,-150.621868512124,-121.826267376613,-132.611051108457,-129.602581634971,-112.873944436311,-160.636935672736,-118.38828585424,-187.331566335256,-160.943214897966,-136.72592829885,-121.960393419303,-182.754510827854,-149.845439345185,-195.732503773341,-174.856095869921,-166.939242047075,-136.653893361658,-193.779976020948,-159.087447566752
-190.040031838778,-192.027284666545,-200.937701584123,-198.072294050928,-192.458570312555,-201.505283783828,-201.896141013147,-193.800352026629,-195.808108294114,-188.640692839328,-198.886089009948,-186.706263372306,-203.131926271191,-193.918863823768,-221.783522568404,-234.558038377506,-258.009715669179,-262.593689645621,-288.176379246685,-301.201998504375,-321.556686544299,-303.251058886462,-365.165067642377,-325.748802885497,-393.323567010709,-362.141466462603,-304.084634300268,-390.551139581607,137.819930421748,-352.877871771122,-266.630575997339,-92.3404559362547,-559.059113171543,-244.824288528777,-197.528656531616,-409.379149738702,-359.293388062692,-418.444186831229,-296.75115155254,-209.975445316191,-556.988886130656,-534.405195626701,-441.243818090541,-498.713355359277,-298.246326845376,-207.021322664579,-183.308556058589,-178.049877245738,-180.812458665574,-164.432614888101,-196.903316501199,-167.228158716717,-211.794182183036,-186.613174516186,-176.575926210356,-164.932642756013,-207.451296456628,-183.66739967652,-206.969191194664,-187.799477862232,-195.489891721034,-171.799612691625,-198.260061502059,-184.014178250721
-202.014242401014,-204.784347593035,-211.577105066199,-211.982263017865,-207.001035442054,-217.832951512859,-218.340606785012,-217.177334325062,-207.604813068693,-209.236939177356,-223.174295870033,-209.273226195635,-225.466887887727,-219.573701792867,-257.996177447463,-276.241440549699,-292.718842296465,-309.12993519293,-330.275748329945,-395.110424273243,-364.749386263876,-434.474357432661,-428.7871494842,-327.142613822885,-568.199539698114,-328.829932345501,-510.135304611043,-484.257156398572,263.288522388283,-443.360331155423,-397.756998257444,-115.233632771715,-739.803530823876,-324.56803183165,-128.326600135111,-517.115716009847,-535.664834283776,-474.209375531577,-340.862523415296,-334.065918760301,-639.506198004564,-605.859406485819,-542.367555715524,-601.478009752177,-381.407591329865,-227.724759435803,-217.952906668271,-197.898269593832,-199.415157624477,-193.522844368371,-208.570846633108,-189.475644213904,-210.269000910883,-195.108956583568,-197.06858101623,-189.63365644462,-213.579158847619,-198.026412134369,-207.265581408579,-194.124161618419,-206.18248512611,-190.400825074222,-196.643715654874,-191.293378383304
-232.682325652591,-226.951658706353,-235.149132550256,-235.241554996929,-226.248115012114,-251.514427956428,-249.916332869486,-243.762422498082,-244.270306294463,-240.386587198194,-246.387781678772,-250.159155579698,-258.153587805965,-250.237395722913,-307.817710299852,-315.277203479807,-336.718488142942,-361.245850876775,-359.566837604553,-485.633310120004,-402.881755751125,-536.658090077951,-492.912741612924,-336.198519064512,-744.838019589799,-295.528383836119,-719.636052107104,-646.012704253922,230.731017386621,-567.532675174803,-618.236172931998,-88.2094050248764,-863.74532416145,-424.919291824251,-119.503885500651,-578.553007956087,-759.572454751501,-545.860000862003,-381.350298786187,-490.432747738092,-700.677458964452,-668.440005326476,-605.369866807709,-669.712459437043,-454.717176099432,-216.784394331263,-222.99168921527,-196.844918760449,-193.459781281058,-200.784495288885,-203.625696708761,-195.040088311805,-200.478628314093,-199.933855740271,-200.682420396567,-199.664032077966,-211.974580952205,-202.478165019717,-211.313733528619,-202.235285745819,-211.919598052743,-194.542484563414,-208.560640634195,-195.693715813821
-264.496818724235,-255.962880354287,-266.290259731876,-268.482693014305,-256.207154226682,-285.825334645136,-289.37986830749,-275.83705758786,-287.812299841615,-282.812059586531,-283.758197961453,-294.382019128455,-303.950565673362,-295.090168614345,-361.600403713817,-357.961653371639,-388.158599699235,-427.415135525585,-400.778728214739,-570.763586041728,-459.617864577694,-609.228773326529,-564.655202857334,-372.99016698557,-873.305599109441,-291.166148102342,-835.790546151827,-791.599231739956,38.5749461001427,-612.800608885286,-819.538742297072,-94.5519787272287,-955.996519448314,-519.23362574931,-176.163723009527,-624.602558016001,-1028.01891259364,-652.453501418297,-412.498622933322,-661.448003777312,-769.120164609317,-742.401916229116,-648.656583222511,-727.653263864458,-534.343688910718,-203.059673776686,-222.855482558785,-199.813022417339,-195.89943889647,-208.404945228802,-200.605208899017,-205.185562982838,-200.985256133346,-210.469879753768,-205.34204226066,-213.167122507857,-218.321297534652,-214.119803479966,-220.734655161027,-214.163681836993,-224.483160681197,-206.345753693275,-227.848057826698,-209.66136717778
-284.148231265201,-282.625123550672,-289.402637558762,-299.631323595538,-291.872786518043,-306.818197134024,-318.03698565672,-308.336622083413,-310.050953803226,-322.339845047171,-328.678778625408,-317.534773599761,-344.711735315441,-343.466603867366,-399.375903651769,-398.731322608456,-422.663821329599,-483.501210586539,-451.44679049202,-631.989432505536,-524.406372235492,-656.66835921143,-609.601960194002,-439.916651300253,-888.854678975069,-328.759594045813,-835.085954550394,-844.570574011018,-203.568688465208,-518.960085329483,-898.497515405069,-228.018400825808,-994.635961518042,-568.251039497576,-249.06331347155,-686.038017580798,-1229.34804278695,-780.804082030002,-403.501312300075,-788.000114326898,-845.134778111337,-810.072370289834,-667.223671630878,-777.661706444783,-611.566701726697,-206.360581420841,-243.492469621726,-220.878426538691,-223.901355670108,-234.538868846079,-213.158185513506,-226.001804950209,-216.127338123399,-225.344904327243,-222.602544414822,-239.721129393562,-235.309082123665,-242.260136050496,-230.711113956666,-232.231074344933,-245.741570968098,-237.232941848958,-241.578594159766,-236.857360680143
-312.279106504714,-319.092267638764,-316.55924689507,-335.650389245015,-339.341050205918,-329.848382468516,-341.390829714415,-348.025811168861,-325.491107397107,-361.149670450604,-378.089801120623,-330.03232469357,-379.263819889547,-392.321969019636,-430.085902050189,-442.841653523851,-439.270607642946,-523.557171023052,-503.77393948235,-674.875842497097,-590.748202865259,-680.368415722278,-630.110218673517,-542.579716371412,-815.105094676298,-423.414978653571,-775.972211503387,-836.840261747379,-387.767599081584,-414.596084678515,-851.988250461877,-464.991363176895,-936.364241152438,-576.162178254735,-353.774057242788,-775.99590899077,-1270.31658649452,-920.272929880055,-372.597772435908,-870.703302662642,-912.857302600918,-845.453813780753,-677.311115517633,-815.843672004025,-686.339470307868,-248.99611075599,-304.963667049044,-271.12422280164,-284.388470908476,-294.472793654806,-259.929642889971,-274.733792800716,-258.76811869355,-263.419198249759,-270.890105799359,-293.147863758989,-267.785835740948,-293.56565863444,-254.654594960133,-266.722582497899,-283.467208556102,-288.613991613964,-265.952992721336,-284.317317945316
-335.421730758681,-351.532693884397,-336.060512780202,-360.974155829655,-372.238709793259,-341.032063473617,-350.247606051064,-374.274304962202,-333.317182332488,-381.292654727949,-410.631410975606,-331.034752003805,-393.139120897225,-419.30699208835,-442.958820324654,-472.764023986447,-431.669297177731,-540.287807619727,-537.031304915311,-689.806317452736,-635.824010244777,-659.252382212015,-637.691635701973,-644.590453164131,-713.129867258016,-534.797138401724,-679.555827618517,-795.403183428737,-452.194850574294,-413.865964856942,-685.220973320205,-664.897105624861,-760.430585835112,-558.361998504025,-500.570968573735,-835.963154859496,-1143.88575738723,-1051.39055215814,-347.573298693662,-918.544425593578,-932.830593881607,-824.975244412814,-688.379134228322,-824.974835813611,-744.404817383931,-313.847268582314,-368.998746596451,-326.883418299826,-346.735491781897,-357.011047841924,-316.440742973261,-334.294459004623,-309.152033465009,-312.953595280259,-328.766820162577,-351.14781650455,-297.282700497082,-337.100130270459,-281.269170989242,-296.610120732599,-316.91539407824,-331.28750449135,-291.913038958668,-324.299133927337
-300.65269060194,-326.662979266276,-299.514547803179,-328.413944487179,-337.648360110879,-297.528587502913,-310.557634296142,-340.362479053865,-296.961552128039,-340.916985282527,-382.57425135578,-290.093066455276,-353.202646587972,-384.116959709357,-399.543784081784,-442.011573888645,-376.811370060766,-504.301360568189,-520.329345135358,-641.285503834565,-616.53189281094,-575.149563592471,-597.214857692598,-674.851171556748,-569.301239373004,-577.392107189183,-491.399623020126,-681.60095652584,-399.060239660181,-425.539734684461,-394.712862767191,-710.614537179722,-496.917018929922,-490.552705792567,-605.891958457115,-772.747321141231,-866.34175113241,-1127.67914453364,-298.600886844195,-869.126506422185,-844.913970414372,-731.670447981311,-652.73984491924,-763.013394761305,-731.944575439745,-321.230846492537,-348.655535616178,-319.903602048425,-337.21941952746,-343.423135275412,-311.11813326802,-326.09387324033,-303.135609574561,-307.435621922672,-321.048826833871,-340.854740194834,-280.803092662351,-313.877737735519,-267.160028790886,-275.990817958512,-297.583685027028,-311.822927349102,-272.807636566182,-303.151081374672
-223.420374214717,-248.968930294758,-222.250720745525,-251.211074543921,-255.010204905204,-222.111007012256,-240.846002407712,-262.755841237823,-232.91141501619,-262.609759265666,-303.613864142666,-224.893476623436,-281.039767381455,-306.945940206539,-323.605168337711,-362.080874942154,-300.934610653002,-428.606108828141,-468.967550411727,-546.695895256897,-543.428329091539,-474.287110727674,-500.852712935523,-637.493474812399,-353.528299978408,-535.742561137399,-222.059421657155,-485.865193949299,-325.192934154828,-337.361663349979,-84.8147017988066,-630.605315608226,-262.305165309569,-371.875998750601,-616.376912045308,-604.347915453694,-466.338538397805,-1135.64546123349,-221.483967599921,-692.145398311393,-640.439960730636,-600.995141471928,-535.231795808644,-624.719355442557,-639.403578879752,-235.79789694227,-230.046097451988,-233.892355194965,-237.449163905711,-238.253542753343,-232.098329054042,-227.816116232773,-229.818403606639,-231.671348095614,-230.113795415679,-243.592989774804,-222.201288464142,-228.402636251067,-215.651092854089,-211.724710505396,-228.520895806005,-232.210874894074,-215.298185463919,-229.371640625619
-180.687594687051,-193.688751727294,-183.553907618376,-203.21424468938,-202.494873086472,-187.509542806813,-205.940795358471,-214.295317399379,-205.568393294043,-221.152090935485,-241.836144010472,-199.699185020903,-241.500371481744,-256.787463189063,-287.48695672845,-306.407539872611,-263.37080871145,-372.844199620068,-432.98319905021,-469.888794179672,-480.552333959816,-428.315781579478,-415.637322356466,-609.933912368452,-129.732754376071,-466.445315265823,-10.6408564438381,-258.032549190328,-335.419941215613,-224.028602728888,86.447365476221,-530.307503963564,-186.127242495119,-257.285877946844,-595.090518610461,-448.051134473631,-35.288370846622,-1100.03375788697,-189.331886626618,-472.143117015283,-381.89071105845,-508.003376070276,-367.876788850839,-466.286740710061,-533.371818905708,-128.664551649892,-99.5063117894568,-141.324811238592,-125.634682092122,-121.457794522523,-152.434780720061,-121.669479968171,-159.071942117934,-155.965220209126,-133.649049357263,-134.910884249824,-172.829486887423,-149.688232892064,-176.839950095544,-159.500341097565,-166.359061737946,-157.245541550276,-177.725300988939,-167.516643156306
-184.501618305247,-185.216670085208,-199.293320198355,-201.306609437104,-192.564309671231,-197.695295321452,-211.514709602883,-207.237436865337,-218.446507896546,-224.108211552165,-220.759658487553,-219.943233530039,-242.798404461261,-243.520650091772,-297.132872038581,-294.987934597606,-263.378526538118,-353.56836773029,-419.299953180099,-422.868545764268,-452.685288369128,-434.643655165003,-387.20996243732,-608.312290368785,-4.21622810712671,-391.193735868187,27.8377839848015,-43.2757514885323,-411.670590306531,-205.375328260466,101.507973940571,-450.83238899201,-261.282492811939,-172.817321058657,-598.841704440194,-342.517244592845,291.616710056742,-1002.572065047,-230.148872701289,-292.92221816191,-129.645787971931,-475.768301204485,-189.34783617409,-333.604445898149,-456.227810067055,-74.5418227260546,-27.5116118129577,-97.9572334367618,-67.7241837628645,-53.2877101768438,-119.802907215291,-66.4197462507159,-137.607611314512,-125.54428280325,-88.353427830028,-76.179160563951,-152.775876790472,-110.896900839535,-165.926802292169,-141.541622372189,-135.614315675336,-120.283528688466,-172.021107157195,-142.298070900301
-189.771354509249,-183.652526560685,-217.521884348035,-204.657972397648,-184.44399468868,-204.107536972421,-213.025240860636,-199.472913999676,-227.234866679723,-227.196109704918,-210.260781654419,-239.307259512155,-249.071658394175,-230.278005221093,-309.060946002599,-292.29709651987,-265.946125279841,-345.870069945369,-407.637859982526,-377.215182098832,-443.651219768788,-446.113722056473,-401.499207777347,-591.298591464947,-23.4665240408498,-316.107463560898,-86.7440474546631,105.037310799663,-486.989848068306,-259.257510425778,45.6443326657407,-404.060268417183,-369.549272233759,-108.277154352137,-612.342121063719,-240.728959004363,412.549948040662,-803.307274493041,-284.682091998632,-161.317618533926,65.7385099576199,-462.347583766144,-31.1599070690565,-239.88471216583,-399.343488648594,-77.9467728853289,-16.4679296546197,-96.4661202549719,-57.4726918401282,-31.8412584047567,-121.357635511577,-49.5270817018363,-148.131936120215,-125.003324020081,-83.2835938547463,-64.1974559682316,-150.478388347533,-99.0906664129888,-167.630608936033,-144.672406292854,-123.807277704103,-107.577747038969,-170.349478792742,-136.873485922517
-178.603935260642,-167.845011594156,-207.572294269224,-192.584824902695,-167.768787193146,-191.509739220722,-196.55152730662,-179.312860012235,-217.256215555785,-216.960189523117,-195.027611868861,-239.040034945964,-247.211694069132,-211.082748386413,-305.632058126702,-283.174840425194,-263.958465262251,-341.917889950693,-400.146102674886,-334.659195351729,-451.267333660487,-444.84736959026,-438.864100610581,-562.317889789948,-146.279926602747,-291.140073740341,-257.598452531861,106.825984976159,-576.718180446763,-291.147559909024,-55.6401294114999,-438.940996583119,-426.890280105257,-78.3969502388144,-608.875058572405,-146.911052750314,337.857208633052,-519.041540603348,-308.048463512537,-68.0109665070078,148.679191367406,-420.689423692233,60.0420030479596,-182.899319568415,-355.688636575708,-102.875980523472,-34.4389353076983,-109.532762251101,-61.7270226918154,-37.4002705128691,-130.219165421375,-49.3822541722924,-154.277718827313,-128.067094089265,-88.4349857403853,-69.3672935772209,-152.198270724792,-96.0586595479797,-167.978661249168,-149.257081288706,-117.753535867737,-99.8873737200545,-160.346595684944,-133.160283543294
-145.153769556607,-130.784452210677,-164.350680103984,-156.887094258239,-137.561714023589,-159.455125978004,-162.730792493397,-146.514001745683,-185.715512610236,-186.18925250241,-164.416230307393,-212.516929770114,-223.812920982262,-184.171400617024,-273.883965041547,-255.891391571218,-245.657700563973,-329.824045791414,-389.331610283691,-301.867363565151,-462.330450947315,-414.966856642819,-464.891730264032,-541.939477690329,-264.453382238518,-333.806711581876,-387.646421987799,-34.2089590133571,-698.750097556828,-267.672437211609,-192.354505396117,-543.598975398391,-411.596383946016,-87.747313885128,-559.528117844674,-107.666758101167,191.903726436552,-210.046828356158,-294.245895980022,-11.5057731260898,128.425845733272,-326.617811713396,79.8982979776599,-120.499970750876,-305.484421254263,-105.152229919795,-36.0211635566954,-101.76642332855,-49.3621527622432,-32.7998676376499,-113.11634074296,-39.8199500449242,-125.935388856012,-106.997675970703,-71.7245505077146,-52.0716894473429,-129.089403493222,-72.3167296326241,-138.641044480588,-121.925293836076,-92.4757447020441,-69.4342046142683,-128.455127681055,-102.342382353293
-87.1626753214666,-70.3770520934285,-97.6784861257989,-98.0290807494936,-82.3852250113617,-106.799472054353,-107.3796542405,-94.0374251932979,-129.529627245232,-128.156433661117,-106.742557217507,-156.198679048062,-167.213915440689,-138.395221474073,-211.429575514066,-207.005365354655,-202.24814834102,-292.816932662932,-354.759254468715,-268.124462463047,-447.005370079155,-342.62742743599,-434.789568449119,-517.653993222375,-291.606591355611,-392.554983715396,-434.635030757072,-189.128323885661,-781.606197466557,-223.392030773714,-299.721184207763,-619.987230384386,-336.576679973842,-106.125774642573,-438.111031346717,-127.73264249589,75.8920441840272,48.7785082978074,-246.336028201389,15.7466490445611,80.013564294211,-195.648447866656,75.9662677985201,-13.0304706261145,-224.035159605844,-71.095693772759,-4.96984134423999,-58.2932012856359,-14.3004797487383,5.38747514738179,-59.9388246753127,-2.6300878598377,-67.3949347468557,-57.4395759716506,-26.8652907368722,-2.45881045137109,-72.0551738503645,-20.0310671348889,-74.4877429388056,-58.0561207625495,-38.0408067488794,-9.63219033456392,-69.5311644650714,-37.7564168115381
-36.0948895583319,-17.9175363147647,-42.6725540390364,-46.2426414232359,-27.0969085643644,-58.7327421865766,-53.6002710327375,-45.5072820395973,-74.9968615832357,-76.1826279859869,-46.5927589530668,-104.225795503884,-111.080929557866,-94.0028243683485,-160.385236521578,-185.980004123487,-170.286859911621,-255.940307617036,-307.956864484506,-238.484831724744,-411.545834420417,-259.826179831288,-359.134510468914,-478.010794233467,-235.848635583641,-433.46333614987,-430.357098785859,-254.229502374994,-761.047753990376,-193.023351709716,-347.7160140152,-617.030721811559,-241.470259252687,-129.874050184546,-275.316837983285,-172.347356863244,-21.425926613586,198.480462080971,-185.027323934407,24.3114192177551,48.1654537164765,-67.6577220774423,73.8803924986054,107.382699877024,-131.369009760055,-32.9057943305485,22.8999499013723,-14.4292357829073,16.3066240405905,43.2745850781333,-11.0209589923897,34.1115136618108,-21.7726605320044,-16.2728996482477,10.7428036546009,36.8535602038237,-21.5382569034489,20.073623616696,-22.3820022110182,-5.6806828560754,8.77338989536594,33.662974407536,-17.4548867324889,15.0953915646572
-16.4951506532438,3.51817675282085,-20.2248823225345,-20.2021340222883,-1.36719678165426,-35.7517324568606,-27.2603937078334,-26.364047052968,-48.0349341388014,-56.495593731852,-13.2262853790222,-85.293985086167,-87.4744419394802,-68.3426277425293,-146.045471179172,-230.136285501154,-170.894947700146,-250.268232677955,-270.386482107381,-213.204791741981,-377.577285667993,-191.401923628135,-284.676757613558,-422.975575162199,-139.155066904428,-464.536534048968,-402.581506499461,-245.276005877334,-677.198294435078,-178.067741448092,-371.561414534484,-564.230126564702,-149.637834070254,-175.493456685974,-146.015536935365,-199.480083329738,-130.264496868765,255.777213524876,-130.978180872139,31.5848852452781,30.7269763900149,40.8808993836506,68.2395496533032,190.373149683531,-57.7002085761218,-12.3232540116397,27.1615698698543,1.62003780997111,29.0528549967212,50.1006816053894,5.40858020257466,43.091792543619,-8.7260989613815,-1.71537788267977,22.9537510482449,42.6867162797725,-3.92970490554246,27.2030668426062,-9.09851981528453,10.0714111794006,21.6888942214148,32.6647108778531,3.10201477889833,27.7009757327347
4.34419161655702,25.5044762909904,-0.419686691978265,8.57372232457653,19.7153010399109,-11.21716725515,-4.02671932088395,-8.33879190004397,-22.1961941382362,-31.4243236514797,16.6087699121309,-62.2588575764614,-61.6329918631407,-27.0247084066384,-118.524171040661,-270.004336110212,-146.443002863153,-231.927600868642,-225.093852581796,-147.088320948012,-315.774205334392,-90.2285492017993,-204.737320169988,-339.461402724141,-1.36007993098028,-470.305206586626,-307.20433051148,-204.787596342135,-608.476442590131,-159.614516603083,-383.132772039088,-480.348980906575,-51.3842098547894,-201.516766351962,-83.6077239446299,-183.202102981996,-209.069709904802,278.271901793801,-71.339497193285,46.4539446415142,28.2528867661173,123.111957076519,62.0946445629368,235.351799830744,-2.25441232034891,18.7445027990533,44.3657811447539,21.0184839460425,50.3377195359951,58.244676081084,21.7126369098146,54.5082014593625,10.4491467130128,19.6164011049544,42.5958135967463,52.9483285591778,13.8937501857454,40.4843608686189,4.68777278128752,27.2992829319453,34.2224011864672,35.4373441679635,20.6586193042918,37.8031499491938
68.5581113951641,83.8719971926433,59.2951716682037,72.0331414636622,80.5671109483447,51.7415223956556,58.8097542810521,51.7433644789082,49.2353241917949,45.1208608555398,85.5096359021903,14.8627144606613,17.3250815943206,65.3126338275617,-19.0746741288809,-193.098473837369,-36.6559893991081,-118.135545918068,-136.649549386388,1.23685384878405,-173.716677408428,95.5322146432637,-68.7760144686153,-212.09794187901,180.611631346042,-404.218050241664,-91.2980672931819,-132.188011878777,-555.212553065192,-107.524224493719,-352.483061221963,-345.303500327268,41.7555218349776,-135.700243953657,-47.1044328094632,-129.79123584685,-199.319415266023,251.214156684514,14.3801074290793,52.9076534081094,45.3847602660273,136.41568239651,61.3219129883144,254.282679367245,18.2812654411618,88.2240898697861,102.308380737945,81.3883055867424,103.548769968663,106.113956941339,76.4780418594511,104.64951098219,72.7628544584316,77.5447851065057,99.5719374353411,102.91579979723,69.0926990553647,94.1718053502456,62.4961891616531,82.6780154132043,86.5428515159097,90.3746514468329,70.1070030067848,86.2173554946935
152.293520137798,156.632787975966,145.446087293721,149.865510471211,164.333497360897,134.765123677704,145.598827791422,135.439932537876,149.816643613249,146.939886527177,177.429054978078,119.527089562264,127.554954542629,174.679086313817,121.27534630329,-7.01541748585532,121.599832311552,76.017080270859,-1.00368716454442,193.228193840149,28.7075282766206,326.186514698918,114.09791841149,-58.6647981526895,356.823384320738,-262.10823216113,214.816762358646,-39.2058204504548,-449.110640969721,-0.356378658488264,-259.576459084308,-158.589724455531,74.8368283265855,17.8601357893355,15.0388801889593,-47.6473865502146,-124.577956119676,106.433954148221,109.985927278773,52.0603840885122,79.7087941389492,29.905530213821,64.6658907621278,233.817274933933,-51.7675349952647,164.995831195099,166.80203619089,158.557707735575,166.511851262037,168.379598186953,148.823693421924,168.931281236545,148.022144362743,148.98073642695,168.584807090718,168.317728451871,141.175798077054,162.382372647998,141.622499874538,152.51542469505,157.395393314147,164.913309414702,136.906779996072,151.29244236635
194.224036060646,195.08577651984,197.840955138188,193.229407704768,208.682663068113,184.031801609809,196.386791823575,184.363776918891,210.75646540992,206.759645507918,229.847728770318,181.173442766982,201.751866390788,232.591796671859,213.547520443462,166.095582636503,242.24227381775,232.781248779931,148.455781206557,343.735861906831,204.053741706231,507.417658865307,268.080893034258,76.9802911898422,474.75808017262,-105.706249229329,518.051877442749,30.2706299927489,-265.399042179238,144.46109902659,-104.259493840635,51.4118319467184,25.0795126474826,189.024647282828,94.9218477141215,93.75965992569,-64.1247788670786,-118.446191163932,187.281659091342,96.4935069314553,149.34315634599,-170.288143863252,94.7150160774233,179.987783499286,-220.808955045574,197.992845635381,194.893660933526,199.148104106425,199.161000891455,198.186552697262,187.370543714963,201.554061089384,180.88070444916,187.867172932237,202.583966392187,202.538131798859,183.070275324509,197.545421436068,183.950085550562,187.436419882446,194.003142537033,199.879368280185,177.609652213764,186.740466420765
187.766311902344,197.001358160967,200.367664408617,197.042757174511,202.370205881539,191.150351012678,199.281816097138,192.22101955789,214.556534635757,213.868936067114,229.354797567884,189.747403480032,227.981086165933,234.476039291659,241.146830543653,268.790251023615,303.680345176747,302.918023720678,276.723352086336,426.137063812484,318.396304780054,603.006550303713,366.062881979212,188.318035119857,554.911678324102,19.0375197602526,758.437129951483,71.9613725285063,-51.4570367426793,295.892804963907,107.928827430914,289.478804333913,-25.1564974369295,343.633009304511,148.937587311717,333.867054160565,-17.5812286083125,-244.250350984879,255.692603260677,226.606131552787,297.665177389416,-329.923586584244,197.116026111702,164.785234549975,-374.134536038918,189.952624405135,196.967654324336,196.551512885848,198.728543817215,200.16328688412,184.718058262916,203.040691170447,173.308327078876,186.246167279658,198.905300802685,203.44355625175,188.145302941619,197.080940882735,181.359378831504,183.011240247319,190.512012490099,196.239417351155,180.302244045915,191.239208747612
190.934330957779,212.125606150711,206.962779849456,210.716691485041,206.224470448019,206.248763203901,210.925393072,215.421228378577,219.670066786464,225.90335135916,236.356966281094,202.317113120471,259.866058928699,249.260729047822,273.386390220742,355.100359276139,352.581738832662,362.904091644308,385.974202553585,493.83946689813,429.19688728739,665.971694253327,467.188883618321,326.286941268925,649.594744049747,150.887741326744,939.771934296729,151.325307242487,172.381689326276,465.378115836275,383.121161725029,581.676533618697,42.7814859965222,496.423866514769,192.144156338173,660.775330668498,107.867562101231,-142.285798337663,346.480830500954,412.545978181685,544.408975418098,-326.14540228445,383.415251603922,273.356893863134,-353.191186072518,188.990437303571,216.389089085411,199.81358927842,205.298299442465,216.597929074279,186.574379355785,214.092060046958,177.932549205821,187.076449078108,204.515231232766,215.823412837828,196.902879736269,208.432940011519,185.771524935002,186.863040325839,198.792196863614,204.250310687455,186.258895002805,206.95702535282
244.790488292136,274.754265815355,260.497813570759,271.85387208649,267.848559839977,266.43102941642,271.619430059628,284.574433968452,273.804856335664,286.535205516165,298.6484194423,257.635157612118,333.723387711403,321.169122810794,342.555364147792,463.491102213988,419.89963846412,471.483989853349,508.575132324421,591.101064045404,580.789554172678,750.167437362562,615.224089842679,525.572842000813,732.320577390631,358.355990162358,1043.76242560204,319.104216565485,448.086183717255,656.081208637311,738.765418902774,891.330185991575,234.663563425407,628.562198410467,298.037964641757,1021.62920809712,330.72920200075,103.29141183969,457.170454162239,609.112716329818,843.479807307827,-224.43099305195,607.578929604661,480.592192143419,-136.41074859441,227.79148548087,277.229761808345,253.714840115145,255.980634170492,272.36886281819,233.790251818087,269.04495649387,228.79605993163,234.763833482026,259.149432472922,275.212283279537,246.686866022538,269.716788254268,237.592071278601,239.713130983361,260.286065321476,260.682018872097,239.95516633744,264.457783282569
326.275987670877,361.779167692022,341.104873593264,360.484238642687,363.881706514434,347.691660977878,353.984739793866,366.956289471332,358.552385765605,378.4363256146,395.516606146176,336.907008280529,428.019781884345,422.282738290951,413.55357123917,561.728299178942,484.275239432535,596.405389992598,651.632491876289,692.118105186795,744.290584539457,824.316236021241,773.642421357755,755.09063671706,717.197515949548,637.359788085216,988.079134851225,547.270543535186,776.436128804879,789.213922431686,1151.02717955682,1131.66179302584,445.571275223672,681.152745382461,479.2540933003,1368.72487756889,535.769486097597,315.492754176279,544.5677779992,812.355223185618,1106.88243456614,-191.309199659793,810.663915096717,648.103248957756,139.848427167401,297.329582803178,365.453552896501,345.126010313033,343.799116918312,357.233832368137,316.304875092078,358.774262510565,307.220540517918,319.062832588502,348.248903665196,367.213082405999,326.680615868669,362.360905706734,318.873455518301,326.664552812484,352.790546604261,354.453245671781,326.415516485075,348.714485884166
400.900147591986,440.886108589472,415.921325847585,442.817313942713,456.028409097557,414.474235834013,427.091085140545,438.884663181123,437.301486508149,471.14356895566,493.980028340236,413.294464972127,516.520760441686,521.926184193017,482.844576159159,624.907710291319,524.382144440037,707.443226098178,787.988638616637,766.546766591603,887.811361239105,852.296208107868,903.003349243024,968.919939721609,638.084236516581,916.58813836888,789.31264439785,813.355797464091,1079.46953641269,853.397297633619,1557.72569601343,1269.61776791539,625.851518028001,685.95170891995,689.178288323258,1650.31161968182,643.995787009881,457.562841884978,603.514651838625,1034.31646674095,1282.16327927497,-180.866008446859,973.106363693872,709.602128994456,386.253468620398,382.697619152146,463.526164648064,437.889728534673,442.756887811011,456.79036450414,403.434863565054,453.376996053775,381.866787910197,403.361075695855,439.268402183764,463.71545278273,404.442147394948,453.023833234886,393.733904879488,409.988434742071,437.693549304827,453.996945308069,402.469507054744,435.652267818463
478.699393193268,526.347136256813,492.079986085232,528.371289210398,555.7662145822,480.445941361958,511.941230551841,529.560904214883,516.466922732293,573.918419620827,604.701582541279,498.445684040088,616.804113741608,634.692256606219,597.606709736801,696.520228782215,559.681636698464,839.274609803616,915.36776552193,854.325690557265,1040.37778585024,907.385153354109,1046.77539745583,1167.36555223614,685.885420443132,1155.5607581504,668.742330334177,1165.25766200775,1316.99265560347,1017.91157499197,1929.38648741581,1369.79569208875,823.406123819073,788.446116264507,939.033145557799,1802.74274792119,706.55138523214,624.13320345251,711.831454509916,1267.73053019346,1386.46666892348,24.5186069401943,1106.99249496331,747.005539556116,650.672525985246,494.627081543808,584.152165598294,539.699967898829,555.579775342539,576.411598595472,498.321391072282,558.254706319553,459.341869411497,493.051940617323,539.59241677877,572.472299273279,483.19797275433,553.163427273095,465.128324065543,490.706907230245,526.247995877668,557.308863585978,471.725066554637,535.282727387547
584.211446694984,645.372592282899,591.065547592759,644.013277889449,686.543650072231,575.116913035896,634.788568654594,665.501338750851,625.964546911864,708.272075342165,747.510647259006,621.727661708319,756.798615974652,778.653779971239,772.523068116576,850.48957081146,615.077155548589,1038.70459092707,1077.13141599253,1021.35032391406,1253.45388929717,1070.2490417478,1284.14219869235,1390.1629149191,966.159798806501,1405.85050056394,798.561548081798,1634.68911201637,1559.83398546037,1357.62449208298,2261.2356736581,1524.04652553856,1070.6731696497,1058.55866468466,1271.7142100645,1832.47277605741,795.760607237259,875.871459584425,934.654228732937,1500.35491705764,1466.94262297123,445.614887363088,1229.05916503997,823.439396017531,977.401504820861,638.990755910107,738.25821936204,676.668673915919,696.764626761358,717.879727314637,619.040140447067,694.563889912977,563.165234788658,613.513462336644,669.968368402729,709.483038301813,587.452058412355,686.878404037857,556.40962962155,592.772326281623,646.40711370569,683.267456613075,565.87139598218,661.296604822626
699.047313271255,772.66905383304,696.750200612683,769.373490681287,819.370658259784,681.286947268483,769.576558845024,813.671376843051,752.955992866586,847.757315129665,895.325764723443,770.58651698634,910.503209198273,927.122670644786,957.951208272748,1084.04801412636,697.144224431853,1279.26130133826,1285.91102998993,1262.94638122258,1511.55115621153,1275.47334729406,1600.65495039271,1639.4048221269,1326.63560619916,1733.82001474317,1066.28026347832,2127.66983661119,1859.03908646839,1648.83241797246,2511.36204055347,1698.56784175124,1362.0359235712,1385.87146117687,1625.38058666747,1838.15739172191,924.660661938442,1201.37249445446,1216.80728681379,1717.25834349387,1536.58891696082,911.643972226509,1355.15141687343,887.151353818473,1326.98578332949,774.77251886702,883.25272078818,817.972017360906,835.916282263961,848.440902828549,739.868510061359,831.036857922185,673.772943658267,738.729814741366,801.17466028229,842.792990363828,699.87980251124,823.90786858739,652.722187857684,701.828946419324,773.044462303243,813.774931570192,669.263463420187,782.95175657038
749.889670573757,827.640915001123,743.603012995219,823.644513621066,873.228158178156,729.647425924456,835.865893658025,883.782114763274,814.94338187465,906.3626242503,965.789529677316,851.926776776001,976.199866344205,997.274443327207,1058.16053148637,1239.38652845492,790.586407434904,1417.49548138021,1431.34029558701,1451.43928146374,1677.43113521275,1349.94685006986,1829.06421418356,1800.87938939195,1502.02989539187,2042.00690320504,1235.36740401903,2406.66636308565,2079.75629823628,1656.50245916824,2584.72661937387,1679.97004796431,1646.77412957425,1573.72808186303,1811.09425648485,1861.593046341,1036.55919324941,1530.18159386377,1400.270803848,1836.86598756403,1505.64789073005,1329.29833383973,1438.15541701092,855.047262079605,1598.91481970674,814.746546444678,923.463439268821,865.190714032632,881.278457080544,890.758772066108,780.220255348277,874.73523243514,714.861524135328,784.066549374403,844.28055103725,885.887865064883,742.38123098466,872.658811391455,687.193754646161,746.633873450093,821.621090909772,867.409902293496,707.987105358876,824.649508052403
672.696829520288,746.097506249684,673.890412017641,741.242540958972,785.823624356851,659.330074372596,762.32429867447,802.567365411083,734.39035181419,815.317055405908,887.15117076488,769.015344824662,863.080249650309,910.897386707466,984.033414773827,1139.69945477234,826.393866590106,1305.53033402797,1359.04512573554,1419.79454255098,1591.71726179033,1179.08656295363,1788.40020481425,1728.31063831818,1384.34609961033,2107.43474094167,1165.4665433612,2265.14518847078,2030.77793164966,1403.59062076785,2395.45195412635,1303.73397660348,1760.11839951888,1468.90264299743,1712.37464901114,1813.08832417567,1025.95508261603,1751.1007047831,1355.91743272672,1745.88348691106,1232.66510172361,1638.40220637919,1365.1200702068,698.967734857757,1673.28931136718,695.573173226036,791.402975212844,743.81417021056,760.865581813232,776.600272277341,676.100681231067,756.636471131758,624.873604740863,685.250852332768,730.780122218774,771.157055464473,649.85440861443,761.408365195643,604.637215756764,659.361300386181,724.69078135091,767.398758578688,626.314033086422,726.95917666563
