-39.00308360058,-42.3379197448676,-35.9582332079697,-40.6705016727238,-41.8304446794325,-35.2332688287768,-35.9582332079697,-41.3229696139974,-32.9133828153594,-37.770644155952,-40.8879909864817,-31.3909576190542,-35.0882759529382,-40.6705016727238,-31.4634540569735,-35.9582332079697,-30.5210003640227,-34.6532973254224,-37.9881334697099,-35.4507581425347,-39.0755800384993,-34.3633115737452,-36.3932118354855,-40.4530123589659,-35.7407438942118,-35.5957510183732,-29.5060502331526,-34.2183186979067,-35.4507581425347,-34.2183186979067,-39.00308360058,-29.361057357314,-34.5808008875031,-29.868532422749,-23.0538672583354,-36.9731833388398,-31.6084469328121,-39.6555515418537,-24.8662782063178,-28.5635965402017,-32.6233970636822,-36.3207153975662,-31.3184611811349,-31.2459647432156,-33.4933543187137,-52.7049103673266,-52.4874210535687,-52.559917491488,-52.1974353018915,-51.1824851710214,-54.299832001551,-50.8924994193442,-51.3999744847793,-52.7049103673266,-52.559917491488,-51.1824851710214,-49.8050528505548,-51.9074495502143,-48.6451098438461,-47.2676775233795,-48.6451098438461,-52.1974353018915,-46.4702167062673,-47.9926419025725
-178.544062504287,-193.932805304621,-165.40125273532,-187.325880473244,-192.249812075228,-163.773724242465,-165.546245611158,-190.566818845835,-152.113450090513,-174.21859065117,-188.140372991737,-145.687038081868,-161.345821844235,-187.180887597405,-146.683499967226,-166.488699304109,-142.501564445815,-161.746737068989,-176.917990555565,-165.748159767667,-183.165346285609,-161.675697175201,-171.235031171625,-188.61378465441,-167.994092799033,-166.581140531673,-139.425563738706,-160.190248469922,-166.545620584779,-160.33524134576,-183.763806034476,-136.490186275041,-156.907963973909,-139.043136759465,-106.852698891437,-174.711947103487,-147.009005665796,-184.032390452377,-117.192462003592,-133.72120302099,-153.202353203435,-167.411208207415,-146.720476458251,-145.796511010813,-153.705458636474,-242.036492739799,-241.80197172466,-241.276008413712,-240.136010196648,-235.102605665719,-247.936941437496,-233.364147699787,-235.192133805019,-241.96399630188,-241.058519099954,-234.885116351961,-227.696763473097,-237.962573603201,-223.425299812386,-216.889414874796,-223.787782001982,-239.048563627859,-213.612956555311,-219.531893498521
-316.787396996784,-344.925102108196,-295.923934423442,-336.813619530857,-343.964560611437,-300.391561555713,-298.134347507915,-344.236458559306,-275.314937654883,-314.173631532578,-337.253292740894,-266.477399730371,-290.816286825889,-337.213078211479,-270.958019642224,-304.056197539388,-265.425183023903,-300.656217408948,-326.891983433078,-309.814966891216,-342.455018198383,-305.586700579291,-322.482148195994,-349.902096157293,-317.741677370559,-311.169906909923,-266.402501003024,-300.120864932958,-310.626546321445,-301.896299389915,-348.297129697304,-250.141978827377,-277.073961205627,-259.725226804136,-199.270428572014,-330.764789296575,-269.542519862751,-336.831452115647,-224.091530565634,-251.25340910761,-286.836770499354,-301.830899823943,-274.528467769632,-267.926962912606,-274.943721960967,-428.59399879987,-431.993723711292,-427.583052725246,-428.70387217052,-418.870928463077,-435.195758875914,-414.584615036948,-414.420733473891,-429.119962110818,-427.856006775542,-418.346421696261,-401.701035386392,-422.353595079889,-396.486096795857,-384.749066930724,-399.366009522984,-424.631409578055,-380.262696333921,-388.287198284073
-253.56399551079,-279.089751971446,-241.519060878172,-279.643975475054,-281.140860204349,-263.737902008164,-250.062353775743,-291.577240813853,-232.989109636421,-264.001035011705,-277.751014366524,-234.144660108237,-247.957859105285,-284.354421819526,-244.256703490941,-267.330874072197,-248.300977697997,-277.405471750752,-295.736724205894,-292.029357620706,-318.118582940654,-295.559651062896,-305.85421052938,-321.149052780974,-309.113600010931,-291.069791491893,-265.383253963726,-285.620918775524,-283.225012484438,-294.202644708254,-340.014212936176,-218.527400885417,-228.563351325532,-251.955131277649,-194.719085057496,-315.757581108122,-236.596715200762,-295.743583518418,-229.3364567688,-243.859335072365,-267.076047998093,-254.404330543922,-260.179063141933,-234.02868147986,-225.593569861594,-330.35298186645,-345.873375691943,-331.827265155332,-343.010656135154,-334.839399291862,-330.328400521119,-328.366017078255,-317.149572929167,-335.126135042093,-338.069926302854,-335.920694734001,-311.64280906586,-333.738956712811,-309.564461423528,-301.708722066547,-319.164375525513,-340.014829267865,-301.052258801395,-304.224037168539
-44.1619934626265,-55.3074068427213,-48.9455877769228,-65.4585360716707,-58.5241711693976,-87.8384590342272,-65.7913509646828,-82.9658938877119,-63.0634301064772,-70.8812636912243,-64.7703399952554,-84.1980696008489,-78.5103698659577,-80.0425869636278,-97.9544566696172,-96.7741951384368,-121.520246397767,-123.466053335451,-120.200853522351,-144.928523548695,-142.760412170516,-159.983197833616,-149.227739243009,-140.676234387946,-171.015290122832,-138.675832562718,-159.103301248095,-151.874430997964,-115.8044681369,-174.520269034946,-196.22259088319,-72.1925495460211,-70.9529803019647,-154.2950544085,-121.23328711663,-159.440832077737,-83.8601364662025,-105.970537919024,-160.356386644754,-145.924597215728,-123.278575005544,-74.2035307884844,-140.472517423505,-77.6602987148417,-48.5014896040675,-18.8827818681053,-54.2498857441982,-25.1821985846116,-50.178338922394,-52.0957797885479,-15.2166688788253,-43.2000599197577,-15.43615788324,-31.3140259808409,-45.2096331883751,-56.5906045496976,-27.6310215539646,-43.3206941397055,-26.5314976120576,-29.9109163801665,-44.8343454166568,-58.1790970935726,-35.2494759209865,-33.5736722813292
106.28071590725,105.227215352843,92.7876385556702,93.5700391904269,100.286194881577,51.0183472621076,69.1860443302794,69.614511383667,66.1454547864905,69.431674101724,81.9439201232398,26.9439005475544,43.7877867569268,65.7322301378993,12.0045599009082,28.8399421690321,-26.6529900049309,-4.86094560573129,13.0652975389116,-33.827277161457,-9.34341595011374,-59.3728196610176,-26.5393883885741,-4.87768452225297,-66.7541677308599,-25.2641997390956,-86.1822599810175,-61.6560309616936,6.27586603902365,-98.36898118057,-106.306706428076,33.9766389697067,20.3984414856386,-99.0634865654823,-74.6286233493254,-50.211133802487,20.2150054995687,23.9233015174496,-125.896960208208,-93.2315241265655,-21.166688797426,43.0338199027309,-72.1663568692837,29.3461008502223,76.5369572612064,195.10708288273,141.087821721809,186.446604135778,154.773188787628,141.748803559754,196.316726048207,154.175212523921,197.527197110864,181.464424488266,154.762941925121,138.792343619139,173.461026038271,157.193415262559,176.0396758913,167.22288578827,153.642115493058,136.851739777766,159.41562556504,157.398810305407
176.863786743375,175.136410280071,159.839175405621,164.792787061801,164.682685032672,122.255520029397,130.355726261764,137.561212557823,130.90088918757,131.264771841569,135.920919918916,82.7179162379267,103.448150851199,124.295189052525,62.6401917765796,84.8767867502447,22.1895320748984,49.8471424480584,73.2146488096256,16.8689924618388,45.5184641669342,-20.8761149097391,27.1195945446741,53.7006776101891,-21.4881435209853,22.0086323980328,-69.749013199814,-28.3979012961097,49.0450630257924,-63.273667140194,-84.2587464689845,73.7422270957068,39.2519880405704,-73.2319419281468,-51.6424914189789,-17.2670903286865,50.710502730489,64.4268029420997,-113.217852976822,-83.5974413502797,13.0995692377481,75.7598020520835,-60.5364810366945,59.9453124360452,117.151598087765,255.812501494355,194.338381440005,248.896259737596,220.634284110709,203.365734003186,259.817942684102,216.863725734884,273.633450423383,252.408995598473,218.562741678333,207.789851038395,247.794635141987,222.202325352458,248.469512661141,243.009517853675,230.106258518712,206.270324704607,238.122637067386,225.746343299821
219.57552682324,210.452350659485,198.692874966336,200.703420617934,198.720089777748,165.736241068837,166.363503281703,177.123181372288,170.657559331698,166.731449966088,167.014783175589,125.686676244031,146.440512171068,155.540127110192,95.9592040631512,119.725370753586,61.4750771164856,82.5029074135693,109.500218770784,48.3365610678214,75.4139974819532,-1.27812068831263,50.6637546270545,87.3235935946105,10.6504646497459,52.503844374332,-65.7962510033669,8.28784141820715,77.1271075935874,2.61254213507143,-38.7343330202021,101.64030028705,50.1778216367016,-10.7566860628543,-15.9623642356688,20.146077604419,71.4200482245639,95.3593255130672,-51.2865981399956,-43.9465334386921,47.4788804313266,102.238715686397,-19.0030030331914,89.0438887477628,131.438856484023,273.930036354576,220.532274926663,267.471494421037,248.609728156646,234.815430138938,283.167742619756,243.962883608933,300.461800501995,277.377265784381,246.507928997312,239.357137224016,274.789281183983,249.042202523326,272.612784071671,270.721358421486,262.997718845565,239.782738239873,270.430974138403,250.989203639377
208.752604424948,197.396441871979,189.391011286415,188.668137223437,190.213253625868,167.44824954877,162.840261397257,174.582704112962,166.723381250796,164.990949716506,166.661960303243,137.884709872179,153.472729812407,155.052386328646,104.200400512725,126.114834243757,79.309584599088,91.8509162908099,116.476360388934,60.1275457830645,79.2779837934369,12.3829926945057,46.8998628608135,89.2338915464394,36.0362816145337,65.0952663847955,-66.6924470172509,44.5815658071346,101.5492649847,90.337553461373,44.9444694878499,125.153322008689,56.4233696835229,70.0557687513507,24.5271249977308,78.3634307271,93.0488854270008,126.439079326814,56.2627462021215,29.3310389646179,101.115612149838,130.258886840125,70.0715753932518,136.199091445627,135.858323592609,265.204699734324,233.750658894909,255.070108112534,249.579479788974,241.984600370244,267.221173091088,243.002106208375,272.934848271158,259.71572049879,240.702713195798,235.128329892942,251.430284004012,241.559832890325,247.403282290544,249.151130280965,247.367099981122,233.895156150745,246.917446809618,233.179507127195
159.225452340716,156.462313349706,146.819111464939,148.612683360093,150.330991952175,143.373069306286,133.882759163703,145.104820815789,134.629452242269,142.772654995506,139.927200794597,125.918641400116,134.760716338708,137.667413710435,99.9710817633485,117.052528776452,92.5499160104723,96.462641212407,106.69660631601,80.0103911156837,68.1399550068338,54.1376664528327,49.5370254389537,63.2342089837244,78.162334199107,68.3958475603656,-42.8020375993885,70.9939822585104,120.198803326889,178.157775721032,141.922595663616,137.625253400406,59.7394568439868,133.46379382776,57.0316879751262,133.823744702289,111.262488566952,147.225295384113,153.783191077188,102.618750906691,158.699346359354,147.69822258552,163.533647288775,180.996345633287,137.492372610418,222.778442961513,216.512528384162,210.586138588351,217.132000326685,214.681583257368,209.127659910451,206.994982104056,201.40633000591,205.54088282696,198.515538314835,200.120571528318,193.358785888645,200.525792791799,185.63006690717,194.258319092256,194.260776279736,192.242612433288,182.859852205307,184.883105380201
139.015165752403,146.062255998636,131.773788208902,140.162279933077,138.823258597178,143.994323219614,131.554520275605,144.515098286005,132.454464221579,146.676682624408,137.266778542831,133.735918243491,139.941347302369,144.806454731733,122.568138144617,132.80191366662,134.184168048218,130.038806215881,120.178599062986,138.934268589629,85.0518227548629,141.383584270717,99.1682269251261,47.8506397626785,158.426676480106,96.7886511838394,55.7364978598542,102.703594591429,149.007901103403,270.182147204574,240.856055057187,145.609483026909,73.6924853123025,184.622899787695,84.7744590076995,177.146873358757,134.948037314079,177.972607561195,208.195947441918,158.869201404574,202.836467843439,168.240415208511,217.140453451264,210.091255467421,149.505330282369,186.224263915872,193.863086266267,178.371826810103,187.87493479193,190.693684571275,166.429010452556,177.021756367864,154.785025900693,171.060806950889,169.046476697672,179.931832043649,160.665115537903,175.6355432952,152.142655521841,161.885258905913,164.227403934612,167.447421052486,147.575810935522,159.412522516466
150.357550282336,161.738181438812,147.384014555622,158.943501611953,157.757382992317,164.328698842453,151.599743089238,166.58824103207,158.049079829087,165.400086409594,161.1731611551,157.990439577335,165.867245738709,164.205103456939,162.662960991336,164.629045572526,175.524129243067,172.539389634594,151.273474760008,199.284314574231,130.282036602261,221.819593975131,164.800185418024,64.5354988728098,233.109821249947,149.563549357544,192.025615140865,137.990178639384,181.486110946682,324.95715152138,320.248870779276,140.119671749791,101.545664937663,229.072453421603,118.785967489584,208.318046354308,159.036412329816,227.83120373884,228.678667597181,197.231706759674,224.182567453055,194.79667100804,224.73330679775,220.718994870238,167.47327314887,165.778615860722,178.212757063646,165.482797986014,172.794507617625,182.370869417636,153.69229407307,167.491473911409,145.725629675351,163.05266966997,164.541612255298,176.46420886333,155.818306947324,173.665703736575,151.654326928169,154.637364364033,163.37834850424,167.555541920466,150.03435392355,157.843882352631
155.3894525003,166.832196094966,157.758335274564,167.831689946527,168.410450822707,170.973471079043,161.575044882557,174.332341498985,169.097076971205,171.27289293464,177.266758165588,169.98903061631,179.495374841573,171.382533127544,188.549649435391,183.987159748571,182.404045765936,193.856920746001,178.114540707109,226.054904408988,175.979947944974,260.837815982754,204.731147838024,118.918576250088,260.064067495475,203.255024376528,276.077817806505,174.273815389333,200.60960572843,280.163729061231,352.843079475321,108.068880347885,169.044107837657,255.204046480134,171.703027616566,244.497479469536,192.276470175826,290.4350830066,239.459702304206,231.378872640868,245.339693786868,227.967786691458,226.626744544414,233.460064229131,189.250834341339,147.584649985266,171.397136222612,152.69847551177,163.273196868917,177.716532406164,145.49546336625,166.481039915012,141.402256862717,155.285167517781,164.702834126034,171.379638507885,148.693315296351,171.66370567641,144.447324621127,148.095871226058,163.326181608282,170.022494040759,151.066655930063,156.082833932374
165.632345046142,174.167059578462,169.401655058313,179.935363690631,182.803282549476,176.737490096316,174.579849975029,187.353023623803,171.463970918353,185.534367943673,193.97797723033,181.675984424421,192.212327799467,193.002200199878,212.117390649999,210.802237637008,190.002744132755,224.538543617373,224.082332482997,260.917799142906,236.864221015384,303.95078932418,250.145639839457,220.577875618615,283.519558607949,270.781528676221,317.604619057103,245.499849268479,229.441285097326,185.978068050924,353.797273476129,85.0486052457226,307.837363373143,273.814521509309,249.151331286545,322.443537270494,272.456892684536,370.666949470498,264.635952777191,287.456956375212,306.821160825724,287.653843953245,270.969413289094,285.310428841438,232.660727257106,157.405844142742,199.992593092162,164.538981230527,182.594678682128,196.344817615308,156.624675085484,189.599914293448,150.269549605749,166.772838402615,182.843107916404,190.073815482765,157.167346177151,188.692212537992,145.499705665787,159.015727087808,178.09364237776,191.397132363776,156.418689949037,174.333984641683
201.455187006373,210.480210885149,201.639779113233,215.421517352822,226.783521844552,204.777665551,208.675331093354,233.508080678768,193.413772817608,224.161542318061,236.586495892828,207.774549551659,223.324620210095,247.218613026136,252.485709216633,266.609347727611,237.120924321508,293.051448124465,303.247289880017,342.227292006623,333.001297073481,388.338158001285,340.620299933168,352.969104761656,363.572339271379,370.392470947301,395.862494068138,371.9642920678,292.601788872683,175.348757258616,374.512295928516,131.903000299896,472.792489108164,307.385239769077,333.332958945767,443.056032716918,390.953869781214,455.050550544525,315.083490151868,369.26423883553,403.061287261657,367.064752788018,355.93458676585,371.269964955875,299.878793925915,212.585614017363,267.653548941982,220.953111655224,242.245838747847,253.553374875843,205.43792708819,245.064831672079,189.419914742702,216.261086583341,234.902041692357,249.269374541406,202.678124297859,241.672097723493,185.88377915869,201.236631934607,223.945559369316,245.876547822871,189.654213827247,226.346445984169
226.481308496696,241.636245526271,221.922633166868,237.669786969525,258.156076360456,225.518371553504,230.064028149501,271.819408606627,213.012567467486,247.208517194341,272.151103311417,216.663482817604,238.78316904265,285.913912838868,278.021418613613,302.820106557028,285.63330893529,344.804919894237,352.946449674432,411.535279941097,404.531122460465,457.287049596841,418.344062894183,439.023730173805,451.066533880996,444.031829195148,485.516865379497,478.24731929259,334.940754207979,245.766917338875,416.897553223905,218.894012226137,543.391597962458,320.893148296335,373.256653612949,528.657844525332,456.432702450821,474.616673254036,354.422259558367,427.076461145291,459.735728828922,400.645400513523,416.149945586429,419.134682133389,339.23354183948,256.501623273444,311.823891016371,265.725962677437,286.317410267577,298.875671272847,245.528189779421,284.307495599224,220.613902926273,254.054083752805,277.582561876581,292.602397457002,239.580515931508,281.144831519907,224.967354577797,231.456549713423,259.598054260208,284.341908122006,218.877853639745,261.926818327215
199.494504990332,215.219441177809,191.422524108735,206.917215608564,224.505458542036,200.398010182945,201.094629146305,249.530102219378,189.372404752335,216.428151681875,246.338283945366,181.679640927022,201.503701310481,259.041665426439,251.109136679383,263.516930082183,275.609782801095,315.585971563535,310.769501242808,385.928771358727,372.235029530915,430.760912853268,391.134601568566,408.363754687271,435.451881649869,408.696157146398,475.852924633911,456.149462401867,285.371983915445,252.506993826619,415.461135712233,236.741822319011,447.429566573899,257.044176664038,329.88745623121,494.353700070759,390.272761430214,361.952513224609,325.15773564749,403.47847957157,407.734244138352,324.197186053217,389.081955195299,362.0541756253,284.919291044199,228.746238734317,276.147604758168,236.770536943745,256.059815978298,269.420516449515,222.510013626759,255.557251818915,199.171684939713,225.143332752389,252.626509473667,258.687711601204,214.766377640655,249.855904883266,203.308441987394,205.904577580273,234.507107405305,254.049081437842,198.912177506671,230.705645706985
133.363312126436,140.447127516239,126.176803268453,139.487232673902,145.273706816718,139.725742172248,135.134903099432,177.327883015459,128.010149712021,146.529884092403,164.784200984342,123.29738930268,129.386198320991,180.243004664369,186.041005263402,171.3693032602,213.5100755509,226.007545152168,206.697383986056,277.760633017448,258.12099764685,319.260505985215,273.681541577282,291.904276397342,305.630310269426,277.594094016315,351.440521834524,317.05556322211,171.487459910458,168.941989121944,331.08242985349,152.417626989753,235.741564931747,153.065689549692,230.628578597407,344.215163354036,215.115250184035,139.135186278739,229.584989185789,303.350156568326,257.683257808099,142.811884096058,278.46189822761,208.615887505823,136.894420110161,144.318926153171,180.201491157668,150.83368135879,166.228518667763,173.046792691043,147.33884056615,168.381363405392,134.917172549919,145.017809578742,162.740244398274,163.447025922993,142.039178884649,159.905594692707,130.329237128144,137.996454711628,154.634982340566,167.66693698407,136.443464120923,147.584864348762
62.7051374675676,63.8349488936291,62.2530274933068,72.3232687913451,68.1477555986914,76.5042766039281,68.1074370019822,98.4272254353874,63.7835912410385,72.1500992605471,76.4361082986369,71.5097146714325,59.6740694674187,94.8252687295968,118.091430664387,85.4200371273617,149.678736011791,137.334870426224,111.937801961873,165.366415249574,151.013082056231,202.115445233446,156.906289227357,179.73871838334,158.990982033452,130.739779678326,212.561792567572,175.944372977255,73.35530756452,117.339993304954,203.065128985027,42.3062674524346,17.8414443920568,105.747060887419,142.02761096617,160.630120578759,23.7763495830404,-92.9134345026489,129.542483224915,183.714963340787,82.2545536626287,-71.5598294485138,140.277327622121,23.6986080796412,-36.806811102186,54.230010819519,75.6577435212489,58.3406625233357,68.1450708451719,64.9776293626445,63.5618607537357,67.5257961548992,62.0572737203309,59.2072859821387,57.5806883008434,61.9683879171368,63.4303836263407,63.8790799421678,55.805548561059,62.4495748021926,63.6596369236919,71.9636489816047,65.5430650552039,57.2870234627416
9.04444653133967,11.2040975053781,14.8467686139716,23.2413098972095,11.8328083161429,31.9456292900871,20.5070622097434,38.4779925532253,19.4100948026183,16.9803371384681,14.7093281435699,38.0256357104071,12.7871120873602,33.319178786358,63.4181724892527,31.2555413620284,108.953543286195,77.7895063100965,59.3374779275474,93.5198648340455,94.6081145972613,130.939773093289,79.473171571505,117.864700593306,70.0999737014634,13.8454192046694,136.046027143896,97.4800265659882,21.4621448192402,132.505832224084,96.4811343661217,-20.9473289200738,-127.421323818667,125.824907256065,98.6984786640203,23.5993175076162,-109.872806701303,-245.629594753346,65.634729748034,91.2938744618741,-53.584835907624,-235.791635759646,29.6956937028853,-134.046887887445,-176.204381422971,-13.7230606788181,-9.67007883929702,-14.9283720439527,-9.81196708361504,-17.6452703340458,-4.5034990592885,-14.8776665353176,0.804516926285457,-10.5556064685174,-21.0773663441259,-15.5454258736037,0.970999283610556,-6.88643404310287,5.33380271182924,-2.20043432271648,-5.8825473217431,-1.25571276171048,8.26781917143473,-12.0088406748427
-23.9950900053151,-22.1887747088794,-18.0429837747971,-9.78249789112283,-28.1061052391044,5.30242738259222,-7.63089283131319,-2.49102732514442,-4.69421080011426,-11.1396152899906,-20.8934658971407,16.4410813617843,-9.96486251681807,-1.46813446437253,19.6009469521371,-1.35212626303464,78.7147528919649,37.9817937056276,38.8630174074551,51.7454328601131,70.9040318961169,101.588174302603,22.4734191771509,93.6959756326859,37.7840367421604,-52.2591247096604,113.532981937558,61.1691304755978,-0.652538201279207,138.086988212812,34.8260929391898,-38.1071911066845,-188.928153431288,136.021981150446,82.9111488482251,-49.7199529999011,-181.645238158191,-305.605808049279,25.1057377473826,30.2026819553063,-142.700580038796,-319.718404297067,-44.8366141877879,-254.320535800469,-271.257198255571,-62.7967943521742,-72.0118546018704,-65.9442127327213,-66.6546297618544,-74.395833039585,-56.65048562284,-71.969254866497,-45.4301382066089,-62.6292551825775,-66.2681431130863,-68.7772150618825,-43.3421100744942,-55.9823558044802,-30.9472127252727,-51.825184038209,-53.0776913840814,-50.5326010591228,-34.6410725922243,-56.8499257211991
-48.5543675315256,-50.2602537265761,-44.2412541721515,-36.9882374844705,-58.4119900191503,-19.0282882417079,-29.049549905981,-34.0231964841931,-23.6788039438591,-26.5280050590517,-46.5036234203054,-7.41806449058548,-24.8615376647813,-24.6915814525577,-22.3087607405712,-27.6084406000787,43.4300465090128,2.53112903380852,27.466291015826,16.8357155693121,57.7863502070167,92.9937887652681,-16.162779985915,85.4306734596017,39.6156200290176,-42.2340040562694,108.834904018713,48.8590419916273,-4.48983104951069,115.115775358626,9.30749588290071,-40.4206953103081,-198.798068985704,96.4271740555266,74.2765587810698,-84.5227680996109,-215.324414005367,-303.054194843801,-8.17850107571003,-12.2646412030723,-207.1369182211,-337.17636433559,-103.314497335651,-343.033864608832,-317.641319323702,-102.688579101334,-113.765656701683,-100.86226113985,-106.804165695061,-114.984039882319,-97.2169607727963,-108.390838230106,-81.3351750316518,-98.3876293815845,-93.6795651359676,-103.957919074946,-77.6067942996617,-94.9806582507818,-66.3189721872779,-88.3208308832321,-92.5464878249514,-87.7048724479407,-69.1236853036356,-89.1222948544938
-69.7463290078145,-72.9088397546182,-64.5998700367093,-59.612938181384,-75.2660728101912,-42.5431019773853,-50.3510497718931,-55.9607511290939,-46.9807955808084,-44.9164629123978,-66.7690080514935,-31.9227511563388,-42.9674802639747,-44.5642858763521,-58.7892120193336,-45.3551035272699,7.28983879303951,-26.4145553227383,13.9026668035937,-16.0685026866627,53.7704158519071,89.380791332627,-23.1936939324642,84.031366322952,60.4563947989497,21.5146852251431,103.830247696371,59.6251688847849,6.37243929604236,98.6670763981673,13.0487152400049,-29.6045943198109,-175.403220139538,42.4735573626879,77.2123830738092,-91.535191118373,-205.838579932598,-252.767782748556,-22.6264047991805,-31.8428031480397,-232.072739379974,-291.294233386065,-134.351869738894,-368.970158515118,-292.611127719378,-126.90941749791,-131.335648407712,-121.325265929578,-125.383245393568,-134.147979131447,-120.063097043138,-123.619897087984,-105.313042304768,-115.889085063414,-109.656099668064,-119.74085278936,-102.306721782874,-118.346410321033,-92.1984546471762,-109.163343442172,-120.741602806046,-109.165745738636,-89.3474702548733,-111.681488814986
-80.6031112062058,-83.4891612577482,-74.0015646096881,-71.9329382198648,-75.9082188311572,-53.6690994979524,-65.7480837576913,-64.5727393862971,-66.9701418538847,-61.6729609342965,-77.3376983334905,-45.7571266927185,-56.5095320766202,-59.1898058895127,-74.5511319507267,-48.8697110862837,-22.6036070666036,-40.3395452925141,-0.688962927124281,-40.5930137640204,54.8424263777938,67.5558633648215,-11.7103661108862,81.3254181526981,71.8182284562855,66.6257158301214,84.9183062189541,64.7910051354815,14.8579664874788,80.8234374507614,22.9872776099204,-0.83886080451798,-124.511062897252,9.98307887428805,82.2731483994517,-75.2539242136896,-152.336359946246,-170.753400279592,-15.1058704570947,-23.3972888651511,-191.450148529674,-198.35868506432,-113.699098434951,-313.793575094711,-211.059943230894,-129.651947069818,-124.824525889052,-125.296755426939,-121.632309299238,-129.552408372629,-122.174348538329,-121.647584155551,-113.996100909162,-117.536931966583,-109.310213783474,-114.930713910058,-110.94234796579,-118.046998894666,-98.6977925927906,-111.59937175573,-123.092776759166,-109.162392298759,-94.1428919115027,-115.498700943464
-89.1295045769362,-91.3669881331069,-80.7499318837156,-79.9472884868766,-78.6375265225762,-59.6747647116582,-76.0984110369007,-70.7461504031069,-78.9720264284715,-74.0972807775899,-85.9315147730252,-56.0181214602542,-63.2064689927508,-72.9080889002902,-74.2048982838727,-49.9400565327561,-54.8477514628198,-47.4255542632906,-17.4832063178614,-60.0696111278457,46.5131915227359,7.69928206385671,-0.536660477895935,66.9150716462269,43.9042635840836,57.7126610716859,37.496954850082,35.1790528727128,4.12681453086531,38.3048119989674,3.8864213570149,19.2386783630269,-78.4696755221315,-13.0659584536266,59.8117695695698,-62.0686995197887,-98.0744926054067,-106.789954230747,-10.0864729435549,-10.618990367468,-122.50071010379,-123.440871350566,-68.2931153423819,-236.101376834353,-137.56435975161,-127.403665152508,-115.726451370688,-123.41703436462,-115.907439294364,-123.393028667734,-120.089080505256,-121.137762132269,-118.627172962002,-117.427997232721,-103.960198951827,-105.141196428201,-112.214955146742,-109.256762671366,-99.5279746788546,-109.020217993273,-114.437753650919,-105.780058771184,-100.805214396231,-109.661099927883
-110.015031898358,-109.429497125985,-99.4651581180819,-95.9329188347979,-101.136169995315,-78.2679534652063,-91.0736619101162,-89.1677666666042,-93.3994450920626,-93.5917174306701,-102.91489175541,-76.5157234843647,-75.1550093537465,-92.075142598955,-83.4256959165677,-62.0666377512925,-93.7778393983262,-62.9351720832512,-39.6315674923752,-86.5439171158622,25.3667259266097,-75.224220206347,18.302992384771,39.692857439717,-16.2205234571994,24.276697928349,-28.7417528970438,-14.0795925748689,-21.327527642036,-13.3166326321861,-41.9176922627879,7.29545569335927,-72.3161718788658,-49.3620587289993,7.39058320685681,-72.8288869095754,-82.9574722168116,-95.7042470478686,-23.9258994654993,-24.7628947926587,-93.289830613973,-106.864303735679,-51.2131584470366,-196.256272820655,-110.60186943592,-136.653766334806,-124.131170558258,-130.594907103718,-127.113782311291,-135.519291261234,-129.6043801496,-132.840670244028,-131.872383482866,-128.39693408293,-113.80596894623,-112.532909514255,-121.07323844767,-113.840202182893,-110.95794635418,-119.048327713462,-123.667162444386,-116.805464386349,-119.937093104544,-116.439791910903
-131.364096943296,-127.461456169189,-121.758481832534,-115.810053064119,-127.859791608568,-102.288617032383,-108.112914240873,-112.209782375945,-113.223730729699,-117.046534648157,-119.028907856004,-97.4715671523608,-91.5867033562257,-111.346303596555,-106.38162011699,-78.7615829129618,-125.280288204541,-83.1323284128338,-60.7938727190035,-117.434973192467,5.56326879070608,-154.844029232145,54.9073188862054,10.8966684807969,-72.1072060939945,4.43666858879362,-83.3440840573421,-51.2109162650324,-42.9759798868695,-49.0175711849756,-79.349062442644,-20.0500336596935,-94.9519496922273,-87.3523966607497,-43.4967084461169,-95.348701829842,-92.0608455586507,-108.195525945547,-46.1858139134531,-59.6764145196315,-109.890189333726,-105.799169658291,-66.7509146112433,-174.282143400511,-104.21782125565,-150.951874084146,-137.617417426822,-143.213453235322,-144.117497961055,-152.25114034203,-143.333678432167,-144.764058828759,-146.760099096684,-144.988796517946,-131.363361648407,-131.816711209783,-135.581619558327,-126.475988496979,-127.33379072518,-137.156822151209,-143.661753018921,-130.679759915672,-139.264170959358,-132.84263862102
-140.906826275515,-136.476676664575,-136.306697602628,-132.077079006317,-140.030031263285,-119.659226851461,-122.123223001593,-128.011008002115,-131.07559980975,-134.141425605861,-128.146929140503,-108.926462678452,-104.247624104796,-129.903163862685,-127.543306093338,-95.0782541652439,-148.897011212984,-101.070905166861,-79.639053425894,-146.385922053644,-13.7173767223944,-244.089896601207,80.6787333552174,-20.3087032596785,-111.69591350586,-8.99782575813595,-122.271245003208,-78.5626773366217,-57.791356252442,-79.0242996458569,-101.722547791475,-41.8767838244833,-111.743727821136,-112.590931234593,-79.2591275637437,-114.780280333788,-93.3710722371588,-106.174714586925,-70.7218519632215,-90.0546037678001,-129.903758307175,-81.1604933240589,-86.0760146342391,-139.375269684752,-89.4002888077034,-165.070407023119,-146.391833250664,-156.258960217165,-154.034772958555,-159.058761175862,-155.748750558976,-152.736557760434,-159.591702303759,-159.891109921646,-142.622274273802,-146.600114735742,-154.175753643534,-136.79440145018,-145.356515556837,-154.947356241137,-156.919210734974,-139.351296964831,-151.494892235928,-147.248501242002
-149.910778656661,-146.44810303537,-149.291022392959,-147.004902053001,-145.026414889534,-135.191259888691,-135.637438402117,-140.506745278091,-143.763503679536,-147.773037443221,-139.435331571794,-119.786002401901,-117.252746248888,-152.113247849784,-140.566473753042,-117.459144505593,-170.657780437375,-122.760437675666,-104.111547927017,-173.713759464917,-52.268731770194,-340.243603988393,51.9610398719385,-66.3693173292034,-150.583323913327,-46.1824988552929,-162.609589586644,-115.929223013688,-78.4490743713809,-119.2361032343,-130.345004268596,-59.2655886102809,-106.742294127343,-134.459446385177,-113.800614969101,-134.343549549098,-85.6710454636456,-93.5124125183013,-101.524958595311,-111.10663509031,-133.196005534697,-58.6242797082638,-100.543649455819,-108.855393619285,-74.3849340986627,-181.142000221184,-160.962443340569,-173.795922049931,-162.920954665961,-164.870058376083,-170.855905912279,-164.509890446977,-177.791425425549,-174.043746118905,-154.021048262502,-158.49912445778,-177.459251466664,-152.958766910436,-169.110169596402,-172.210836850256,-168.658106235109,-152.009710919252,-164.231134704783,-162.279883697028
-152.420844836437,-148.963576647577,-149.568250649405,-148.331939129618,-141.991562015337,-138.407691797497,-135.119809572016,-140.134673627171,-140.198842829219,-146.177074364704,-140.725494709841,-119.281539456278,-120.747240692886,-156.493881732887,-133.361486090617,-128.754504799523,-163.598274707286,-137.036357901505,-121.267072223908,-174.647122780945,-100.616520625555,-362.714755759231,-22.8046456487212,-113.068686176776,-178.064066119377,-94.6907435155666,-188.744649142969,-147.983752018171,-94.7943869155187,-144.221633004756,-154.961598237478,-63.8624977058883,-78.3720116269287,-146.69746456959,-139.568469409215,-144.855258077525,-73.5377454302557,-74.010264566801,-120.818824784429,-117.961870256598,-120.201759983962,-47.7884185241259,-105.917737259686,-86.7126029428835,-57.1258441631243,-179.541631918279,-163.78363232275,-178.217379412411,-162.025298551511,-162.110452478816,-169.526680771087,-163.602678129922,-182.421915394404,-172.779744648042,-156.052341296939,-158.016890632688,-180.745510495304,-163.904954040598,-177.213396464332,-170.763201060612,-168.626666361299,-153.878943070114,-167.247873539944,-164.687212771798
-138.099755982741,-133.192878021851,-128.432812845465,-129.788142705823,-125.080951619757,-121.493357268106,-114.935622855875,-119.81025443434,-118.851558988812,-121.201682950693,-121.4213872152,-94.6696011286177,-102.986772574046,-132.273940817999,-103.846029195588,-114.074290623629,-123.036294825697,-130.685799053811,-122.091640166624,-139.10293477487,-134.814139629617,-284.385389384764,-97.5538404886065,-144.783410983402,-180.067001154014,-127.53310806096,-186.98517612349,-156.602980026389,-94.0626935934947,-141.220030533833,-155.296591707489,-50.2261546446389,-43.7997726609242,-141.508415622341,-142.946549888749,-138.385461026562,-56.9374580408752,-44.0022886937015,-115.989742931936,-108.718384830906,-98.3181009710066,-23.4364967053111,-98.6027937202129,-56.4979951712824,-25.7914618609203,-152.116260216868,-137.676543512939,-157.432684006246,-142.310692649558,-139.591321948786,-142.974306739293,-140.193856956153,-158.684376899865,-149.691316476804,-137.850331374692,-137.319896545373,-154.933370648649,-151.981842311166,-157.642330292445,-146.22747785483,-145.741862575348,-133.286668443457,-149.3029147714,-144.905013954149
-134.710968990601,-124.960558300206,-120.379014587875,-122.782308717602,-119.804395708938,-114.319152732071,-107.473479564846,-111.619496023614,-108.887221721749,-108.503581516489,-114.035202785737,-76.1299232641653,-92.6844530759461,-119.457299626294,-87.6969688880218,-106.29499589127,-102.81073650571,-128.612756456638,-136.262423242434,-120.998214749157,-168.868189668056,-214.115911081258,-158.444194976957,-183.851883662054,-186.464176044695,-159.926252401189,-194.424068626739,-168.782981556371,-101.952024228194,-151.429229485264,-157.744237326184,-46.9388728213069,-36.5710424482764,-149.105776266734,-147.663448077223,-141.625864561295,-53.0381602397779,-25.2801305869842,-116.266458665736,-111.09879049219,-89.9268303651293,0.214223406399933,-99.0314931964489,-35.1512780435106,-2.60563179509685,-138.239294701326,-122.092491445369,-146.576296426453,-131.334690166053,-127.77690728201,-132.287874740556,-128.141291020095,-145.267478818758,-138.314704515471,-129.589711384613,-128.663803770678,-142.214212786531,-141.6710530798,-146.960315463431,-137.383379964993,-134.003388947865,-124.433200049274,-138.675927958555,-134.980601682717
-153.447662978154,-136.984576774903,-141.093442615093,-140.194789511219,-137.763105200671,-129.736649122485,-125.154414322409,-130.735611345767,-119.991829188283,-126.387903883818,-134.248113351908,-83.5283703519875,-110.063660966873,-136.397654566713,-103.160209053961,-127.641553897542,-121.648721891599,-149.81600649025,-175.289259074181,-150.111869178712,-219.158084707928,-219.520051297795,-214.168654365018,-241.344267691744,-215.621283802512,-202.852119951862,-231.801051269294,-200.160454585772,-135.326513689101,-189.210147393986,-186.499887260267,-69.1644352121265,-57.9903943845452,-183.219922620453,-171.367426438656,-166.683908443424,-67.480682385822,-28.5914069791276,-139.115162614407,-135.157724917114,-104.751687027121,-2.13184287350997,-119.118186814273,-41.6814562099217,-3.71017406548802,-153.754107997165,-138.41384011066,-161.018779469393,-142.648331225349,-143.523893770538,-153.610670915111,-140.781609015859,-162.798201654617,-150.571846207344,-144.433234338199,-144.963304969765,-157.38437059161,-149.803422571644,-160.201487888837,-153.050662672637,-150.764176042529,-140.790457976517,-153.036866311271,-149.270135032308
-144.506312968815,-126.902155097565,-140.846109823724,-133.35929081959,-130.193221718698,-125.502560671039,-123.501009563446,-128.587869361979,-115.287429396727,-124.930925944068,-133.085177274437,-81.376413837414,-113.95840274942,-133.332961318381,-111.625635948557,-139.29666828125,-125.226583003346,-162.188389540998,-195.466927116748,-170.879200747484,-253.556423334862,-227.486391647532,-244.673623244713,-278.85260664827,-230.407598859292,-222.678142309744,-253.865455967104,-212.424931222757,-156.942216150564,-205.352268744797,-201.864405622486,-85.672393911443,-69.7340531673688,-198.481990124908,-186.079559412551,-174.657461826256,-72.4295095805752,-19.253224455988,-149.392032069951,-145.258188815679,-115.968417267873,0.0431213399855146,-128.35801570825,-50.3351603283638,1.48237366687472,-136.154840216309,-123.719230884928,-139.916103648397,-126.176645998686,-131.407851403225,-140.579302653081,-125.067328690468,-147.259835414304,-128.035923828462,-126.867295818559,-129.58485532287,-138.037244341703,-128.560715953676,-140.402394353991,-135.146676391923,-138.206264994129,-124.145456965591,-141.243366761823,-135.062623351993
-73.7805740699938,-58.7268864145442,-81.0285829449377,-64.3641409605541,-60.6368201853789,-68.600059379226,-69.7458147430727,-65.734069819584,-69.831230565195,-64.793902012293,-70.9871936425719,-41.3463650215847,-66.5768193421083,-73.2049776568608,-77.7549705168331,-103.149279132863,-78.2214597889202,-132.135344468768,-161.875744873737,-134.451475583171,-232.942729680348,-169.173853991687,-220.601309855688,-258.289078940112,-194.729301153451,-191.196167314145,-220.483852860545,-174.771978869255,-128.360240691985,-167.883003303849,-157.11651561082,-71.9389036053506,-56.9202787172993,-158.404418996264,-165.924785240151,-136.369011507072,-54.529094687207,26.4457335456977,-117.895455619078,-126.966676542688,-91.4667023820196,40.2326661020608,-91.8938688350267,-29.7217875959627,37.1007187835039,-35.8668738323357,-28.9571532779032,-36.6595246535586,-36.9856702140932,-42.3100074488314,-39.7685743291248,-39.6767259579031,-46.2112309329065,-27.1493247540715,-33.4224018850427,-40.1045881793414,-41.8407249101783,-36.8105962766481,-45.8825867718565,-48.6333059036899,-49.105359134547,-31.8352477639134,-57.285066012516,-51.5722856287791
1.50987390887387,17.9902381841854,-11.5584204451391,11.7483345572358,11.928990129003,-1.93433499826354,-10.3233629793737,4.49114555913438,-21.5014068186619,-0.264089331045938,-0.372520345977819,-3.14402911261488,-10.9880488995654,-6.87841785285238,-33.2964232875371,-53.0596565739876,-27.635035101363,-87.285474939784,-110.02488924695,-80.5050785806362,-183.617538607454,-88.6304536877056,-169.407356390569,-208.541284322978,-138.245283383885,-142.827051873942,-166.874277016442,-122.842741106846,-83.7655189822021,-116.531397403966,-91.8477648285104,-58.4578049090713,-69.3896724529496,-102.075594433686,-137.096496578049,-94.2265782385202,-57.8930522864787,55.0395151813594,-77.9115698224296,-124.386962950561,-53.5307702510206,71.9523383749156,-37.4263809837533,-4.12380755462122,62.7489471883513,72.0247930021545,71.0075473339628,71.4046027884274,62.3648420223647,58.2345368536503,71.7741957991608,51.8696292205878,61.1121294684074,77.3414164820309,66.8674855018913,55.5222905925917,56.0445443935413,59.67619578637,53.4654860520246,39.1283268637691,47.7168502497395,64.8124787233539,35.7005608994018,36.8013279266306
-5.97345820199372,9.88547429940238,-17.3581801031623,2.45424610820443,-3.81748314756925,-2.98724754565674,-21.5972111444804,-8.39191814064508,-33.0250739021426,-18.1916498471395,-13.1984862529881,-25.5608630934036,-23.0400621385536,-19.0758680979049,-41.4319780659718,-60.0326542604069,-41.2827301476429,-89.2011312730286,-110.216323320823,-81.6937088309361,-178.594109064373,-70.7065273570808,-163.80829820809,-205.558543024536,-130.662182786864,-147.460825059052,-157.101549445953,-118.667509642499,-99.958555114375,-110.035127671657,-94.2512588489222,-95.1242144596705,-166.67309159967,-90.3631942963286,-142.136001556133,-125.061116916299,-142.924626391795,-11.5568652954932,-79.7473868797785,-172.881788175484,-78.9900230102658,16.9348216329374,-43.8534229992237,-34.0771818576059,15.4900698248048,59.6083087397883,54.8952081254608,55.1076399588849,51.7509090431175,49.965833023541,57.2170210544981,38.1371449860136,43.2096957125272,62.8116407238533,54.3505960035158,43.3163245049201,39.8341881047982,43.9018871641248,43.3166488903315,25.102698788493,35.1125695519415,49.9628842865956,27.3826636006763,21.5881146805671
-97.8382578017833,-90.1147513847727,-103.176760777893,-94.8498357533559,-104.301406682709,-81.6102961706738,-103.695967657429,-104.330577790744,-109.590925851083,-113.770961004848,-112.469968030589,-100.511354480581,-103.528595150099,-111.118977638956,-107.569129095388,-131.700347306553,-111.115357787327,-148.908811259669,-173.481421439099,-140.501832064567,-235.085618589895,-124.026086316307,-220.332350186522,-264.121286156766,-182.831329500999,-211.488489822656,-191.481391592943,-161.439644126621,-180.793184386379,-143.971527804009,-164.425246354633,-169.163709711432,-314.69859281163,-113.925389229993,-168.226396982479,-232.919946716425,-286.859300776833,-151.145176901404,-109.563010077591,-238.20300637971,-191.392036486241,-106.26894724479,-129.371589912894,-120.384829944912,-90.8461941022873,-77.8595871723338,-75.0611588391868,-85.8380557475471,-77.1379392795428,-74.0106605419629,-89.6803387381727,-85.5948911631939,-99.0827009826521,-72.9148993846849,-77.2304705587226,-81.0507563593472,-89.8014851231576,-88.8255735864453,-81.5352886752775,-93.6892242501993,-90.0877522665851,-77.1842614244637,-87.964942725583,-100.060498819007
-193.167555654561,-190.336375755171,-191.893691208423,-193.275213171113,-197.691226379487,-168.686760620804,-181.547144555467,-195.473076758248,-189.943555405925,-197.75128252746,-203.879546088445,-168.691044903284,-180.523816883667,-196.863858769071,-172.86344317559,-199.24608335318,-170.304761341374,-207.188874369932,-233.279978287931,-190.081430153957,-282.407465302133,-176.077303417459,-268.168305819939,-305.13220408608,-224.192691917145,-255.961686211655,-211.290768310805,-183.617590899464,-235.674193282728,-159.146237883213,-205.287826852785,-199.150489753542,-399.296977032937,-117.41460254637,-164.823418880264,-317.935459093579,-369.799089048393,-253.769162412059,-110.645162524644,-260.763543987953,-290.884238423356,-189.60901457322,-207.488798586335,-177.053973140936,-171.889747042012,-215.568788856546,-194.59832033945,-218.743966870018,-202.262900619789,-195.871541164296,-231.181806134953,-204.964788403504,-234.992350074837,-206.973430933187,-207.61510374241,-203.125180088451,-217.047866525209,-215.147903740375,-211.55035367365,-215.155076607013,-213.935809125185,-200.740921732105,-208.874935157145,-217.169418072871
-228.891803716484,-222.905199825123,-224.367294858564,-229.041532089824,-222.498428446062,-203.398386854165,-203.447886562279,-219.890092711757,-220.530122644141,-214.590106574569,-219.842337883707,-194.298760020398,-206.856131442094,-215.824206099786,-192.004938962398,-209.792327742066,-184.046178582054,-208.856973336701,-232.48168139636,-186.948793717065,-257.981724459115,-170.693782462282,-246.095467073097,-264.79440340126,-201.736758238804,-225.355355928801,-181.830135598685,-144.867983406431,-202.65400650464,-129.253847430696,-164.305824166217,-139.23687261982,-368.784197856057,-90.4244916661412,-127.364116346811,-292.489559595036,-315.018691903043,-271.636929041695,-79.2790539162421,-232.370352830113,-268.048091805377,-188.637341532428,-205.404457504171,-142.891205320043,-192.146405086754,-263.075326905314,-226.106502927328,-257.74416667263,-239.71591914237,-234.485080678988,-271.976853405,-238.474869475691,-277.714312724285,-251.261195100584,-248.105266576825,-240.847392625073,-259.667966192655,-248.960744762317,-260.93277774995,-259.929333819724,-255.749367071005,-241.567967511011,-258.073602999938,-250.237717330168
-210.490726192074,-202.760843443911,-205.258017836866,-209.375118235665,-197.436010960347,-187.042826217405,-182.956926075521,-190.312170610542,-202.934520208504,-187.616267900703,-184.882666445642,-183.043261680193,-194.269561931683,-186.563711568688,-171.991459772831,-179.605930744017,-165.731793550682,-165.502848900472,-187.380736873658,-154.758524860502,-188.745451544391,-124.412161689739,-179.031235748626,-177.561138466072,-141.625256961966,-159.775589584921,-124.59131427187,-82.5266286712115,-130.060008538084,-92.8025128087766,-99.0707423625548,-46.4542333856698,-284.828414527391,-73.7503426651692,-102.420226822872,-194.394555134311,-190.418800248608,-254.389962279547,-71.5568170087303,-201.63926142627,-151.806705337933,-165.212496203466,-158.049895924341,-67.9413279874227,-193.741095183136,-248.792685242447,-211.619254033671,-240.612579620876,-227.155262873768,-222.036900573414,-249.308819531145,-218.350040070143,-256.265121201732,-232.892653478938,-227.809941823861,-223.033468478846,-239.168757710265,-227.051714457993,-239.69682700893,-239.818087748119,-236.98858161603,-226.117885874935,-243.094031681713,-225.807311653686
-168.961579915739,-164.330363359987,-160.243099327743,-162.893111470506,-158.63450060643,-148.055957409438,-146.40738892285,-145.655498691843,-159.637576623004,-152.186756633193,-144.416841600137,-149.320198454418,-161.11595670384,-147.919638639126,-133.56141905229,-143.935751431753,-128.529379889955,-119.349268099059,-144.113212714177,-126.313661882268,-132.896613043612,-77.9751733039579,-122.696454319749,-109.383853251054,-89.8056598023787,-116.965925499361,-69.1131545885919,-42.9695359801296,-92.0870817801104,-83.1020580844279,-77.3716915821749,4.91030670868505,-215.744055240347,-81.2862187518895,-107.560730131332,-120.212037508027,-102.61226803856,-230.636508768641,-104.883636267647,-200.202697802588,-57.7057015070425,-156.366576763026,-130.767932429444,-30.7553940124226,-191.457659349665,-227.316854533342,-203.74985315352,-217.803571717858,-215.540681709161,-204.426677311905,-218.903441997587,-196.957830172772,-216.075305937287,-203.576695372698,-200.980570784282,-199.326788370875,-200.73791699503,-201.242705518611,-191.096737796844,-194.570718390306,-199.816300146048,-196.732410514345,-195.556151625044,-190.182102637647
-109.935993024663,-110.501381245923,-97.2067239017817,-100.172032750154,-106.625279580041,-96.87423831146,-93.5454690326739,-97.9116998212565,-98.7362929670936,-105.891990228679,-98.9495661770918,-96.3229226126665,-107.045155546003,-105.546396496634,-79.9589790425275,-102.552449921653,-73.8339417310407,-78.665423756679,-108.412229209082,-92.8622004171131,-85.5958664364774,-40.3222453312949,-79.6576123072698,-61.6623817324141,-50.6232046814475,-87.0888240217282,-21.4664832947413,-12.9875206493778,-85.022722175172,-83.1430084718808,-85.6988600818581,18.8412247481106,-171.200398631601,-75.5925425523446,-109.617242824999,-90.1409416936855,-71.8131635067633,-178.25021168473,-128.116505163051,-193.38502194257,-31.0123937012485,-127.902305624963,-122.46419714799,-31.3463903502552,-150.46726046839,-187.482929474945,-180.109484181478,-172.748982132896,-183.153493983329,-167.25899692438,-167.573766883735,-159.027346946528,-150.175499509549,-156.001222802409,-156.781377067,-159.05039738373,-144.614573846165,-154.815596768861,-126.576158823111,-131.428127543553,-142.370606476204,-146.508683357485,-124.045111317583,-137.060286394058
-44.116349692729,-51.8699166093228,-34.5801807477494,-40.4643218567649,-46.4793415115566,-47.1524705342773,-36.6075920188541,-49.5485747014642,-41.766754912137,-50.2891614467604,-47.3075867187681,-42.0876744479683,-50.8348250455538,-57.980846336964,-25.5006251502258,-51.903729529261,-20.3165868571321,-37.0671806192868,-64.7755349523381,-47.3452191605248,-20.4396245431728,-9.56146305173629,-32.1786581405565,-8.13196037551767,-14.1450959814012,-49.6448163228436,7.02087844741428,35.0786874790285,-72.7577896948618,-72.1725245153875,-85.0162544989275,26.0057895364645,-144.18056022339,-44.1708479388855,-94.908925504109,-68.7658834409631,-77.5787653613221,-115.108993445485,-111.848960092252,-149.753522082018,-34.4391274181687,-82.6814624505689,-102.98164340177,-35.7966529089547,-83.6121605381799,-113.592606357438,-117.620710829209,-96.2727912082326,-112.76735479429,-102.612645849662,-90.2471265192557,-90.1144188716987,-66.372525553234,-84.9544055118332,-84.297147833899,-92.346913379865,-75.7761580585598,-83.3169856873423,-58.8100557627919,-62.9004805418805,-71.1193448274701,-80.4117447407404,-51.5772268155067,-68.0794707017645
-7.36647659998066,-18.7846382526088,-6.41108870089988,-11.8607331913507,-9.57043874399127,-23.5503950862419,-7.95867857171619,-17.3902040716839,-17.3240718858128,-12.8579415564872,-13.682906983996,-17.0029456935543,-22.9652085571605,-19.965614237599,5.52933168796415,-10.4690939864544,12.1245892323366,-1.73647440309198,-17.9938272492658,-5.21507859426161,40.6712924046365,12.4079169735997,11.2615608726951,40.6855687061003,23.7144753939136,-22.8607961834179,13.6457015900884,96.0821220070479,-50.2838100631183,-37.9127372396284,-69.9834007912267,28.754913900055,-119.420041553275,-16.5488931536783,-81.7706559553813,-43.920501955975,-106.928558297185,-81.742186906767,-75.600631624375,-92.7334769116704,-29.9273405202061,-63.3073183874815,-65.3145504251843,-36.2446013243841,-37.3327234578682,-41.4678159983201,-50.1999798132538,-28.981278054997,-42.2002142507928,-42.5108151060319,-30.1889128136814,-29.7093804929267,-11.8257644333781,-29.3767726957003,-24.6575377835782,-35.0965521653527,-28.4909967574242,-30.8180024926795,-19.9458703431857,-21.6016671101243,-22.0910550573159,-35.1527576970127,-14.7431904787697,-20.7077037954018
-1.4687278429021,-6.76020544458471,-5.25658335543812,-5.00017494319816,3.02605317553688,-18.0836700778007,-1.2377884726267,-2.08410723182503,-11.1975543973422,2.63438815789349,2.24450787350039,-12.883188244339,-12.0683865107985,5.94910523269808,23.0625141379267,18.9058876588724,38.0753987871796,31.6585569029557,25.4171254169419,38.6931882965696,75.0425261019359,41.1230378011796,50.7472553228766,71.1735141481573,76.1096006416741,-6.753779339021,33.2968987783517,151.481436952397,-15.737742267927,45.1950387729354,-37.1748201623015,27.2874462298051,-72.4452803502734,7.32390150371967,-70.5608021448171,-15.3000072197708,-126.785336194853,-62.895065766025,-29.4947749827574,-43.1380583024099,-6.33855043531877,-56.5112843763711,-13.3277384631239,-25.3159590022,-2.89133468270506,3.7857507479141,-4.99603587688046,10.7610856962215,4.15191309463261,-1.77514579470626,-0.399779183587909,1.04848532917398,4.62416230785477,-2.5717086237442,2.73107191964669,-4.23439630817244,-6.36931566613993,-5.7948331213916,-7.42344485607104,-5.22665799167318,1.99630191970433,-11.5739720206764,-5.77857922322367,0.963631601009396
0.0295788451368733,2.10672592266957,-5.20306434449903,-1.56387779128116,9.69754310907774,-13.4959222912555,5.65833104927435,4.11836015115829,-3.1074692104206,9.36140734184999,13.6918269883033,-9.32958078673037,-0.43836695622148,19.4992109553514,36.7460095074949,35.1877574493868,59.9320214108322,56.1231422583339,49.9313691896238,77.8597923789901,83.2125697116496,62.5281842571583,77.3650475945151,76.2664016065991,112.93319602111,4.45390480035356,58.4899301896839,150.78511368997,17.8132323000541,145.246773847403,3.32645517158044,2.74599790074101,-29.4670049355662,35.5631087927672,-69.7039879761257,0.311003897338836,-124.717898335485,-41.4617024056375,7.35482708769317,-14.508503478384,7.48690052838999,-38.7162498378944,23.1334407723659,-12.5021521496607,31.6583823333711,25.5722793745968,14.1905756683359,30.4531128577263,25.1945884314888,17.7570003324217,17.0688457188388,12.6850991496853,9.33013205218072,11.4330252011754,14.023715978719,11.101760988841,5.32995354049017,9.61946200515381,0.281876228283687,7.20958671659889,16.8293511743718,5.36347556071976,-1.0395643360611,12.8936907650186
-10.7474716695347,-11.1716533516677,-20.8376751551035,-17.723016750542,-6.11017628741829,-27.7077132533681,-6.37318504929726,-14.9332956703917,-13.2719241010074,-5.81694635433935,-0.143933587998152,-23.1252242338548,-12.2687310659516,-1.38290487190961,16.6338487535323,12.9532052071618,36.6724392577372,33.1054512258851,19.9012928220324,58.8399268689871,45.0275004367705,11.6425459365239,38.9797293557837,28.4159899722141,47.2122241523239,-31.2516750191395,10.1245841937897,17.9209702050222,6.36030926631857,149.173805254672,4.81034276892556,-89.4524015994994,-37.0610947941524,30.421896721851,-114.581548392239,-43.3674534018521,-131.743612324199,-41.7134794257111,-11.1246602072123,-43.8980440109813,-38.8602929936093,-40.6331576343612,-2.28822647255984,-36.7363079559207,29.2736774416538,15.9593728243822,-7.65054105340622,15.5930971022358,7.65062499365709,-1.06023237087586,11.8699560475214,-2.47097234647952,2.9361364561486,2.26218317511716,2.4152551086152,0.28591135004416,-7.54231740493455,-4.27408581213055,-11.2277510049275,1.8713572096545,4.52471924175445,-6.22546036931266,-12.5591667521091,-3.60025596504708
-50.0234245901257,-56.6888469559396,-61.0345250849533,-58.1392409996973,-54.0482013471508,-69.2970727413363,-49.9785709059802,-65.4065665204079,-51.5687236777995,-50.4732663523129,-51.3237454822351,-61.6938907520646,-56.8459020652085,-58.6254244451121,-44.3234606383779,-47.4621498608116,-40.3420144654961,-41.9290175617571,-62.0848735103684,-36.258440402374,-51.5978200552182,-116.392418869584,-81.5596328021585,-76.8139526081109,-130.097337951086,-140.040252185028,-126.444653738474,-244.724938004132,-65.3776861548566,7.00761276764122,-60.0714257014858,-260.268695346682,-61.4026818613493,-28.2105668315736,-201.650448379232,-158.634370073257,-139.297392043929,-54.4197055948533,-88.2873176332186,-133.177389072028,-143.509957620752,-73.2734962306615,-82.5406844495697,-96.653435774927,-13.753445396938,-24.8386709431212,-65.3728914994609,-35.2140566591456,-43.4047661224034,-53.874709696394,-27.5988410186937,-46.6138042457477,-24.248524305322,-41.1675685808836,-40.5301509617194,-43.8783521681372,-49.2731869145516,-57.836407286942,-53.1812424235526,-37.0652672563548,-43.0354188322696,-53.9814797910806,-49.3060992321333,-53.6932913633762
-86.6159625400613,-92.3505448568006,-87.5828914209387,-85.1159972897966,-90.5108369602686,-100.329083744933,-85.0040234342178,-108.416107785215,-81.2315430159872,-88.2365674782209,-93.9116950801617,-86.9662936717075,-90.504054424827,-105.130774995028,-95.710836120262,-96.5186253136675,-108.118593167731,-110.73616622576,-131.939370470842,-136.433010937214,-149.171669005697,-217.561206147482,-206.694197125344,-178.395510327574,-292.969532649686,-257.568042984108,-242.910639843695,-518.023244962841,-166.108851813723,-182.231724323168,-172.284338465368,-467.139261127125,-25.8795149936488,-90.3169321643635,-276.99324124262,-287.909201057416,-88.2619231176358,-10.7581858692876,-168.280747685841,-214.202730273412,-238.206083894761,-79.9568312803143,-154.294913794592,-129.048444653084,-33.9226329902757,-60.5639869944987,-108.465807397663,-76.6963708479556,-82.8733688860942,-93.7246689931513,-68.6067412837847,-83.3588599020066,-54.4561703530923,-84.9345415386858,-79.0416348632502,-82.7583232462263,-81.149656897268,-103.153650412374,-85.6835048733155,-76.4231124513354,-81.544316411293,-91.0638124453943,-80.3718552834108,-88.1554466029415
-68.8631360366581,-68.2152029817986,-64.2384622300905,-62.4543604654773,-67.2745939391264,-78.8384703135325,-66.5156040651752,-95.0736773854868,-61.0321278358874,-72.343707773961,-73.1924009851258,-63.4944566374416,-69.7388478980631,-91.734234912456,-89.0100767219236,-86.7335498469383,-104.941403699126,-113.199105626212,-129.021083678402,-155.889233589056,-163.538368040569,-202.533214592444,-240.462487394504,-198.505350529533,-329.74112350217,-282.210148034578,-242.40206859298,-660.004072759635,-256.292724012851,-292.108362270354,-308.150171511236,-650.975600528487,79.289147752407,-101.778657658267,-307.128902971504,-352.426754419958,13.4911353802801,136.886268837414,-201.191768109376,-225.037628055569,-256.456433615656,-4.07778862530723,-165.950524245805,-81.4084969430489,19.5013120997433,-46.0399249738962,-86.4978752805224,-59.482887388043,-63.8852561867615,-70.758104386426,-58.2095273517474,-67.4315005666716,-48.6747053725777,-74.8740822552332,-61.7674325714326,-64.0844676684084,-61.2871432565163,-85.7193660949256,-62.6400584986669,-62.4472157827083,-61.2305014821412,-70.0772362002893,-63.9233880867906,-59.9776442559762
-3.23064627738298,1.08385752239224,-6.99484605840628,-5.52714197717211,-1.13166878193984,-18.5453960904958,-8.74054300243269,-35.9421086879676,-3.57000954046194,-10.9584059903166,-7.07701556441463,-11.3988525542496,-10.3022502376604,-31.2340993792046,-37.7332577851871,-30.6237451075376,-47.9196161326011,-57.8686426951406,-67.9671805736631,-95.0808864345148,-98.7461672060557,-105.329331930975,-178.833551562653,-137.409473267403,-263.205943901704,-198.309497263455,-159.426700863796,-627.911677560252,-316.979207955825,-329.934689399864,-473.422327992024,-752.924187076022,199.590164204087,-91.2176569159251,-324.046591609697,-331.683717728292,61.0249429030595,333.267417082759,-198.458546496434,-188.320242728107,-204.013803166822,131.432638631334,-133.050395830403,19.227551466778,119.590457487147,16.5185269231002,-12.85084106379,8.5470220254465,4.78439695315775,4.57935662205419,6.0915115567014,-2.42829560598101,3.17668220903795,-8.51041990581452,6.48672780363307,4.25990082965238,-1.14171981616254,-17.0244844576647,0.0378472408871993,0.876179423211245,4.89549267814611,-6.57893922844561,-3.13386211980155,9.36252223960683
48.2741320805563,49.3299165232286,37.6117517443421,35.7384826354008,46.2249265467281,25.6991441052826,33.956236142372,9.35387094190544,37.372609731311,38.1110979281539,38.9472364277179,19.97901724434,31.8231174475799,19.7530908976685,5.20574010242217,15.7168485794988,-2.15492034410837,-7.32141987038793,-16.6279600543384,-30.7660518836128,-40.7025330295552,-22.2517513721868,-99.2988715627618,-73.0710439853256,-174.762314586787,-82.7732999725197,-91.9157228629617,-498.292406689078,-327.109810085907,-384.464601055433,-655.176438731881,-675.45569045569,313.849556815789,-131.176542391737,-364.050198537458,-256.708054330129,29.7109697070698,464.30236081575,-207.533118081457,-156.236709802476,-145.519869815712,260.909813102149,-113.136110636263,104.64114193878,204.649453540687,73.9818314540786,49.2743394454123,69.2063403522545,64.6260118985372,66.9948901481588,66.1102467897975,57.79386839964,59.0881343580353,56.7293260584919,64.0340310946773,59.0102223188202,46.7455810131453,40.3088685558629,48.8317191287583,54.4696569250903,57.9161643060767,43.6148656741148,51.6519597200812,59.066874956567
66.5137523439625,61.275755262052,58.643930648058,51.602198443407,61.9501660551846,42.3002874054463,50.4695284383168,29.8760194645325,49.8939978947792,56.1258593269693,54.6180703998909,27.2745429751804,43.1438590888853,45.7716798229716,27.9467092210229,38.4376441388191,15.3359155137009,18.8803641648262,6.41888582924972,-1.0878033182293,-20.4277802369151,12.235139664672,-43.8990271075726,-39.1674663688858,-95.540342570503,16.3138303290636,-62.0853568627204,-358.306838049659,-223.46801548322,-422.832137317367,-736.267206204483,-356.256582010325,445.125988385885,-207.281561696344,-374.545131444679,-112.901305687715,62.3983483484438,486.84063288347,-220.311061768912,-103.600006712085,-95.3623154821363,378.076210159399,-108.314283189285,178.327151248042,266.289455014138,100.665267226503,80.1886895770588,97.8294869946958,92.0726874743957,92.9658944159164,93.849304644024,88.4747513610576,91.3211276160474,91.8590424519854,85.860083969882,79.7636993141738,71.7147410895032,65.0482423632185,74.3788253876705,80.0408565458211,82.3163280981952,68.6417809465694,79.2278258249237,81.2324877376895
87.7899084547556,80.8604931527648,81.9618539081807,74.7424019197843,84.2501981760951,66.4825734273228,73.1210729398374,62.521051354589,69.552892362404,75.0752500188157,77.5117480715403,44.122925596907,58.1911717501381,72.6814362612118,58.9514393465236,66.9291534398969,33.3901804073623,50.6437538810645,35.0848251163958,19.4188093126227,-0.0766706877938121,23.0210410264043,1.8387808655016,-1.69081842970118,-42.8706387905974,94.0674948056803,-39.4292547448719,-253.446398269753,-6.37322759517641,-345.838807125045,-593.268120866107,57.8558688471022,556.824577073318,-242.214101177077,-287.880926754572,97.0957528362279,247.637489887208,434.449899421828,-190.08279251907,2.49633507510252,10.4707070112259,492.983688741991,-68.9495717218415,299.377701576432,322.78133966471,121.034267301165,109.629516493273,120.863518973247,113.949965991806,115.681222119699,118.192293524591,113.156871584627,117.982372692477,119.333666802447,103.871746230832,101.729416575993,106.362573073255,89.0206257880339,103.855844263231,108.108116880039,110.338776623233,96.8329530101627,105.101942937405,110.587378537853
122.396873837552,118.978461427881,115.255251880616,111.062885177972,120.940603402821,106.184426264667,107.726943558313,105.999795718289,106.374511555062,104.776161241363,113.457393172197,75.4214777910436,87.6827994751865,105.837523868602,97.6331092276254,100.437960972691,57.2049631135798,86.5676229970205,71.8545926971976,40.1916651677018,27.782015629732,20.4721417631637,33.1237666864309,44.9257500820088,-63.3044273239447,127.175359878386,-40.7868787979373,-206.931037484986,168.78915150609,-225.878556580274,-287.775974279095,333.576231351404,575.345743266734,-235.809556797123,-147.383286291619,240.711541833182,470.926021035376,340.119914483076,-139.428101951433,90.7441575209725,196.607537443565,547.587329388114,6.62910188293859,452.015688151815,346.844605846255,147.27316983498,140.49516454617,148.832119202823,141.308317964564,143.630574082101,151.292581300168,139.776371847678,148.24439439099,147.369997210956,132.873098499827,134.91474272588,148.929155106028,122.592387106601,140.67223746823,144.390006720187,148.581624354264,129.539674204233,138.837019847259,145.765452379148
153.62233513922,154.387752789045,149.576648447296,145.686103192837,155.056155048816,146.242370135239,143.022614260184,138.056402014179,145.00856344998,136.092707574135,150.303510705348,109.411012181117,121.931542317529,140.205161733717,125.182548641752,125.953365932096,82.7277798732811,109.97875262943,104.150368435378,56.7788518016827,51.8490878063632,15.4749635489266,45.2705939924483,83.2424180178658,-134.841385169338,121.614203463959,-79.8126280253458,-168.075619814694,191.473741904842,-187.833818211308,10.0296536936862,439.948956597275,516.668767729136,-222.406827539716,-16.9511874520363,240.404121337871,590.427580306671,244.724280653307,-114.430469965212,105.681038545651,387.180508249738,505.975298070587,81.985216759597,543.652330665596,316.1695000451,171.242724570055,162.621308668509,173.458595374268,166.660043529074,165.548749841416,179.118560181312,161.586015660337,174.710193692304,169.278038208244,162.643682087019,163.958204264032,176.421067225278,154.295430668646,173.138959127377,176.267194978426,182.446885737923,158.116966926408,170.971558757115,171.448091885704
186.888765766705,191.30784984247,188.662192705382,185.348778063526,192.177044209839,187.140058410783,184.633371814067,168.38355899587,184.870373051951,176.860505189793,194.057533451274,150.952286676079,167.571897275274,182.338531972411,148.459545716069,159.812551141106,125.57561211335,137.222591976069,147.802714940779,91.7718925384037,88.4897009690994,47.9906731426158,72.9637152516984,123.328466137514,-136.711824278898,125.592695600965,-91.1469897923837,-38.4679930879966,162.549267353517,-139.08126371623,222.775485110351,496.43364482394,451.050171738926,-157.124645323817,139.859211689799,221.964104581084,597.576914351021,195.155013192956,-65.8753916157114,131.251115073886,497.080862092931,420.831702871565,153.349636208495,522.02080961447,267.815360557537,200.129310760849,197.377019998782,205.571945690018,199.255247587521,199.244823761231,206.611364261973,195.694497332763,206.559041049189,199.371589375927,196.714004322646,196.88590278404,199.133271341311,192.735917227647,202.921527361333,209.774795703062,216.440433465585,197.609117462677,206.078936766502,203.038104435332
226.056891795255,234.602683401595,229.64521494835,226.926077480766,233.20246575336,221.847778405287,223.221175600725,200.610543670034,220.628459128565,220.980988342248,237.330148205847,191.29096586281,215.067248510615,220.78391590068,170.518441497411,198.428248363768,176.101141247085,170.99225691062,199.166572135715,147.855854654426,132.748998235389,123.788422058415,117.094325341499,160.998487605774,-17.017326242645,140.156980646949,-18.5796603383942,161.840841911087,194.938743781709,52.0488353903565,346.097314958329,547.086072181356,396.591224964998,-7.58101881801769,342.706667801082,284.082370189748,554.636917279827,183.281852499091,63.7004670546373,242.136068911963,526.405634024229,332.726591826754,225.482699888857,417.629139427064,229.758198628353,241.535047323592,252.086968927211,249.670792501426,245.157655505562,252.527402917435,243.670595591112,248.594265711532,247.1197564437,243.821860513431,237.952975667559,242.384510133986,232.364647606853,240.812757075686,231.579812462016,245.246664901306,252.006180860863,246.367875184454,243.268255830802,245.085543952309
239.583360645011,253.542368573493,244.139986214792,235.890323289173,248.369928723216,223.862378652938,226.420176601572,201.927629387509,224.425832350632,234.094891094953,245.727229268753,196.81521192471,226.072317131987,224.960640630722,165.626229179601,199.40074492865,191.943649797622,173.811533171225,217.677982738097,179.284168151667,140.976150725357,189.019783710102,119.161218108498,162.058632602616,121.273718654685,131.929654605664,90.2634904382731,292.719846497721,218.160918181532,261.694459816199,362.546855600516,558.044185816251,343.257869835975,144.55875357002,476.566442173837,348.708776195687,499.567664085545,169.194917909403,195.969893606447,357.626518936333,529.241988124387,232.448982467543,268.719849484835,290.374178286684,183.057864661504,273.442890549704,284.460537042266,275.975210523582,276.922923016959,284.804788266282,269.860625374711,281.723516137198,269.91676068099,272.191785438895,263.073531267631,271.933535738767,258.288402082254,267.101251857656,246.188815464488,260.174470206339,267.75543630448,268.028031633992,259.495302276692,265.718238286256
206.0799977733,223.875952490879,213.98285125672,199.859019505829,217.990516058326,186.120874772999,187.716508762369,155.944607865668,185.317390787591,201.334564762724,204.964109101427,156.616758905682,186.408015597319,186.813674022825,122.653210666052,151.179038822005,159.846209482489,129.334049338787,184.854473840487,155.299689753231,97.7176468411706,207.59262431756,58.9450303702431,119.921885967857,170.727783318676,98.7901503536878,154.484985044608,290.444924331935,128.979976529356,290.045645720217,281.421712876417,532.593658069543,300.211325696072,215.577407358975,431.569360751422,348.372994701767,442.854102881846,153.775558485577,219.283974902069,364.329461441788,527.015844814288,139.660794208655,256.006583423965,179.300367202106,130.763847117087,266.4515763106,260.441449508039,259.613465094891,260.351854747862,261.651630223601,259.498411279182,260.587293669169,256.907574477477,258.727039419857,246.707403133657,253.017995377447,253.654848873578,245.512249554885,235.050585015152,242.136491068557,248.623194757359,242.665461836116,240.846529057549,244.131691239314
155.700504240791,169.135183122738,162.199151690499,150.395720149363,162.84980813884,135.984041672324,137.236535449976,96.2068565799925,131.253701419613,146.76266952645,145.047678829496,100.824322478876,123.331038670035,129.899672559886,66.9681912008051,89.0288597085875,106.021595132875,63.4530915866626,121.552984063058,90.8472536318877,29.7988093621751,187.620511530184,-16.6955320354924,59.5585541605978,140.494150746411,28.720876669944,159.777837975478,223.924141158711,-10.4588698557541,166.50272628634,172.923666618435,509.188060376621,263.605807462197,216.082588983106,265.112106322616,335.371977627869,381.816203330181,151.629483416544,152.737676918689,271.487416072323,491.960007636676,89.9550052897172,205.925175560513,91.7399411848599,102.857356633629,224.181764378669,200.716966569634,215.46514322569,203.007015066126,203.965769785623,221.501166714777,202.411145925538,224.408412874156,217.771184818528,196.827549646944,196.443068621418,221.92127073105,193.506976431728,206.760424739951,206.332865195901,206.048948375645,191.16433439368,200.874107412786,199.747106298846
125.120658581363,128.184624371294,123.476349258144,116.092591435865,117.272228698061,101.3573773104,100.279700418767,59.0452840630597,91.8473264806157,97.6340110618766,99.5885699850055,61.6148567976517,68.8626146700263,78.8161861829339,19.4269985376984,37.3084550351029,50.5593499664816,-2.71852874163967,52.5146705109441,8.84282482823735,-44.9988617457423,132.15504247821,-75.8200098267774,-10.4256009503594,89.0021874471151,-97.3402769652019,132.033258130801,175.457814000552,-56.8487681816252,71.8186127913159,131.73731369214,488.8984505925,210.716125968697,183.879204456677,135.901494887355,358.478367825756,299.239438485501,133.761845123037,91.9931611156867,176.717721329161,399.097663046223,60.8375578422608,164.605630396059,18.9500020531467,82.4636642133384,177.562390663309,146.699715379984,174.334546328842,149.013171472419,153.278788783412,183.328024481864,149.204230510453,194.086414034078,177.332615500376,148.193696197883,143.365896465981,183.079144073828,149.236196411827,180.569143449342,171.3807842131,163.631483463019,143.862348011017,162.527984451687,162.702273912444
109.837805573025,106.344259830986,102.328575760038,94.9243519803451,89.7565738120178,81.8825983346078,76.3082918340446,41.5564776275782,67.1565804475908,58.9996542849721,68.3551125639408,40.3936253520696,33.1418045136021,39.7320587140159,-19.9002873500869,-7.93033147052475,-2.41205746823703,-64.3675671674888,-9.13308561889763,-73.950503511375,-119.290033116265,43.3992420657835,-124.874835969995,-90.6231824425532,46.2660268475684,-211.29711249529,85.9832586328873,175.647245082005,18.0170072378633,92.999081793918,203.537562962836,440.550039662886,142.647335787711,136.532770101181,134.811626948004,388.992958184851,188.979099573416,70.2192155172745,83.277317772126,159.161824883048,269.76308384636,9.59826395540938,163.753158677871,-39.0243990200197,29.9602503412456,146.592096228057,113.881487738583,148.865767378862,121.765447257688,120.45066689018,155.438787495661,118.017844496738,167.693125738627,146.844411279204,121.30724308241,114.74096607753,151.444882155976,125.889848074122,161.506953269844,141.669391451192,133.200531921417,112.48062941733,138.002621375124,138.802774187719
88.4275299704929,80.4943485778496,80.764705534001,71.2296319606907,61.2129948341125,60.3948330326153,53.5789013200042,21.9705910670986,41.576480874204,23.7068329157286,33.9633752678626,17.5703955919249,5.80806095926136,6.66555416697241,-49.2773871449588,-50.3284715236451,-44.6566853952672,-111.837441852631,-55.7874152699236,-135.554159495756,-167.676921775036,-42.5968396306689,-157.671696234882,-156.639680389739,22.860002141667,-211.484901099104,44.3716614677991,209.886069514375,115.354444852133,169.425881920802,328.129031347968,358.503834537298,73.9028139587548,98.6669820554837,214.162929532046,385.392693526743,75.4280686947099,-18.5512781308925,106.230414016951,220.95526325912,159.330488649513,-64.0563106524866,194.321262281392,-72.0939027421224,-45.0303039627097,122.234983060809,87.5493840652359,127.988329713393,98.6121651456002,88.0414867428409,128.635414573274,92.002503627785,135.561430180928,116.653616997377,98.8744541795517,91.9060743458737,123.97732152407,101.435789930392,136.57634458433,112.807415243322,104.596640358203,85.6842011247682,118.888898592084,110.157751399757
62.0989665071861,44.3512511625038,56.5338105745323,41.056323815285,25.9747984139737,33.7901069086399,28.8587868360412,-2.97208938501551,12.1954641823349,-6.25441610590337,-2.39441175260562,-12.4640326181559,-18.5306218283058,-21.4978508773027,-65.4160510234189,-77.4023577214767,-65.2165212537721,-132.992823687672,-79.8091161291268,-154.42540834365,-168.601734278749,-83.0673323893759,-149.171645169558,-181.078246726726,27.1351170855482,-113.780409694885,28.4403282890869,245.418992345122,152.561999916529,219.719538158181,409.519147519009,268.083749488586,3.01009821277392,87.9191894526081,274.016862038025,352.181268138559,-10.8700029945652,-101.666260876739,122.268129969256,298.54838768202,105.439024250233,-140.325447142992,220.285601390212,-77.6934271164839,-111.70921238733,91.2867898066847,54.8556858418894,98.7027883972832,60.5202573323918,50.6760885691004,97.5402772028091,57.9772393724992,100.220075498923,79.190829942938,62.9246738434219,60.1638101531746,92.5441328669488,62.8138818013254,101.649871180313,82.5454796377486,70.3792750964403,51.8591842529107,93.2398631420569,70.1884169101202
53.6407458297134,29.2615816311227,50.8864376225262,26.6721733776085,14.7924659104767,23.3269434570897,20.0534481904767,-7.6362502576185,1.81223849532167,-10.2982179253513,-11.7086122480492,-23.3802945667028,-20.1609822812682,-26.6822846875815,-61.9297478277955,-67.4746817699746,-58.7154081718524,-116.294171071454,-67.182461095518,-119.446877035962,-122.169812664208,-66.4597498149546,-86.5483425680601,-156.408446520956,71.3177217484932,-8.97919254743821,28.371219059037,282.296017198434,147.808022555579,252.702901480895,437.86878550707,198.013968178851,-56.6414346888187,87.8396120995205,294.276700100204,328.718949507634,-54.9418417396831,-164.158229746046,134.31493289773,345.649724016663,96.5203107468154,-193.020987025331,227.698388041408,-57.8038228245564,-154.30406067969,73.829291201557,37.6963501947883,77.4233859513422,39.4027658283438,36.9978574985156,83.0328402036831,40.9309352701664,87.4377257638135,57.3006448911266,42.9748775366903,46.8556095423963,75.1628440864052,44.2866738267925,85.7582512154908,66.4292730659471,55.7890983347234,34.7539976818962,79.1831972544638,49.6663675257336
79.0803342413961,62.5611841793553,78.4659326264961,55.4858833213977,50.9881003889728,48.87016088049,49.2946588490048,34.3498852292737,34.369381503697,28.9716092038785,29.1483152368181,9.22908897714411,18.8103630622333,12.6010476715707,-21.9793960228271,-10.8175763448047,-23.2717021161864,-52.8748317529199,-7.67459553752926,-38.7437865044267,-31.2134314268179,-4.67048135361238,19.9726266234793,-74.7775490205314,164.396989930985,80.6443253597524,49.2232794293084,343.170540491924,165.350612022971,323.473789212131,473.231150826193,163.239656382992,-64.9049048862073,89.8158000879885,323.043709308473,339.672178377252,-61.4414907027334,-183.673866440065,185.378310111163,381.258212560587,95.8410912200236,-188.543163736473,234.728409966858,-12.4592678839778,-150.435955177829,105.157477671542,71.898507975844,99.8530213122856,77.8646506817502,78.0639538953676,113.637693833211,74.9277027452532,120.768124503102,87.550394018482,81.3006862985015,84.2785324362256,103.093142431282,84.7964827385625,119.877217606769,91.0102513266946,89.1776363796426,73.9309241459982,107.586375349637,83.6742560598057
121.725492739132,118.855493873203,121.181947598039,112.586077736328,106.144493407399,95.6337339196635,102.70181184125,105.332192197706,91.3540640440782,90.6903291189108,93.545746835102,63.6291761641535,77.363199393044,79.1122412393872,47.6162920440039,68.6793222090059,31.3539140393519,37.7926814360946,76.6402044527344,53.2833193906105,83.8966228895188,74.0321466180663,133.50269557917,56.1909544156151,276.496901013873,174.64855909027,117.692331379662,411.392862854469,216.977495540631,426.134354365684,533.251890768102,142.310931002379,-11.7039488314905,118.868950187559,366.578547120385,356.656191152528,-49.7878484283049,-154.897245590353,271.54823649843,424.33259731399,84.0096183472432,-132.607494972163,244.948362868942,44.8007973428114,-93.7146927849499,169.522194241256,142.628370327383,158.832051254296,151.937179513417,150.765318784187,171.44130677047,140.424853612462,178.01390044088,152.971104245433,153.653793314268,150.498029519076,160.733039971651,157.319382334719,177.352787925946,145.916376881739,147.540137545509,150.304065769896,161.539896152542,149.357391320314
138.516316363705,141.466971789316,137.989447606018,141.917647281588,129.490934053712,121.104729064767,131.862340726988,146.79617786146,122.469399377849,124.366130214853,122.02554396002,93.1403959653885,111.592206779924,119.068109257212,98.4115420284542,122.982185340502,74.616920942801,107.160580509644,136.102554293008,111.798002567644,166.529020981207,129.187216852476,201.845829407974,177.479139681175,340.800901957801,240.821635814292,206.670917291788,441.663548683928,245.89712099982,490.92714952474,559.797919913291,69.4330962135981,61.6233037671363,178.855547643745,387.795233006712,318.575059485809,-28.6255834957844,-119.213880372184,326.36775233489,443.664162630256,61.4321606510495,-80.3675779625085,235.275660404494,82.1066581088837,-32.2422286209429,194.628975334577,177.358686336394,186.350165707277,180.391862229914,181.658971005126,190.179427995425,168.079753453237,195.231676360701,177.644077094311,178.321469313618,177.745633251979,181.675714087438,184.032148889196,190.797247302476,170.860792129267,168.637017822623,181.299071588637,178.32192693054,172.611157135005
104.731110699686,104.317218559045,107.326004431329,110.63163987031,101.654330127732,99.9519458112861,106.787402003674,124.537729136307,104.593849226108,104.118173387558,90.1554775116827,80.6818881184487,101.094004404983,102.051286427892,95.7656904948107,123.452398290979,78.861395714034,125.301201972003,140.54051119311,115.522243215269,176.920214411683,145.057720352669,198.159138294461,226.293564954694,321.905018552335,232.911049691374,253.856382922338,412.139005588318,195.140229111431,455.161698732738,482.473002007001,-112.652086991787,115.694327713862,227.209028195248,371.713314320758,199.34455383508,15.1121620841596,-112.235130576196,316.381314558597,411.667575112895,29.2950213030463,-71.0962562244823,197.996284634016,73.6619885246142,-17.1663173885261,135.85649723486,130.150472460985,131.922131499885,123.076462723597,130.205776409317,130.795656957868,118.156333110736,135.164567555423,118.20058743466,116.074004780834,127.962069510941,127.346874784594,127.689499872381,133.128067283694,123.384668965305,119.465635796642,123.148256059516,125.963476105396,116.049535583575
42.8798679017355,35.9325680841129,50.8834901293978,46.7485647415107,43.328249600099,48.3444366646879,50.2168582402274,66.4546195961719,61.350325150469,55.2495312319507,33.4353610508129,47.7121169024874,64.2065625451913,52.2421035353133,62.2059503808486,88.6520787460911,56.2648433258832,107.168710518391,106.204642885284,86.4113839422541,141.630083235807,146.903256089533,146.419949684488,211.540097219915,253.625342774002,169.850976359246,251.338408256038,335.84292704362,74.597523864979,323.984374476236,279.377862270891,-352.174704048727,150.409122432159,232.578176953219,318.199623990241,46.5498325275094,99.2212227370498,-110.402060079311,277.259076108455,351.756808396352,-10.7099232685144,-85.6352846905234,155.315766799387,27.2145291446257,-29.5248138321993,33.6850272353277,41.9172651226322,30.3545271367196,28.5427572702881,39.6617531096204,31.5570119415966,29.9524627668193,35.1380051760696,18.6634459304846,19.8489325994057,38.5469246022119,36.3816794436817,35.1809439260905,43.6592174030514,33.309454393314,33.6690638808246,29.054626533889,39.5636338001531,25.5353785969883
-12.4471708424508,-21.1178604917475,0.426957772238513,-6.48477418848676,-14.3767010380854,-2.96738580442303,2.73697929755179,15.5531501067148,23.0276054555081,12.3265976572075,-6.83326585704975,18.1244354941914,27.331103594045,8.68805909568881,36.3334285349849,55.9361109255952,41.5557677150746,83.1129800741336,69.8267017335915,66.1379140394288,111.651405903889,158.207841733353,93.7865226296372,186.205351041891,190.314130713178,115.077153501431,230.235564780803,243.432138398959,-33.3233712803681,171.711642911924,7.40536480775244,-481.780569332707,171.011526481895,207.855961516982,221.626651940861,-69.0483187854588,225.413652676069,-75.65397710068,245.899640283875,299.362244358641,-55.8077594955502,-80.3786476407498,119.265973717459,-21.7848113273045,-15.6645678242843,-42.2657823996676,-18.1633852707552,-46.0776223190824,-37.5692082458853,-24.8042313389585,-44.5163383141722,-34.2746857375537,-42.3289224016185,-55.2906770529556,-41.0326360658601,-31.2975888240165,-30.8154511947376,-30.6673298899088,-27.6191374579308,-41.2587069418489,-33.4113638354862,-32.5093839654208,-31.7387784982952,-39.1578694012055
-56.5368210824689,-58.9400915826641,-40.4454588612923,-44.3013474437144,-56.4348225033099,-42.525100241904,-29.7676784029735,-20.4630335086779,-8.52845771112923,-21.9504810750045,-31.2603526895758,-9.33534903664986,-2.87647556336941,-17.6591352620442,21.2670267648969,38.3486698278659,39.1488712434097,68.3662147828825,52.8001936284358,73.765682407481,108.971667991799,171.385252103613,71.4321539522995,177.307682207226,153.198205466349,107.440330833746,199.460184931485,158.663437039276,-43.1570977585353,66.324976793945,-181.116216565857,-396.351999940392,146.847723172911,173.347096763771,105.892205613914,-130.202374440066,344.972579991234,-10.4338634847232,216.948212376581,255.788051929017,-97.8723896610194,-47.7734758817577,69.5808064222807,-49.635815757081,28.9367780674424,-75.6912901165829,-40.0217850562888,-75.8666271887775,-67.0148476109588,-53.8898519072225,-83.5092859941702,-65.8510514647494,-85.7850540874863,-91.6420250403784,-65.1470558570535,-67.717043396383,-64.6063636123583,-62.4478972723772,-71.7285270664871,-83.391534347782,-69.3187853149208,-60.1672472536316,-76.7325156608585,-74.7560165548527
-90.7408382271032,-83.8793444412075,-75.6323882442033,-72.6150028705427,-76.8483632204379,-69.8791028814017,-56.5704180211042,-45.3254922120873,-37.7365402963249,-48.16981561273,-47.5119119145978,-38.2044039646357,-21.9099817547595,-27.1162775490296,5.99152346713134,34.5971217014503,32.4471613202723,73.2495438606279,66.0665870046162,109.295299601542,143.005499306565,180.192657188953,95.3355459757468,195.798900562753,139.880399455906,152.537304375423,172.677393849103,97.6415214315505,55.5994651537963,34.8199385218121,-139.460504139204,-184.210894459297,45.2679772760548,131.362026996921,43.4672680024835,-167.057963108928,376.242090262314,77.5880905818981,182.078137847192,203.890193131279,-107.313373019991,-18.6455146112139,0.591088941788603,-58.9491226249597,78.6680380837192,-87.6595676257511,-52.0154584192808,-82.3521900421487,-79.1746581644704,-67.5557090300299,-102.00220895354,-82.5885317442737,-113.247111845796,-105.900491595154,-81.2811713606361,-80.5183385631261,-85.1435559293012,-77.2281757048083,-100.277996602136,-105.646642398284,-88.6780522678672,-75.4734054890209,-101.8107067805,-95.1839048331426
-97.7273347694971,-84.1394012837833,-89.7401438020326,-74.6714308856875,-69.2317291650553,-79.3024662590321,-64.8477159136994,-45.6563661607864,-48.6351494354666,-47.8690487054603,-37.4495967451159,-50.2990853841992,-16.0814724708156,-11.5270581143934,-0.840915158938758,48.4584814014723,25.0562024139241,106.43407256778,117.827378382849,172.411476877101,217.743367160839,196.182613603217,164.758412808112,250.205651780253,140.871307649651,240.891644976289,184.110622466228,78.1139783694794,192.327688797504,73.8220707620905,63.4599151387767,-10.6150600287688,-114.340339675889,81.2905881398532,77.6756817594121,-206.508277415347,296.492859567369,196.774369933137,154.837874809468,119.297769979646,-58.20218096293,-10.8735506307378,-50.8885297227656,-58.1224329600932,132.425146921796,-85.4863577822467,-53.9367103355226,-78.2438765052224,-71.7507798703495,-62.8139560382768,-100.271631587146,-78.1905469293763,-117.178533486817,-98.3681491006023,-84.427809571348,-68.062064409334,-92.1965824462783,-73.0186935461049,-110.849664678934,-108.86349952611,-88.7754272843742,-71.842189710489,-104.09235478188,-89.7476119880775
-75.4432903134412,-59.0109402357716,-75.9859439747238,-49.5481151072579,-43.9565101786758,-72.9171398508773,-49.2547751547987,-20.6266266540092,-34.2187240080054,-22.2639032586224,0.975831217085749,-35.7045903719441,10.7423234334508,21.7333027101233,9.73037168474905,66.8446910455721,22.0050628475078,146.032031519481,184.236811283232,238.445504528106,294.393929173242,208.42669854405,241.501577200017,307.859401753976,137.241897183245,331.932750357714,214.046203514895,94.2730976574316,279.063017347443,126.614733103143,187.716467053611,46.9821522607972,-285.691833149669,43.8871704692023,143.759341805353,-248.787711390049,139.204308770576,321.312559306593,137.14418550355,-32.7149540461663,15.3817300549878,-12.7949336026845,-59.159136091439,-57.0493624721023,180.012651447347,-70.8122040330365,-32.1575576879047,-62.8837328328672,-44.0723341780435,-37.2677203506805,-79.2084843617819,-50.4232571291926,-92.7786418003679,-72.47733451443,-64.068822532335,-39.4146837122102,-79.744819836211,-49.769182544445,-102.208483005625,-91.1906537894394,-67.6505681448748,-47.7749174002286,-88.8045034532764,-60.8633854651137
-52.0990810756128,-36.8077118346847,-56.6593393459338,-29.2786121793217,-26.2364444974412,-65.8621480508513,-34.1675058358894,0.327188137835701,-16.1352792411947,-1.63974518855572,29.655184309289,-11.7723666776594,34.2378157735781,46.0994219016368,34.8255642703262,63.683680601452,3.85672524276466,152.388066501308,206.611207663131,257.286369676042,315.112264600024,188.947799451009,286.226050758195,312.667186376121,128.399689525139,369.617138473078,193.291869166811,114.446864140446,274.722349826689,130.881268311447,136.30431594995,4.26322471569676,-453.283396541156,51.9527897256358,137.918688363502,-281.235827113146,-104.045850190358,391.611100944541,110.363096086445,-250.196797302137,27.4779936594979,-22.2740135189082,-56.1559773683882,-74.3580185978408,179.960491906091,-55.2650062150368,-6.80574378176468,-44.654277433869,-22.4470292181259,-15.5989311878491,-59.5121180130871,-25.1018307670308,-69.8599246884466,-50.2217458381949,-41.540871163237,-22.602164983538,-62.5296623959462,-28.2227860820177,-89.2014793319777,-68.0529876883523,-48.4951401384082,-27.0433392285146,-75.7957544465454,-38.9362670508531
-48.1971702962755,-37.6589984099046,-52.1959400724646,-32.4552098020288,-28.0766727571713,-67.1630216668969,-35.5619378147379,-3.54908997746549,-11.383350607321,-3.05012647322294,20.3141026450088,5.20767005678206,38.949343177101,46.4864108788138,69.6678180530209,39.7756261207502,-33.9340125542921,125.717816266405,153.104367838635,211.664909028671,282.722787712884,146.72657735865,317.352928708092,256.042968758707,142.943657611991,343.894489213423,122.364620688509,121.239888896878,190.658860977489,102.867889166028,14.1192749347148,-90.4211915603908,-602.001648270966,101.346251436079,34.9526813964631,-317.215016491756,-458.01633381292,372.890276200739,61.2536531570039,-474.757697361499,-77.7758847154668,-58.4643490617682,-102.965701565138,-124.69663044507,116.701512819761,-52.7449322808199,-14.021028863512,-43.7746753668528,-31.5165854292086,-23.7647094954311,-60.2054971590095,-28.3947374576959,-74.0654584364231,-52.9924712702585,-43.5963974910716,-33.9890741820064,-60.589164767886,-30.5495864023262,-86.1396595954059,-61.5412602643729,-53.9826383887213,-31.735422633857,-76.8812638974435,-45.5651157670956
-57.0319629758902,-51.1542630135339,-57.4351613705727,-45.9072466975949,-42.9445115143656,-71.2405179922861,-41.5070791369812,-19.6266325756981,-12.9524030998433,-15.9788533974809,-9.17337197861796,15.3123242721416,27.6543641648439,27.5699153783958,92.7889077488063,22.5130234635338,-49.8712674455248,104.38083611473,62.7178893620873,145.66096272682,249.549902276049,112.496388247797,362.318344293185,181.147975630866,182.564635908276,287.610642758772,72.7367147239346,106.735800669818,68.2087230171593,87.4629418993491,-88.7028163726468,-175.009086091214,-666.151574079162,145.927348678634,-106.715695645026,-379.372199892958,-839.93456602993,262.114722453971,-8.87130485169834,-641.555598509407,-271.747698224872,-108.404348701286,-220.678345560054,-195.264355395408,23.3906993480852,-72.160880728262,-59.7969565873538,-72.7201543700151,-69.1337128766164,-62.7803035737723,-82.5028252512702,-63.3934510196344,-97.1905842307656,-82.3750381889271,-73.1392385832777,-67.45525289067,-78.7377621501141,-59.0394333524277,-96.0784705642131,-78.6106706195553,-81.5769802957724,-63.7578712368354,-88.61719466973,-76.4048136262202
-70.0195151989082,-67.1149249999475,-64.595115565784,-60.9521779399872,-65.5925503129975,-73.2962075886579,-47.322806910234,-37.1709503312759,-15.6367468170863,-30.5056508822908,-35.9182162606647,15.6376855757399,5.63934685741516,-4.20921006954493,72.5945878568656,22.9450807651387,-17.7018505851608,98.9551642501881,-0.607049172030671,106.629901198569,221.278991872829,76.7150296028528,376.323229972105,119.136924716275,188.621334063369,215.978020480505,44.1520887911256,51.7664229617705,-44.7250558244411,63.5651903625936,-173.940228163519,-207.184246985839,-631.353867957989,132.378735524158,-222.350295163368,-458.254218079045,-1076.92198650499,60.3891394497928,-99.0786441576145,-716.959281889872,-472.754047974148,-126.315890492165,-374.623806349881,-252.945321804578,-69.1768824281497,-114.78619481989,-124.244550177592,-121.844038751535,-123.534662947778,-118.909131868188,-120.145218134179,-116.904937431642,-125.318248305603,-125.094297107035,-121.67300967611,-116.053053428018,-112.724462408425,-105.090406940925,-119.309259218493,-110.247870436281,-120.809974460693,-112.614843333485,-107.624919515467,-115.856074109813
-87.9223351435944,-91.5773563112863,-77.6399681748075,-82.6940040877267,-94.2523248707534,-75.4002234304918,-63.644176184329,-63.9494073784784,-28.0984604399608,-50.417560274266,-64.8285384954989,-1.61275146094438,-24.1230982833482,-44.5064899537995,20.8647119442646,19.8407608315964,19.6201980463968,81.7998181528596,-17.6992516444023,81.0653429672869,158.929374930848,-3.66790203219703,309.890285872776,69.2787086850038,108.141654436554,132.295896133353,-39.3348772647644,-25.150421588793,-119.885657503081,-18.569501370264,-275.351014876094,-188.620518861749,-600.421313431083,33.7730454662296,-294.369360314381,-531.83685860492,-1068.76445068819,-192.384123728407,-211.747656500364,-724.133382055145,-594.757302012537,-108.027606985343,-523.272252291222,-276.155094634417,-154.60964542982,-168.334197269875,-187.35691180261,-171.222141500903,-182.400397476392,-177.814302861646,-162.743569664351,-171.030407544441,-155.189840693234,-163.774405752685,-175.899198408261,-171.599684684514,-152.726426143796,-156.430105316799,-149.223237094089,-142.565950499248,-163.903952172974,-164.046916233627,-130.240807726533,-150.013322814205
-99.386696221559,-114.427062750773,-87.3119176420287,-99.0362447509155,-114.766635772033,-72.5812306017537,-80.2666542245624,-90.5047519866472,-45.6259740783044,-71.4299249157918,-93.6581710132196,-22.6712324018659,-49.9740705515885,-77.390692565051,-8.8180319643938,-0.478807190652684,18.7021344542345,44.7358153689151,-16.9672691946733,35.7687496179572,68.5129947514522,-121.105786788065,204.088220661662,37.3685080250856,-7.43238307626557,61.0215615617858,-162.671171505909,-50.1024358922835,-143.329972253546,-138.485855568544,-410.141733727963,-117.383266201944,-618.22589982888,-102.675564354814,-327.629534746461,-565.54273768053,-871.411200007897,-387.647030535831,-319.907128694013,-731.917043939799,-577.676694776751,-83.5562355609932,-623.290122549605,-255.902987297155,-212.940761162328,-201.811469823411,-225.292672714533,-198.460108504343,-217.454348257978,-216.297929085454,-184.894434694832,-203.364964238143,-170.43560820492,-176.469567520472,-205.953723052572,-205.050262125861,-174.38625555425,-184.49715319823,-161.247272886609,-156.766087522469,-187.905335320696,-194.824376433983,-140.985551293333,-166.68185554077
-92.5024085073983,-115.388650923995,-79.1991236384455,-95.0931483072278,-116.562540116481,-61.3621000012846,-79.8503960161036,-98.3197012297147,-50.5297189091561,-81.833826875095,-107.097395870481,-27.7207529670613,-61.1864268774,-89.4044072295094,-4.28322765156805,-24.1370579139566,-1.25649358023293,6.26029811285242,-30.8065427454359,-9.7783238830849,-10.2046217147403,-192.349198416671,116.301722761082,27.5327958738722,-34.7187535505184,14.9707603506167,-217.020938579041,-1.87296129207217,-106.244048395417,-229.810523370041,-517.265289993626,11.9121879590186,-608.619602979833,-196.921537162056,-326.260351504823,-509.405869093403,-619.463468400027,-458.10153063627,-374.671367987927,-768.954790789061,-442.073182836141,-63.2671480343048,-625.585032264908,-195.158817717898,-220.419909876029,-198.899462338506,-227.498061226055,-193.452623597346,-214.909964017063,-220.70162221797,-174.593775582251,-206.489115486319,-156.015881021429,-159.745368927507,-197.093286094352,-201.115522023725,-163.659413954101,-175.028445412498,-141.755606843056,-145.436091606174,-178.225302198713,-193.231308494024,-130.46679258387,-165.157383436044
-84.7248552872548,-106.541334243363,-67.630242788526,-89.0542396444554,-115.363919687822,-55.674736028177,-76.9122772899652,-98.7431759175544,-47.101355438091,-89.7658988300052,-113.55543762401,-29.2829036222745,-68.267128342764,-96.0348716808132,-12.2260087909474,-47.5554139882042,-16.2543677403528,-31.9571105064266,-67.490089751161,-25.0482798116163,-75.0981356232352,-159.206942752434,35.4417151961783,7.49327961011391,49.7445485765273,-20.23093326507,-172.22713243534,36.9259690610041,-35.4840805505078,-258.640285840282,-482.860604975183,141.53135766341,-559.121490245408,-244.229836458567,-323.545217890944,-366.914410990302,-406.977473003833,-466.120738113208,-366.14520033664,-782.840582368076,-290.753690357512,-59.6402974201458,-536.026169301876,-126.718977411906,-204.13012875757,-185.835336751999,-219.666718324463,-180.673393736973,-205.809791179655,-214.469710341924,-160.411781371436,-201.561787819521,-134.22460249316,-144.832420679205,-178.93223622387,-191.237700503436,-142.956995778418,-160.165161095555,-114.506946180229,-130.197623712379,-162.030986663615,-183.175320154196,-114.046080365724,-159.81686188234
-95.1305250085403,-114.493931411114,-74.4482816911292,-103.723619854043,-128.425173452635,-67.8029304253576,-92.8760931948505,-110.444808224073,-58.3568300825253,-112.310980825594,-132.267331411212,-50.2818511513661,-90.8291593240264,-119.781699968176,-56.2311760809379,-87.4862517792928,-43.552865878339,-85.6052135816958,-122.346287813283,-38.1819522639353,-147.729022801838,-68.687798984007,-63.3095979835564,-58.3075624603177,124.339482650184,-54.1870385012987,-99.3134881900554,7.36861184544299,-2.51530586105908,-221.213965062236,-293.963231349447,170.433303179638,-542.970656189054,-284.760044860313,-343.590073771912,-212.832152920507,-255.042097908718,-488.269850226487,-319.032592569863,-705.237203315033,-194.895194113161,-94.1774255075533,-408.858353228553,-84.6469231085804,-210.936474205143,-183.51120021446,-220.102102455259,-184.756198904753,-208.79745412428,-219.091328302217,-162.817035044429,-200.987150102656,-131.469954143221,-151.051096412336,-176.838595114239,-198.492401331305,-134.489572338517,-165.773458106605,-105.866434097562,-129.273920454245,-164.26595136597,-185.893649438517,-109.352725048347,-157.848447821262
-114.146843695844,-138.875654673192,-98.56804948899,-131.290562199846,-150.989377698299,-94.9263377106948,-124.251558141329,-130.268927655095,-93.866717399186,-148.163983031217,-161.395151942233,-89.7253215530026,-131.684030470941,-158.281807542785,-110.95028311773,-144.548236785957,-98.3195774905009,-156.457340276672,-192.714439751769,-92.155342299093,-224.642162648583,-23.0118159667881,-170.758493129577,-157.169397870971,86.7091328049008,-98.0285015381441,-71.3365852960978,-45.7436241706943,-57.1303920319258,-167.90565764059,-67.7984171338426,50.9794733579701,-567.941437701483,-307.741817185685,-341.432739369884,-118.653180950503,-173.135413459011,-509.665531789598,-246.943618361093,-530.96716718646,-130.133152460831,-157.502964282358,-265.459801591839,-67.7834146265853,-239.438782540179,-175.779425446812,-209.849217335119,-188.071238402762,-200.193804497745,-217.246213239549,-163.973546490737,-192.488278329417,-138.285496768138,-157.838342439808,-178.141274919448,-201.141840975948,-131.709864498931,-172.330728108499,-114.364087938187,-133.116797726856,-170.730352609226,-188.655727868168,-116.371757094652,-157.211230619883
-130.921631753213,-162.426392755142,-127.777288632323,-154.780292952168,-170.858972758904,-128.399073834115,-157.400103536779,-150.600926524463,-138.6515488834,-182.816828981751,-186.638949707952,-133.268704394196,-174.4280874533,-194.398427860778,-154.809825447886,-197.620122172242,-160.244715835461,-224.116143828733,-259.986644193236,-172.780381673555,-282.087250916448,-67.2915444635131,-270.919380460554,-243.179891296003,-37.3153754472545,-183.105918286441,-124.269249360815,-65.7558082720538,-165.784706644209,-196.287689286347,87.2557963720662,-152.292766809275,-568.017911337582,-275.862948227223,-285.785919682889,-94.9423014242162,-177.92055529604,-482.630723789745,-165.00973615307,-323.936191054067,-65.5365864416837,-216.075467369796,-104.183071602102,-61.146357819136,-255.459587600121,-150.613426634337,-175.679349056554,-167.517562714515,-170.898518209337,-190.575857338971,-151.355301873887,-172.444990338914,-137.934482987439,-146.726494859247,-168.981980612184,-181.79127369495,-128.878523052574,-160.830739054836,-128.9512984404,-132.237766459836,-165.023514081445,-178.845564369819,-129.565548439445,-159.010599593592
-151.896479514346,-179.869495928643,-153.600142937819,-173.250778090055,-185.838715502339,-158.777784399684,-184.156381924866,-171.187988566908,-171.002117370679,-206.574770415874,-202.359831944275,-170.406752257958,-204.263687198342,-217.898447187666,-189.875421445644,-233.6048882162,-200.242380478972,-267.583015446557,-295.572692214471,-236.135863157949,-313.458724473408,-143.909394696255,-355.888128817155,-295.627197468968,-153.839330330674,-315.395913764216,-218.433089214617,-58.5079108123879,-253.044705948766,-285.162180736449,130.740417141274,-314.206943044004,-502.531579354042,-186.973256753131,-230.884617355388,-88.2254364049944,-236.744427046109,-399.465934877381,-98.742010413638,-141.47753672504,-35.2062133066823,-247.743434506202,44.3975481698735,-63.197073319541,-243.985403779553,-124.987422562569,-139.491299008396,-141.277603492547,-145.829497750556,-157.780268624086,-140.665519204747,-154.604336042635,-138.434648449791,-133.04339003318,-158.25769486184,-158.915474095701,-135.841501505529,-144.992794791195,-146.108432572149,-135.165385916717,-156.323578278382,-167.681963360034,-148.052555122996,-161.402285019524
-176.922213563124,-195.508945709165,-172.143208231901,-189.654998486374,-199.900597338991,-178.803730146736,-198.480534854102,-188.014056294184,-185.200141656709,-217.191504220213,-211.150555593066,-192.801353039081,-219.844289251639,-228.169970256612,-213.743854433215,-251.179006829059,-206.417609251285,-279.659748246634,-296.076014893944,-264.061348853397,-322.045285802119,-166.819685968814,-404.223298118769,-322.83902751331,-192.175126084188,-400.814210990137,-235.064476538286,-44.9976935725746,-272.195991455006,-275.913261558812,88.8385737284562,-375.776076336662,-390.642064395616,-63.0910066700201,-217.14905073915,-37.2170122609796,-278.493658996651,-294.839388397501,-47.4368598301228,13.8176125862139,-70.5682806979227,-249.865769278376,135.73278896862,-76.1754856943639,-218.043717384143,-124.713433786784,-132.400164056071,-143.368053313547,-145.400338419829,-150.576160262891,-150.380347059907,-152.058401184523,-156.831667565926,-141.93822591075,-160.898469234095,-157.708911458833,-157.486410057076,-145.552435209128,-165.77933577241,-152.880944449327,-161.932440764084,-169.804776265845,-170.264879012756,-164.525917519663
-184.816765455251,-200.457259363946,-175.225839739985,-191.827230773814,-203.978952285762,-180.057232280846,-192.261371545592,-186.018294402476,-182.329104691939,-206.746586207592,-205.555412814479,-188.695907119625,-216.783872940574,-219.301266949605,-206.099757484605,-240.022569677731,-176.712188114115,-252.27387468699,-265.707089828658,-252.514297819716,-282.081920383625,-114.088184442111,-374.877773471802,-310.33906397196,-144.533828177779,-311.783258951678,-128.801691790322,-8.93933574424952,-218.371946738884,-120.02437933892,77.5828474468518,-370.243567642447,-271.047125044799,67.0674850044668,-201.864930778983,58.5644596878315,-262.762681160682,-207.649761402339,3.45808675229881,146.626241121597,-130.70979375034,-224.869461287402,156.737404110546,-80.4976562075639,-186.457777530596,-157.037275199174,-156.007818858162,-173.185788946206,-163.017532159127,-167.805942767133,-176.972913097438,-164.821254369658,-186.495180515898,-168.689274684484,-175.643117224658,-175.300242309499,-181.385831502188,-160.650287632535,-182.89849497429,-177.06700345612,-179.771973690032,-180.740851350557,-185.064037876023,-173.437754662267
-156.788035791961,-174.497790278967,-150.746161165311,-163.001172778331,-175.516628038801,-153.011922263802,-161.165662575978,-148.950656364538,-153.872470310424,-164.17939374776,-169.262610656894,-152.688907081116,-182.648160766804,-176.870818656564,-154.030693937951,-185.784460069481,-121.687399857655,-177.040362534385,-192.380715557782,-193.73228589162,-169.162015310662,-29.9237296005325,-249.428524476193,-229.642442649503,-51.7592782885811,-78.0777147749652,-20.3613511994992,79.0691997533481,-125.601400597592,65.2279604247368,198.58768487717,-323.691695461004,-163.208151293899,165.249230401281,-139.002509170524,155.571018430517,-185.203719685889,-150.946045035347,44.2146930450551,238.842061569764,-145.707330970181,-173.214900345858,142.802801306628,-39.9259558862656,-138.750228926074,-191.419371719922,-172.959956957441,-190.838816729708,-169.751690832869,-170.392140843592,-192.408393975078,-169.5581735612,-195.658180504721,-177.783886065183,-177.671781315793,-178.424477764627,-183.967665952467,-163.023589893555,-182.544920951303,-179.203791506265,-178.953069931398,-175.446376944955,-175.479259884197,-174.058575589981
-82.2470213171102,-95.4538466615443,-84.1945359886734,-86.5005003900006,-89.00273391432,-84.4548784128313,-92.3731311722876,-59.4780073631356,-81.8329674268542,-78.8796758251551,-82.6161206127829,-81.031482886842,-101.50652182899,-81.2818303358519,-56.3147790665843,-77.4499471860502,-51.8925542892879,-51.8467959298347,-61.9379993940562,-81.41879587989,3.37818091455782,49.6542246787754,-45.8799964278266,-76.7674547062991,59.6038050262817,144.0809399095,24.8154829957806,232.937122133647,-21.2406909673631,239.34194555265,414.049041015214,-205.109780685751,-44.4843445753048,235.227518070881,-15.4879570142471,246.774909054758,-36.679174434087,-101.80939882355,93.5803633786463,311.743151459441,-76.8644119191354,-90.7185547711946,165.971503395267,64.060980194997,-58.9320425335361,-154.724989229604,-119.163623336984,-136.771087787663,-113.729443612382,-101.277298616861,-144.352317283077,-111.877141818122,-142.839558654185,-120.579931964626,-118.410777530717,-114.710449549585,-128.414841009007,-103.356155978749,-130.311924817053,-120.335770099894,-110.194894008726,-109.036914441131,-117.485391241713,-115.35985679392
57.6559856537849,55.6034369786024,44.8573050879378,57.9193908565597,72.0002332029892,43.2049942581291,41.6190295336114,99.6813266190016,51.9689485373798,66.0500805529083,77.6666738184398,41.7286005514104,43.8888415186253,87.1188463323689,94.7468244168409,94.4959477320969,54.8430178545109,126.964061099202,129.71853317092,86.1667521795798,217.269386840852,139.569541170615,212.124753191425,140.518072282992,204.182740182765,298.285831847587,168.660743521819,445.828522373229,123.913266497435,480.086443915902,625.431593930941,3.27284802778807,147.285723344919,340.061427768031,180.852879661446,363.302847700192,185.151275590906,-3.24951135963484,209.591192310871,430.633204531524,69.9418417531701,31.352909594318,265.611300189911,214.178945079399,64.4865010481015,12.028540457647,51.7643244252892,31.9751098972117,52.5628716821226,74.6877050158491,13.8786548016412,54.1927280905146,6.17162191423201,39.7295926879276,44.6517637677714,54.6745694381694,21.7792451927531,60.5391468317461,10.7282140975389,32.1427399393118,56.7850281060067,57.5701687177787,19.2329423187934,48.956963889084
242.649185382901,247.577380199181,216.337332198513,243.031141282965,269.063397430323,205.499828450674,220.897365418002,295.11991871253,223.229901475897,250.556328585954,285.081107167722,199.209531971573,228.303704009118,298.531816504736,275.31332165027,301.962589872843,205.014034764112,335.856207315845,351.380369440536,283.215273912882,447.825446018791,249.100727577764,485.947412976218,396.889701344416,376.141534710664,425.409174822717,529.94311436911,663.222587781671,309.804618432401,750.679815873909,764.728975768073,235.172569730287,428.805814634682,489.803334962736,422.873387429039,487.60421968889,431.401993284347,174.382825570344,366.428001879269,592.121964665192,246.92804421505,178.100485510238,384.868980270148,364.423659562656,215.417385188139,252.351782763555,287.59907530813,266.054119329339,285.819443744672,301.315486037319,239.177258391304,282.401378831373,219.592463119282,261.726038073358,269.629237457653,283.585443617475,232.683753967218,285.865526234913,208.642553162338,244.789352472423,272.904588076063,281.658528582687,212.64023828992,272.271494307204
388.89477524701,397.326797284195,353.254917312659,384.616197373658,418.035499140864,332.741498050481,364.044381416566,443.041156888112,359.146212471065,400.819764950327,449.236211625031,324.584087853311,377.832205148526,467.233121918018,415.675508181587,472.555083634984,340.121460880419,511.610017260024,539.095417120562,449.681165392226,636.583131942426,331.069000843489,707.264559312422,620.472626054603,509.862770224611,486.295580263139,914.886412454569,755.195063800799,438.656980352331,860.641690247199,744.787832247452,433.021052171152,730.257424511857,599.189299319602,628.155583372293,568.478598735799,657.280370679361,389.265875173574,460.345348566521,716.969908597532,420.116130095429,319.798355950105,456.322779567539,488.213892673174,356.469960479905,428.958523354144,462.797394408368,440.396709109317,462.287611032793,463.93753375658,411.044718069976,457.597391338298,389.706587091767,431.749037019583,442.478826712493,458.421956905168,396.993818360644,457.209776047339,362.48599123701,411.340477401603,433.829617852722,451.69326018172,370.259838740681,437.590506946047
442.893258817846,460.285540222416,408.27318330424,438.369301384377,481.172237084805,392.188259114509,424.344274268149,503.301962456194,416.024556967601,469.434292311383,517.335436705872,375.617720592928,448.71037243946,543.160595353311,474.614285669926,554.792602316312,402.860485800141,599.781699826694,641.599523028492,526.585739273434,717.06276527513,334.96353748349,786.258005342548,721.097524142981,505.948546087145,385.323184728339,972.809432308859,527.365330141284,452.979283202411,639.384386613873,489.237885023204,667.892006758701,979.651200669735,578.510405274106,720.640733786518,620.846313460428,876.861050855342,578.789893635439,450.229586750557,758.67141157908,601.190450156775,443.74544362995,497.174132752124,595.863788899772,471.533201989633,480.763477835108,517.21899200062,492.805711776943,520.446148125419,521.013865011307,467.392879845993,524.654158992188,445.40120409272,487.283248712504,505.725847753764,524.436024416593,451.171535082154,517.231154100038,413.287195739527,466.012589981228,491.918036995323,515.802595778811,429.540154097039,493.844306761253
423.818404474276,451.384607978151,395.893684255442,427.157463589424,475.320312328976,396.113624087998,417.544278457362,493.536439229067,406.681766947095,465.143035064782,508.823645617751,366.560564143575,447.11506889713,537.875350589117,459.191266501112,544.765125193014,393.045337887207,580.156460180144,635.398976276687,492.307766445128,661.313688804272,272.950262006894,657.466044594673,676.337029359265,291.642317542646,182.988218855411,532.989349389342,-98.7139711052464,455.808416000133,97.512509155215,122.609928947879,975.734040736771,1133.66819961807,400.673041677779,672.910677877179,692.722023476789,1052.5816849011,680.082789566156,367.59188042605,716.712190882276,753.232830921269,503.164761862211,526.017383665647,653.649554278688,539.143708248718,444.773579752669,482.693793011446,457.258645161896,494.677061042117,508.487550832986,435.117029834378,506.727906524893,411.516920888712,455.116713711141,485.33422827313,508.412738201493,418.671455385575,492.664819477849,381.330499449727,434.425354689068,472.490724589131,501.478421485843,405.594036528307,473.922411846157
356.433606584688,384.780404688615,334.997208418153,369.673523825498,409.25777866189,347.948974956486,358.335120565491,422.919292411902,348.957725357069,402.077304289415,441.557213580988,316.918559070817,383.001198293084,463.596205727601,378.742344617549,459.032890687991,338.876589528171,469.671521742713,534.948507191623,381.759162247004,514.735257925205,189.786451815577,389.846949863747,567.45956172006,-64.9312433069354,107.189401942393,-164.965313716826,-803.980341634319,565.660052513522,-447.273325011177,-45.3546509025028,1150.71825443111,1146.35794547972,147.002501224852,533.889016541822,754.420454928596,1055.05609184658,627.146339747043,266.217819511912,605.762133064064,773.584084480643,416.34033532406,501.084482552795,580.592269543079,502.590313144937,356.504191076104,395.368198746984,372.310044180798,416.985682156343,439.421486870096,348.166668352367,424.679703402119,332.426317734028,370.024365408423,406.228338530366,431.7016226963,337.372580796503,406.867982181684,301.479619449437,354.83435981032,395.84631817283,426.029112851027,328.135416796905,401.802562677696
249.296824472975,270.11011217901,236.247318876238,267.113783099286,289.97723942635,254.609678821766,251.352329572112,296.042820191051,250.486693472086,288.897046378067,317.399343917515,231.054058507381,270.635060216809,330.73626104782,254.147941637562,325.658361983494,261.913564668402,322.268186583519,391.946320052641,255.237896108344,359.833443941823,106.972394312247,151.430160528094,464.103972752886,-358.83997959602,211.132420478992,-621.519527357572,-1083.7692011281,707.26340637244,-612.581745301418,69.1540498394104,988.107908139365,1001.50797507656,-47.1469222309625,395.5111844437,700.858585115718,833.828896795187,420.201676249712,190.671881095434,450.153116973083,631.310946860226,194.511396243921,390.75763194352,366.442104883428,338.956206588181,230.622500690806,267.651005120325,251.26945531147,288.9187099775,303.71504032052,227.163308325983,288.548959903768,222.447276718273,245.716176539728,276.021297108016,295.561024896897,226.216756539418,269.651487118836,196.633910985319,240.123401828497,268.005192777412,291.291730609492,215.224596143607,279.880233406797
134.486072004834,146.412344267209,133.646051999839,149.775099634094,158.869919234661,154.663117819984,131.281932425937,155.500904178588,141.323613839399,160.048815713682,173.441754163316,132.420589283266,152.008168244703,186.300798278841,140.027038256771,190.654038525022,180.973087527594,193.051612320923,252.480220323311,148.516771445528,231.107879815505,43.5026659332231,4.60936571453564,336.115801672885,-469.155965656347,238.91173135921,-591.072543523989,-891.92683892871,701.068531818474,-450.062658668374,149.536238330743,637.423237236216,753.271616981408,-153.346480064511,295.55437339621,476.697803163845,489.480212350642,158.051861748208,121.405599220408,264.277873861748,397.802103909843,-39.8720818013235,207.346920332029,86.2970479112366,110.392796357123,109.085018119472,127.521838488421,123.762260965366,141.35869856887,141.042624407072,112.202020653149,142.128048840102,110.964067680479,117.877682926413,134.386466666536,139.272121963197,116.940578407276,126.441067248452,101.10098326874,123.383625309222,131.027639313484,141.136884134724,106.467518700512,141.467726545827
60.2379894761565,63.3207258007202,70.6071050221578,70.4861788335049,69.2781747468613,89.035788532384,51.3404020111192,58.5361134967206,67.6573943289392,69.5738946980259,72.0060410273987,68.0309319701617,73.1045660338306,86.9401614025076,79.0363937116175,98.9585198282141,125.650354306823,105.431649446298,139.811769967486,79.8896847632734,124.336315653336,35.0993312790258,-100.42465233519,169.256425779891,-458.624311805411,60.5991878720569,-280.317979222812,-642.028095849789,526.531399867731,-313.705217930979,-32.5409152319411,386.862173077795,486.905943830176,-232.08593023695,216.335010260277,173.179003198262,126.202735499573,-62.3734254125335,25.2436073633567,70.6646641091154,139.536226369116,-223.424468434428,-13.7152040414128,-202.209115940022,-105.720486203625,42.8532481421431,23.1154606958299,35.9164003642919,36.7275450189847,22.5016755521283,48.0107608626185,42.4432143383648,48.2555951366191,40.3648519960877,40.6092565084957,30.8361064836262,52.6047569443837,34.298495646591,52.4184851565746,56.1218258555515,45.3072458880005,42.1120224924734,48.7873504709164,43.6528823420531
28.0864882948785,22.3305843859528,42.4465259284378,35.3121218984972,25.2841964873829,53.7117638186177,17.201730635808,11.9207350238067,33.0306326749145,29.0641486268349,21.9867951086048,47.0415274249134,32.7856805851268,32.5455126023288,52.058592646259,46.7628125840335,108.548242147174,48.1359632124981,55.9634943996418,55.5044686935663,43.446812598053,84.1574105597384,-162.796414991883,19.3935868575044,-402.662043174391,-101.925526608426,3.5031714228277,-545.064567807789,311.259674689531,-289.388253349534,-278.796449294549,242.940848152613,245.324105648038,-286.901131438992,147.21837279085,-59.4307818974955,-229.575191590071,-251.616388958201,-56.7979168980304,-86.6629580415858,-109.059830938219,-412.436993312996,-210.641212700463,-479.832189117657,-303.964299152468,18.6462819236246,-35.9661232325845,-7.24344445158023,-14.6752315418027,-42.1828521823884,24.730732001701,-9.94797828146168,32.3878357797034,12.8361965641434,-2.47755007960716,-22.1227255444771,30.7360713455067,-9.12333582490648,39.8965601184367,34.2244597439202,10.2893213117355,-0.987580446658185,32.1654996184002,-1.73698376866448
-7.2707238346762,-19.8083714166586,5.3332644838548,-3.06079066081349,-17.3261819631852,14.8790171544841,-16.2617007700935,-27.257152878616,-2.74265334325194,-5.25348152374593,-25.1289446040566,25.6634072363094,-7.91471892097334,-22.0290318865242,14.8941588180557,-11.0999950165237,100.195932549047,-8.40956933871899,-21.526620865108,42.9093779407028,-27.9669297200408,135.12530812968,-155.593125946222,-114.485201170606,-290.9949919767,-121.125180278077,151.07337341976,-455.530163227532,107.77492299776,-198.314846985416,-337.35553980944,58.2394096871389,44.3979564926396,-273.615901597696,84.0029983738216,-157.438612825811,-523.807883443391,-441.50865922243,-76.5411391087842,-179.882172427659,-292.442842923101,-600.479547772432,-300.704662534838,-684.914324304149,-492.313187252038,-21.4607397575858,-88.1438735164034,-49.726016488523,-62.7709976944141,-99.8586955394775,-12.8326812314352,-61.154500625569,8.49822851928243,-23.17250201911,-45.4302062961744,-72.1329106251765,0.375361877690132,-53.5435035981467,8.57351034155788,-1.49422896995241,-28.890076011373,-43.1369307629816,0.182769658786629,-39.3518989566432
-58.3215244515358,-75.2974690512301,-45.8893400911533,-60.4763344087767,-74.4817387181642,-30.9797219022875,-64.5498714103826,-79.5930366365638,-51.9049330738745,-57.0076704511135,-85.4126763650557,-13.9513522937529,-58.7823392127097,-87.8305346766486,-34.8492465855605,-83.5848945067759,70.0015148567949,-74.894350874567,-104.004981523813,-0.681911345227864,-120.515745965475,130.700743238785,-135.363145071172,-272.333929886094,-146.829132012067,-170.608698797963,194.553062737258,-317.754597079965,-122.201685120205,-12.5932160808052,-245.053639285974,-167.136819825831,-69.266670934711,-196.784458526026,0.381620906457093,-146.863565355349,-639.68114924389,-542.032814100719,-61.7335787950312,-212.109191154234,-369.455534338889,-659.486238117515,-257.247557133747,-731.637584474608,-589.68051241629,-84.3380398585224,-144.387963663084,-110.618070543998,-122.233222147764,-158.149245964173,-76.7102599363936,-122.740379582582,-43.4368832686482,-86.6827182703697,-103.021100711194,-130.122547930917,-57.9171770017555,-112.447088879997,-54.3696793339724,-65.6039517239633,-86.6838648243829,-101.466655555757,-58.0827076258641,-92.1211595128087
-89.6135984043045,-108.537022126234,-75.6509298403705,-97.9946387702514,-113.000480963239,-59.1867715402656,-95.1550480178124,-119.687239920657,-87.090375953411,-99.4574477488049,-124.972179581367,-41.8825092535344,-89.9096328502468,-130.606542454874,-70.566784614541,-133.667653675503,25.4443201660914,-130.518453137475,-167.999870867844,-69.0251008674573,-218.421648674174,73.5478429903788,-171.388585546128,-407.607453832398,-73.9324283295004,-337.281966320861,171.927856464805,-266.493377211675,-363.626386101481,76.5925704062703,-162.205667964683,-416.075140305104,-74.3773106330092,-118.407086342507,-146.931205138432,-100.311630408539,-538.120431572689,-467.511358745109,-70.545363997801,-208.69308635435,-381.0451385039,-544.102603868441,-161.082590539181,-636.056909191712,-518.449154992302,-124.757449182645,-170.323303141776,-154.453056270323,-154.3803185433,-177.264900706567,-119.964669341883,-159.013951932565,-87.5553699505766,-132.051112530634,-138.456990789368,-156.384238918845,-107.510563768749,-148.103880440335,-99.7461090490932,-110.401034705895,-123.938085640312,-136.554805265584,-96.0034520779978,-127.52660810535
-91.8027317126602,-106.840677763892,-81.5053733258952,-101.892829854071,-118.313463297431,-70.8103375656889,-98.094031885305,-132.780936597544,-102.358896633749,-114.922822048606,-134.713239023738,-51.1284176553984,-95.185228122204,-139.500990802367,-93.5145189716009,-154.108552540177,-18.2398335428509,-166.393447193115,-201.825053406425,-127.272890303444,-289.772847557517,0.846508220297498,-249.596004926646,-475.461203392997,-121.389529412186,-518.642005704808,101.660933982077,-317.325729129614,-561.630076904135,-57.2750869946895,-164.252362160936,-761.350170900426,-32.8356881356544,-92.8635010069999,-349.558591704984,-103.394613099909,-329.712010762518,-325.511115054336,-122.112510174487,-202.369157339182,-384.824169441393,-361.417253565071,-98.4541411032189,-512.378900164419,-353.695035789044,-125.901153081652,-153.891917635477,-156.025448331231,-143.747853199577,-152.684649192299,-121.810343569873,-153.405543994139,-98.0294337428855,-135.266226881993,-136.365054624953,-144.029072322186,-124.978566313708,-143.906442688127,-106.896361015763,-117.787659091665,-127.821301344911,-134.034152661282,-98.5952996267351,-125.806345549233
